time,.header.seq,.header.stamp.secs,.header.stamp.nsecs,.header.frame_id,.ch0,.ch1,.ch2,.ch3,.ch4,.ch5,.ch6,.ch7
2017/05/27/11:54:57.738404,141399,1495857297,738153934,0,257,305,335,299,162,84,55,59
2017/05/27/11:54:57.760836,141400,1495857297,760618925,0,269,291,279,257,140,76,55,62
2017/05/27/11:54:57.775844,141401,1495857297,775585889,0,284,299,299,267,130,64,52,64
2017/05/27/11:54:57.798623,141402,1495857297,798171997,0,287,277,299,274,124,62,47,65
2017/05/27/11:54:57.820836,141403,1495857297,820563077,0,320,351,368,316,135,76,52,66
2017/05/27/11:54:57.835929,141404,1495857297,835674047,0,316,368,357,296,114,79,52,67
2017/05/27/11:54:57.858298,141405,1495857297,858103990,0,292,375,353,295,124,84,52,64
2017/05/27/11:54:57.880931,141406,1495857297,880634069,0,315,463,373,313,133,85,51,61
2017/05/27/11:54:57.895878,141407,1495857297,895661115,0,315,454,367,302,127,79,49,57
2017/05/27/11:54:57.918418,141408,1495857297,918152093,0,268,387,278,233,117,74,43,53
2017/05/27/11:54:57.940833,141409,1495857297,940601110,0,245,384,326,279,138,85,47,52
2017/05/27/11:54:57.963342,141410,1495857297,963114976,0,268,440,420,323,138,82,47,54
2017/05/27/11:54:57.979898,141411,1495857297,979676008,0,526,621,444,309,150,93,62,103
2017/05/27/11:54:58.001076,141412,1495857298,751972,0,542,639,459,306,168,97,62,105
2017/05/27/11:54:58.023281,141413,1495857298,23130893,0,556,657,454,305,180,93,62,107
2017/05/27/11:54:58.038421,141414,1495857298,38207054,0,580,647,446,282,168,75,55,107
2017/05/27/11:54:58.061082,141415,1495857298,60700893,0,604,616,420,259,174,83,56,110
2017/05/27/11:54:58.083363,141416,1495857298,83118915,0,388,384,409,270,164,75,41,68
2017/05/27/11:54:58.098859,141417,1495857298,98252058,0,381,404,393,270,150,71,45,66
2017/05/27/11:54:58.120823,141418,1495857298,120589971,0,384,392,440,282,138,70,47,67
2017/05/27/11:54:58.143445,141419,1495857298,143191099,0,350,390,419,266,135,87,53,65
2017/05/27/11:54:58.158286,141420,1495857298,158087015,0,339,369,412,256,124,90,54,65
2017/05/27/11:54:58.180826,141421,1495857298,180603027,0,337,374,388,234,122,91,56,62
2017/05/27/11:54:58.204686,141422,1495857298,204488992,0,342,334,414,256,134,90,54,65
2017/05/27/11:54:58.218454,141423,1495857298,218189954,0,362,339,354,239,127,103,52,64
2017/05/27/11:54:58.240897,141424,1495857298,240663051,0,413,365,377,262,131,95,51,70
2017/05/27/11:54:58.263314,141425,1495857298,263112068,0,377,398,404,318,164,106,50,68
2017/05/27/11:54:58.285856,141426,1495857298,285621881,0,361,380,394,318,163,105,47,71
2017/05/27/11:54:58.300894,141427,1495857298,300611972,0,365,383,381,317,154,107,45,72
2017/05/27/11:54:58.323584,141428,1495857298,323245048,0,378,393,448,340,176,104,48,72
2017/05/27/11:54:58.338298,141429,1495857298,338102102,0,350,401,446,336,166,103,44,64
2017/05/27/11:54:58.360960,141430,1495857298,360702991,0,352,442,403,280,139,89,43,60
2017/05/27/11:54:58.391766,141431,1495857298,391433954,0,352,513,502,314,159,104,53,64
2017/05/27/11:54:58.405895,141432,1495857298,405616044,0,321,547,534,336,190,133,66,67
2017/05/27/11:54:58.420844,141433,1495857298,420622110,0,292,546,490,321,181,132,67,64
2017/05/27/11:54:58.443323,141434,1495857298,443125009,0,301,538,485,317,192,136,70,76
2017/05/27/11:54:58.458411,141435,1495857298,458178043,0,319,533,465,303,193,139,70,80
2017/05/27/11:54:58.480946,141436,1495857298,480648040,0,316,462,359,260,181,130,64,76
2017/05/27/11:54:58.503515,141437,1495857298,503196001,0,329,444,333,234,164,101,50,72
2017/05/27/11:54:58.521415,141438,1495857298,521070003,0,299,499,328,219,167,96,45,71
2017/05/27/11:54:58.543769,141439,1495857298,540586948,0,251,520,334,211,156,82,45,59
2017/05/27/11:54:58.563460,141440,1495857298,563169002,0,284,488,332,209,147,68,41,52
2017/05/27/11:54:58.579935,141441,1495857298,579571962,0,289,525,345,228,146,61,45,62
2017/05/27/11:54:58.601050,141442,1495857298,600704908,0,287,524,431,257,141,57,46,58
2017/05/27/11:54:58.623335,141443,1495857298,623151063,0,299,492,470,293,138,71,50,62
2017/05/27/11:54:58.638300,141444,1495857298,638099908,0,307,490,476,303,152,87,51,67
2017/05/27/11:54:58.661941,141445,1495857298,660634994,0,259,497,513,318,179,96,51,80
2017/05/27/11:54:58.683391,141446,1495857298,683163881,0,262,508,546,337,196,97,48,73
2017/05/27/11:54:58.698322,141447,1495857298,698105096,0,311,524,521,370,208,101,54,77
2017/05/27/11:54:58.720810,141448,1495857298,720554113,0,322,491,498,358,206,94,54,79
2017/05/27/11:54:58.743597,141449,1495857298,743292093,0,319,475,491,363,207,81,54,81
2017/05/27/11:54:58.758309,141450,1495857298,758100986,0,307,493,469,365,187,69,53,68
2017/05/27/11:54:58.782338,141451,1495857298,782093048,0,326,488,439,344,171,95,57,73
2017/05/27/11:54:58.803469,141452,1495857298,803141117,0,285,448,367,287,152,100,55,72
2017/05/27/11:54:58.820360,141453,1495857298,820173025,0,280,549,442,340,168,108,60,70
2017/05/27/11:54:58.841030,141454,1495857298,840749979,0,292,537,449,337,170,119,63,73
2017/05/27/11:54:58.863233,141455,1495857298,863065004,0,315,505,496,339,179,123,68,83
2017/05/27/11:54:58.885951,141456,1495857298,885652065,0,291,547,542,375,197,108,66,82
2017/05/27/11:54:58.900827,141457,1495857298,900613069,0,294,573,533,363,197,98,63,84
2017/05/27/11:54:58.924726,141458,1495857298,924525022,0,282,499,477,298,195,98,65,94
2017/05/27/11:54:58.945745,141459,1495857298,945564031,0,255,511,512,304,187,113,64,89
2017/05/27/11:54:58.960791,141460,1495857298,960593938,0,222,538,460,289,178,112,61,78
2017/05/27/11:54:58.983382,141461,1495857298,983166933,0,206,460,405,240,161,110,58,75
2017/05/27/11:54:59.005876,141462,1495857299,5629062,0,205,466,498,321,181,117,65,85
2017/05/27/11:54:59.021033,141463,1495857299,20684957,0,180,522,495,322,173,114,61,78
2017/05/27/11:54:59.043261,141464,1495857299,43077945,0,172,542,432,302,182,94,55,76
2017/05/27/11:54:59.065811,141465,1495857299,65619945,0,170,520,433,304,185,94,55,76
2017/05/27/11:54:59.080799,141466,1495857299,80570936,0,167,501,429,319,193,99,58,79
2017/05/27/11:54:59.119222,141467,1495857299,118895053,0,112,479,370,271,195,107,59,65
2017/05/27/11:54:59.125802,141468,1495857299,125597000,0,100,376,338,263,190,107,59,57
2017/05/27/11:54:59.140783,141469,1495857299,140588998,0,93,316,356,275,187,101,60,55
2017/05/27/11:54:59.163517,141470,1495857299,163207054,0,88,326,376,279,187,109,60,56
2017/05/27/11:54:59.189311,141471,1495857299,189009904,0,77,326,422,282,185,109,61,55
2017/05/27/11:54:59.200863,141472,1495857299,200596094,0,70,320,388,256,170,109,56,49
2017/05/27/11:54:59.223436,141473,1495857299,223206043,0,75,441,398,252,164,110,51,49
2017/05/27/11:54:59.245772,141474,1495857299,245613098,0,77,454,397,255,156,115,51,51
2017/05/27/11:54:59.262253,141475,1495857299,262056112,0,69,458,401,251,156,116,52,50
2017/05/27/11:54:59.284785,141476,1495857299,284547090,0,69,491,326,218,152,126,49,47
2017/05/27/11:54:59.305709,141477,1495857299,305573940,0,73,496,317,209,145,117,42,48
2017/05/27/11:54:59.320848,141478,1495857299,320688009,0,73,434,403,256,153,124,50,50
2017/05/27/11:54:59.343260,141479,1495857299,343091011,0,72,449,423,247,159,117,50,47
2017/05/27/11:54:59.365901,141480,1495857299,365633010,0,78,450,447,270,194,115,53,49
2017/05/27/11:54:59.380778,141481,1495857299,380573034,0,83,456,453,279,214,116,58,51
2017/05/27/11:54:59.411520,141482,1495857299,411328077,0,83,465,453,275,220,121,60,50
2017/05/27/11:54:59.425809,141483,1495857299,425582885,0,95,492,450,269,242,119,58,54
2017/05/27/11:54:59.440801,141484,1495857299,440607070,0,101,509,419,260,246,120,58,56
2017/05/27/11:54:59.463490,141485,1495857299,463180065,0,117,604,414,268,225,112,57,60
2017/05/27/11:54:59.485751,141486,1495857299,485558986,0,121,608,498,290,217,107,56,57
2017/05/27/11:54:59.500798,141487,1495857299,500593900,0,134,667,509,304,226,114,62,62
2017/05/27/11:54:59.523326,141488,1495857299,523153066,0,127,675,499,290,220,114,61,59
2017/05/27/11:54:59.549552,141489,1495857299,549160957,0,124,672,542,310,219,118,62,59
2017/05/27/11:54:59.560782,141490,1495857299,560617923,0,125,633,561,338,263,128,64,68
2017/05/27/11:54:59.583448,141491,1495857299,583205938,0,117,626,486,312,252,122,62,68
2017/05/27/11:54:59.605762,141492,1495857299,605603933,0,105,544,475,307,262,128,60,67
2017/05/27/11:54:59.620822,141493,1495857299,620604038,0,105,509,475,344,265,132,62,64
2017/05/27/11:54:59.643349,141494,1495857299,643146038,0,104,463,441,355,289,133,66,68
2017/05/27/11:54:59.665853,141495,1495857299,665657043,0,76,389,362,302,252,142,63,52
2017/05/27/11:54:59.680815,141496,1495857299,680619955,0,80,377,451,335,264,139,61,50
2017/05/27/11:54:59.703463,141497,1495857299,703155994,0,78,424,465,334,235,130,56,47
2017/05/27/11:54:59.725871,141498,1495857299,725667953,0,74,403,437,294,213,121,51,46
2017/05/27/11:54:59.740888,141499,1495857299,740585088,0,81,436,450,286,169,119,44,41
2017/05/27/11:54:59.763688,141500,1495857299,763190984,0,81,417,465,283,160,98,45,47
2017/05/27/11:54:59.785766,141501,1495857299,785558938,0,73,379,398,243,136,110,41,44
2017/05/27/11:54:59.808611,141502,1495857299,808329105,0,74,357,433,254,139,99,41,44
2017/05/27/11:54:59.823321,141503,1495857299,823122978,0,76,380,397,240,139,109,43,46
2017/05/27/11:54:59.845723,141504,1495857299,845557928,0,78,407,465,227,133,103,45,48
2017/05/27/11:54:59.868413,141505,1495857299,868150949,0,89,435,451,236,128,105,46,44
2017/05/27/11:54:59.883327,141506,1495857299,883109092,0,102,465,484,252,137,90,49,52
2017/05/27/11:54:59.907313,141507,1495857299,907083988,0,100,492,443,233,141,100,49,52
2017/05/27/11:54:59.928348,141508,1495857299,928112030,0,102,452,494,256,137,87,50,55
2017/05/27/11:54:59.943262,141509,1495857299,943099975,0,96,422,445,255,142,88,47,53
2017/05/27/11:54:59.965883,141510,1495857299,965612888,0,92,414,442,251,177,96,47,57
2017/05/27/11:54:59.988316,141511,1495857299,988114118,0,94,421,401,231,164,101,48,55
2017/05/27/11:55:00.012266,141512,1495857300,12065887,0,96,374,383,249,167,94,49,58
2017/05/27/11:55:00.025820,141513,1495857300,25616884,0,102,432,345,254,191,98,52,59
2017/05/27/11:55:00.066258,141514,1495857300,64613103,0,106,513,396,268,194,101,54,58
2017/05/27/11:55:00.066267,141515,1495857300,66065073,0,106,549,396,254,178,102,55,54
2017/05/27/11:55:00.085842,141516,1495857300,85601091,0,121,569,407,258,191,104,52,52
2017/05/27/11:55:00.108341,141517,1495857300,108124017,0,122,567,413,236,187,103,52,53
2017/05/27/11:55:00.124958,141518,1495857300,124614000,0,120,530,432,261,189,98,56,53
2017/05/27/11:55:00.145923,141519,1495857300,145571947,0,117,487,370,244,188,92,53,57
2017/05/27/11:55:00.168296,141520,1495857300,168158054,0,116,459,421,250,179,83,46,56
2017/05/27/11:55:00.184850,141521,1495857300,184561967,0,94,422,390,249,178,90,48,56
2017/05/27/11:55:00.207253,141522,1495857300,207067012,0,96,422,401,264,182,91,53,62
2017/05/27/11:55:00.228281,141523,1495857300,228104114,0,100,480,402,237,164,89,46,62
2017/05/27/11:55:00.244869,141524,1495857300,244606018,0,103,474,435,265,194,102,52,62
2017/05/27/11:55:00.267238,141525,1495857300,267043113,0,111,445,389,275,239,112,53,62
2017/05/27/11:55:00.288461,141526,1495857300,288134098,0,109,444,431,288,248,112,55,61
2017/05/27/11:55:00.304834,141527,1495857300,304572105,0,105,440,418,277,250,114,48,52
2017/05/27/11:55:00.335160,141528,1495857300,334558010,0,98,393,393,263,242,110,49,51
2017/05/27/11:55:00.348439,141529,1495857300,348191022,0,95,351,381,261,225,104,47,54
2017/05/27/11:55:00.364823,141530,1495857300,364631891,0,84,408,385,244,174,94,48,54
2017/05/27/11:55:00.387301,141531,1495857300,387096881,0,83,375,335,228,158,95,46,53
2017/05/27/11:55:00.408303,141532,1495857300,408132076,0,87,376,352,247,163,92,54,55
2017/05/27/11:55:00.434825,141533,1495857300,434684038,0,97,464,371,262,163,94,53,55
2017/05/27/11:55:00.447220,141534,1495857300,447048902,0,108,504,330,229,165,88,51,48
2017/05/27/11:55:00.468312,141535,1495857300,468122959,0,126,484,310,237,159,98,57,53
2017/05/27/11:55:00.490817,141536,1495857300,490612983,0,132,526,322,241,164,92,61,54
2017/05/27/11:55:00.507314,141537,1495857300,507112026,0,146,541,333,231,148,86,54,52
2017/05/27/11:55:00.528412,141538,1495857300,528146028,0,153,534,299,220,178,113,65,51
2017/05/27/11:55:00.550683,141539,1495857300,550539970,0,149,530,339,237,176,125,72,57
2017/05/27/11:55:00.567211,141540,1495857300,567045927,0,137,535,363,237,177,118,66,52
2017/05/27/11:55:00.588411,141541,1495857300,588110923,0,136,536,375,232,182,117,64,51
2017/05/27/11:55:00.610843,141542,1495857300,610662937,0,118,540,369,233,185,119,63,48
2017/05/27/11:55:00.627290,141543,1495857300,627106904,0,111,520,377,231,158,93,55,50
2017/05/27/11:55:00.648348,141544,1495857300,648128032,0,111,554,363,231,174,82,47,50
2017/05/27/11:55:00.670813,141545,1495857300,670619010,0,107,522,433,325,208,89,52,51
2017/05/27/11:55:00.687300,141546,1495857300,687088012,0,117,518,456,354,207,95,53,59
2017/05/27/11:55:00.708320,141547,1495857300,708126068,0,115,511,448,353,210,102,55,64
2017/05/27/11:55:00.730844,141548,1495857300,730618953,0,113,507,446,359,243,120,55,65
2017/05/27/11:55:00.747303,141549,1495857300,747100114,0,122,473,440,357,230,123,57,65
2017/05/27/11:55:00.768540,141550,1495857300,768199920,0,119,475,375,279,196,116,55,66
2017/05/27/11:55:00.790856,141551,1495857300,790607929,0,101,444,329,239,198,111,51,60
2017/05/27/11:55:00.807400,141552,1495857300,807091951,0,104,447,316,236,202,116,56,62
2017/05/27/11:55:00.828410,141553,1495857300,828175067,0,119,443,334,245,177,102,63,69
2017/05/27/11:55:00.850681,141554,1495857300,850527048,0,109,408,340,253,169,108,60,71
2017/05/27/11:55:00.867230,141555,1495857300,867046117,0,117,467,384,278,202,123,68,73
2017/05/27/11:55:00.888315,141556,1495857300,888099908,0,124,550,387,280,195,126,74,76
2017/05/27/11:55:00.911273,141557,1495857300,910742998,0,129,544,413,305,200,119,70,76
2017/05/27/11:55:00.927240,141558,1495857300,927054882,0,118,546,433,323,191,120,65,72
2017/05/27/11:55:00.949897,141559,1495857300,949630022,0,115,546,405,319,197,113,64,66
2017/05/27/11:55:00.970810,141560,1495857300,970590114,0,105,487,343,302,172,98,52,65
2017/05/27/11:55:00.987381,141561,1495857300,987062931,0,103,403,356,305,157,91,46,64
2017/05/27/11:55:01.008740,141562,1495857301,8275032,0,97,387,340,288,148,95,47,61
2017/05/27/11:55:01.030755,141563,1495857301,30564069,0,110,422,281,236,141,86,41,57
2017/05/27/11:55:01.047566,141564,1495857301,47202110,0,115,448,276,220,131,80,46,67
2017/05/27/11:55:01.068323,141565,1495857301,68110942,0,131,481,399,245,159,80,49,71
2017/05/27/11:55:01.098572,141566,1495857301,98143100,0,127,463,391,236,175,107,56,71
2017/05/27/11:55:01.107377,141567,1495857301,107094049,0,147,571,404,229,162,99,58,79
2017/05/27/11:55:01.128320,141568,1495857301,128135919,0,147,570,426,243,175,110,65,83
2017/05/27/11:55:01.151057,141569,1495857301,150646924,0,144,532,450,258,191,117,67,77
2017/05/27/11:55:01.167357,141570,1495857301,167054891,0,134,549,354,214,166,121,67,70
2017/05/27/11:55:01.188665,141571,1495857301,188216924,0,134,551,360,214,155,103,63,70
2017/05/27/11:55:01.210725,141572,1495857301,210532903,0,114,486,390,236,173,111,67,66
2017/05/27/11:55:01.227305,141573,1495857301,227108955,0,87,458,392,233,160,102,61,55
2017/05/27/11:55:01.248461,141574,1495857301,248080015,0,86,458,377,228,152,94,57,53
2017/05/27/11:55:01.270888,141575,1495857301,270596027,0,84,439,368,282,164,92,55,52
2017/05/27/11:55:01.287537,141576,1495857301,287086963,0,111,455,381,295,164,90,54,53
2017/05/27/11:55:01.308254,141577,1495857301,308088064,0,114,488,417,310,154,78,50,51
2017/05/27/11:55:01.330912,141578,1495857301,330595016,0,119,451,411,313,155,74,51,52
2017/05/27/11:55:01.354780,141579,1495857301,354528903,0,118,465,423,320,147,86,51,54
2017/05/27/11:55:01.368598,141580,1495857301,368196010,0,138,475,437,283,147,81,56,60
2017/05/27/11:55:01.390803,141581,1495857301,390607118,0,124,473,446,279,143,83,56,59
2017/05/27/11:55:01.407261,141582,1495857301,407073020,0,127,517,429,258,139,90,58,65
2017/05/27/11:55:01.428724,141583,1495857301,428236007,0,130,552,410,237,138,89,58,67
2017/05/27/11:55:01.450712,141584,1495857301,450567960,0,129,581,392,232,143,79,56,67
2017/05/27/11:55:01.467332,141585,1495857301,467103004,0,113,576,414,263,132,88,54,63
2017/05/27/11:55:01.489733,141586,1495857301,489547967,0,109,596,386,269,141,85,51,65
2017/05/27/11:55:01.510764,141587,1495857301,510555028,0,143,548,347,259,144,88,50,63
2017/05/27/11:55:01.527452,141588,1495857301,527101993,0,143,536,369,269,161,90,47,60
2017/05/27/11:55:01.549754,141589,1495857301,549567937,0,141,520,347,246,152,88,48,59
2017/05/27/11:55:01.571006,141590,1495857301,570666074,0,134,511,301,210,156,80,47,59
2017/05/27/11:55:01.587245,141591,1495857301,587052106,0,144,561,399,245,149,77,46,58
2017/05/27/11:55:01.610038,141592,1495857301,609616994,0,104,500,387,240,147,69,43,49
2017/05/27/11:55:01.632274,141593,1495857301,632055044,0,94,461,404,257,137,81,46,49
2017/05/27/11:55:01.654806,141594,1495857301,654560089,0,98,446,416,262,135,83,47,51
2017/05/27/11:55:01.669706,141595,1495857301,669523954,0,105,520,472,281,139,80,47,56
2017/05/27/11:55:01.690786,141596,1495857301,690557003,0,85,446,422,250,142,77,48,52
2017/05/27/11:55:01.713379,141597,1495857301,713089942,0,81,441,414,242,142,80,45,54
2017/05/27/11:55:01.729702,141598,1495857301,729501008,0,99,477,422,238,156,102,46,59
2017/05/27/11:55:01.750715,141599,1495857301,750530004,0,99,474,428,254,165,103,49,62
2017/05/27/11:55:01.773283,141600,1495857301,773097991,0,100,451,365,238,149,105,46,57
2017/05/27/11:55:01.790073,141601,1495857301,789587020,0,101,440,340,243,158,110,54,58
2017/05/27/11:55:01.810775,141602,1495857301,810578107,0,110,493,355,241,155,105,57,61
2017/05/27/11:55:01.833461,141603,1495857301,833199024,0,99,465,307,228,136,77,55,55
2017/05/27/11:55:01.849701,141604,1495857301,849553108,0,102,487,311,212,132,80,51,49
2017/05/27/11:55:01.870866,141605,1495857301,870647907,0,93,420,346,202,145,78,53,51
2017/05/27/11:55:01.893451,141606,1495857301,893156051,0,96,482,333,179,143,78,45,50
2017/05/27/11:55:01.909752,141607,1495857301,909557104,0,96,468,337,204,141,79,38,44
2017/05/27/11:55:01.931052,141608,1495857301,930649995,0,91,491,349,223,139,80,37,44
2017/05/27/11:55:01.953310,141609,1495857301,953128099,0,87,463,343,220,157,81,39,45
2017/05/27/11:55:01.970086,141610,1495857301,969571113,0,89,453,310,230,150,82,36,41
2017/05/27/11:55:01.990870,141611,1495857301,990578889,0,110,409,338,254,150,79,40,46
2017/05/27/11:55:02.013596,141612,1495857302,13217926,0,114,380,305,234,151,76,40,47
2017/05/27/11:55:02.037251,141613,1495857302,37054061,0,117,337,272,205,152,76,41,47
2017/05/27/11:55:02.050712,141614,1495857302,50533056,0,126,417,265,202,130,71,40,46
2017/05/27/11:55:02.073293,141615,1495857302,73102951,0,126,453,263,189,129,69,42,50
2017/05/27/11:55:02.089872,141616,1495857302,89526891,0,105,425,256,163,119,84,41,47
2017/05/27/11:55:02.110709,141617,1495857302,110532045,0,112,442,257,158,116,93,44,50
2017/05/27/11:55:02.133312,141618,1495857302,133109092,0,117,461,296,179,126,89,45,51
2017/05/27/11:55:02.149782,141619,1495857302,149552106,0,108,457,292,191,127,88,43,52
2017/05/27/11:55:02.186638,141620,1495857302,186319112,0,108,440,288,188,126,95,43,47
2017/05/27/11:55:02.193361,141621,1495857302,193172931,0,124,439,264,190,123,82,41,50
2017/05/27/11:55:02.213482,141622,1495857302,213295936,0,109,447,295,200,130,97,38,45
2017/05/27/11:55:02.230784,141623,1495857302,230581045,0,109,482,293,195,123,99,38,41
2017/05/27/11:55:02.253338,141624,1495857302,253119945,0,109,418,288,186,122,102,39,42
2017/05/27/11:55:02.277327,141625,1495857302,277059078,0,111,449,319,205,123,102,46,53
2017/05/27/11:55:02.298225,141626,1495857302,298053979,0,90,463,329,201,125,103,46,49
2017/05/27/11:55:02.313289,141627,1495857302,313107013,0,95,519,318,211,131,88,46,52
2017/05/27/11:55:02.329775,141628,1495857302,329576969,0,92,515,285,201,136,84,48,56
2017/05/27/11:55:02.350659,141629,1495857302,350545883,0,91,524,291,202,134,81,47,56
2017/05/27/11:55:02.373402,141630,1495857302,373071908,0,105,518,291,207,144,76,46,55
2017/05/27/11:55:02.389729,141631,1495857302,389530897,0,109,523,292,210,144,69,47,55
2017/05/27/11:55:02.410705,141632,1495857302,410533905,0,119,516,312,210,146,76,53,59
2017/05/27/11:55:02.433263,141633,1495857302,433067083,0,113,503,356,243,151,88,53,58
2017/05/27/11:55:02.449691,141634,1495857302,449523925,0,127,506,357,238,150,88,54,58
2017/05/27/11:55:02.478406,141635,1495857302,478148937,0,120,524,337,217,134,83,47,52
2017/05/27/11:55:02.493360,141636,1495857302,493181943,0,121,506,317,203,133,87,49,58
2017/05/27/11:55:02.509670,141637,1495857302,509516954,0,104,483,288,190,128,84,47,55
2017/05/27/11:55:02.539729,141638,1495857302,539535999,0,103,457,256,140,108,74,45,53
2017/05/27/11:55:02.553438,141639,1495857302,553143024,0,94,514,278,158,106,75,45,52
2017/05/27/11:55:02.569709,141640,1495857302,569524049,0,97,487,309,220,137,90,54,57
2017/05/27/11:55:02.590889,141641,1495857302,590610027,0,102,500,312,230,140,89,51,49
2017/05/27/11:55:02.613194,141642,1495857302,613030910,0,106,493,354,239,137,79,47,45
2017/05/27/11:55:02.635773,141643,1495857302,635552883,0,109,525,354,247,138,78,46,42
2017/05/27/11:55:02.650816,141644,1495857302,650608062,0,104,483,337,235,140,78,47,44
2017/05/27/11:55:02.673362,141645,1495857302,673142910,0,95,468,325,195,115,65,38,38
2017/05/27/11:55:02.695694,141646,1495857302,695533990,0,96,463,325,189,117,59,38,43
2017/05/27/11:55:02.710749,141647,1495857302,710572004,0,98,434,263,188,125,78,43,47
2017/05/27/11:55:02.733351,141648,1495857302,733110904,0,97,405,242,192,137,90,44,50
2017/05/27/11:55:02.755829,141649,1495857302,755573034,0,97,444,335,243,145,89,46,50
2017/05/27/11:55:02.778424,141650,1495857302,778137922,0,98,446,330,231,137,87,44,48
2017/05/27/11:55:02.793316,141651,1495857302,793112993,0,93,449,331,232,135,89,43,43
2017/05/27/11:55:02.815826,141652,1495857302,815629959,0,88,461,381,235,117,75,36,39
2017/05/27/11:55:02.832278,141653,1495857302,832072973,0,93,504,397,240,112,61,39,36
2017/05/27/11:55:02.853246,141654,1495857302,853075981,0,107,492,370,208,111,65,41,34
2017/05/27/11:55:02.875877,141655,1495857302,875611066,0,105,522,368,213,124,71,44,35
2017/05/27/11:55:02.892353,141656,1495857302,892076015,0,106,517,394,258,144,78,49,41
2017/05/27/11:55:02.913640,141657,1495857302,913450956,0,112,543,372,254,154,87,53,43
2017/05/27/11:55:02.935756,141658,1495857302,935561895,0,104,493,356,247,152,90,48,41
2017/05/27/11:55:02.952317,141659,1495857302,952096939,0,92,465,316,250,150,87,43,39
2017/05/27/11:55:02.973274,141660,1495857302,973053932,0,93,492,346,266,161,89,45,40
2017/05/27/11:55:03.001215,141661,1495857303,994920,0,85,485,314,234,141,82,39,35
2017/05/27/11:55:03.012383,141662,1495857303,12145042,0,81,450,310,218,132,76,36,32
2017/05/27/11:55:03.048999,141663,1495857303,48784017,0,83,456,308,209,130,73,36,37
2017/05/27/11:55:03.055739,141664,1495857303,55561065,0,85,422,289,188,130,75,39,40
2017/05/27/11:55:03.072204,141665,1495857303,72052955,0,79,322,226,157,105,66,36,40
2017/05/27/11:55:03.093431,141666,1495857303,93141078,0,85,310,228,132,99,67,37,42
2017/05/27/11:55:03.115713,141667,1495857303,115542888,0,105,314,199,142,94,63,37,44
2017/05/27/11:55:03.132609,141668,1495857303,132107973,0,108,343,245,159,104,70,38,41
2017/05/27/11:55:03.160809,141669,1495857303,160610914,0,105,372,307,171,94,73,36,41
2017/05/27/11:55:03.175963,141670,1495857303,175646066,0,109,399,310,163,92,74,37,47
2017/05/27/11:55:03.192546,141671,1495857303,192118883,0,125,481,426,252,127,82,49,53
2017/05/27/11:55:03.213223,141672,1495857303,213047027,0,106,488,435,263,138,84,51,51
2017/05/27/11:55:03.235760,141673,1495857303,235554933,0,121,500,433,269,131,75,51,55
2017/05/27/11:55:03.252264,141674,1495857303,252099990,0,122,495,421,278,144,70,54,54
2017/05/27/11:55:03.273388,141675,1495857303,273092031,0,125,542,432,283,143,66,51,48
2017/05/27/11:55:03.295934,141676,1495857303,295609951,0,108,510,333,239,123,58,44,44
2017/05/27/11:55:03.312244,141677,1495857303,312055110,0,109,472,335,239,152,79,48,49
2017/05/27/11:55:03.333284,141678,1495857303,333093881,0,103,521,353,261,157,84,50,46
2017/05/27/11:55:03.355895,141679,1495857303,355628967,0,142,583,318,249,152,83,48,46
2017/05/27/11:55:03.372317,141680,1495857303,372073888,0,136,534,294,245,163,91,49,46
2017/05/27/11:55:03.393456,141681,1495857303,393157958,0,145,529,299,242,162,90,48,45
2017/05/27/11:55:03.415722,141682,1495857303,415556907,0,143,545,297,248,129,73,42,40
2017/05/27/11:55:03.432233,141683,1495857303,432051897,0,140,546,241,199,129,71,42,39
2017/05/27/11:55:03.453328,141684,1495857303,453103065,0,98,511,255,196,127,73,43,39
2017/05/27/11:55:03.475749,141685,1495857303,475565910,0,107,536,322,238,129,64,45,42
2017/05/27/11:55:03.492546,141686,1495857303,492074012,0,100,507,302,219,125,62,41,42
2017/05/27/11:55:03.513220,141687,1495857303,513029098,0,101,487,283,200,135,59,41,45
2017/05/27/11:55:03.535723,141688,1495857303,535531044,0,89,416,321,232,133,59,44,48
2017/05/27/11:55:03.552347,141689,1495857303,552048921,0,86,357,305,230,132,53,41,48
2017/05/27/11:55:03.573310,141690,1495857303,573065042,0,75,322,239,194,137,57,40,45
2017/05/27/11:55:03.596095,141691,1495857303,595633983,0,68,355,273,214,146,56,42,44
2017/05/27/11:55:03.618213,141692,1495857303,618051052,0,61,373,291,227,144,61,42,40
2017/05/27/11:55:03.633396,141693,1495857303,633107900,0,64,337,256,205,148,62,37,39
2017/05/27/11:55:03.655893,141694,1495857303,655616998,0,84,400,287,207,150,70,40,42
2017/05/27/11:55:03.678262,141695,1495857303,678054094,0,88,418,313,228,132,65,40,41
2017/05/27/11:55:03.693355,141696,1495857303,693120002,0,85,383,292,207,130,79,40,41
2017/05/27/11:55:03.717265,141697,1495857303,717053890,0,94,365,300,233,126,88,45,41
2017/05/27/11:55:03.738579,141698,1495857303,738184928,0,96,363,305,225,112,89,44,39
2017/05/27/11:55:03.764550,141699,1495857303,764281034,0,87,303,296,260,126,94,48,42
2017/05/27/11:55:03.783302,141700,1495857303,783097028,0,93,363,273,240,135,102,50,45
2017/05/27/11:55:03.798189,141701,1495857303,798027038,0,99,392,265,251,131,91,47,47
2017/05/27/11:55:03.813728,141702,1495857303,813204050,0,91,434,245,209,129,82,43,49
2017/05/27/11:55:03.835788,141703,1495857303,835561037,0,91,450,246,222,142,86,47,58
2017/05/27/11:55:03.858590,141704,1495857303,858200073,0,95,496,223,171,127,81,46,57
2017/05/27/11:55:03.873523,141705,1495857303,873198986,0,86,469,242,170,128,77,44,56
2017/05/27/11:55:03.895751,141706,1495857303,895586967,0,78,455,249,145,129,79,46,56
2017/05/27/11:55:03.918684,141707,1495857303,918174982,0,82,438,235,146,130,95,52,56
2017/05/27/11:55:03.933215,141708,1495857303,933013916,0,87,475,215,125,131,104,55,55
2017/05/27/11:55:03.956103,141709,1495857303,955692052,0,78,438,217,142,125,102,52,54
2017/05/27/11:55:03.978287,141710,1495857303,978110074,0,82,408,196,144,114,108,52,53
2017/05/27/11:55:03.993276,141711,1495857303,993097066,0,99,543,208,145,116,110,53,53
2017/05/27/11:55:04.015837,141712,1495857304,15563964,0,99,528,222,150,124,93,45,54
2017/05/27/11:55:04.038428,141713,1495857304,38121938,0,93,485,221,154,122,79,37,45
2017/05/27/11:55:04.055295,141714,1495857304,54994106,0,90,508,214,157,134,81,35,41
2017/05/27/11:55:04.075698,141715,1495857304,75527906,0,88,484,225,160,137,73,36,42
2017/05/27/11:55:04.098193,141716,1495857304,98010063,0,94,442,262,172,136,71,36,42
2017/05/27/11:55:04.114791,141717,1495857304,114511013,0,103,500,247,165,120,71,34,35
2017/05/27/11:55:04.136128,141718,1495857304,135657072,0,105,490,263,188,126,101,50,48
2017/05/27/11:55:04.158264,141719,1495857304,158092975,0,119,555,298,187,136,120,59,55
2017/05/27/11:55:04.174671,141720,1495857304,174494981,0,126,614,316,215,137,118,60,54
2017/05/27/11:55:04.195752,141721,1495857304,195574998,0,119,563,267,204,136,118,60,54
2017/05/27/11:55:04.218516,141722,1495857304,218216896,0,114,567,268,205,142,119,61,57
2017/05/27/11:55:04.235141,141723,1495857304,234585046,0,113,600,267,177,122,89,49,48
2017/05/27/11:55:04.263453,141724,1495857304,263147115,0,100,520,248,169,118,60,45,49
2017/05/27/11:55:04.278620,141725,1495857304,278155088,0,116,553,293,139,125,58,45,55
2017/05/27/11:55:04.294715,141726,1495857304,294555902,0,112,547,351,164,137,59,51,67
2017/05/27/11:55:04.315905,141727,1495857304,315598964,0,106,521,351,162,146,60,55,67
2017/05/27/11:55:04.338207,141728,1495857304,338028907,0,112,505,362,184,148,61,54,69
2017/05/27/11:55:04.355157,141729,1495857304,354554891,0,112,490,352,198,140,59,50,64
2017/05/27/11:55:04.375713,141730,1495857304,375544071,0,100,404,297,199,133,60,48,66
2017/05/27/11:55:04.398228,141731,1495857304,398046970,0,111,411,242,191,119,56,40,63
2017/05/27/11:55:04.414783,141732,1495857304,414546012,0,109,375,272,207,110,58,36,66
2017/05/27/11:55:04.435872,141733,1495857304,435625076,0,102,341,238,189,106,55,37,66
2017/05/27/11:55:04.458197,141734,1495857304,458012104,0,124,484,271,176,99,55,40,68
2017/05/27/11:55:04.474763,141735,1495857304,474523067,0,116,462,249,154,88,48,39,60
2017/05/27/11:55:04.495740,141736,1495857304,495568990,0,103,428,222,141,81,46,37,51
2017/05/27/11:55:04.518374,141737,1495857304,518157958,0,109,433,174,117,65,37,37,51
2017/05/27/11:55:04.540781,141738,1495857304,540574073,0,105,443,170,108,61,35,36,45
2017/05/27/11:55:04.555875,141739,1495857304,555659055,0,74,272,90,114,59,29,30,40
2017/05/27/11:55:04.585876,141740,1495857304,585689067,0,63,257,120,118,60,30,30,41
2017/05/27/11:55:04.600865,141741,1495857304,600595951,0,67,265,137,110,56,29,29,38
2017/05/27/11:55:04.615702,141742,1495857304,615540027,0,109,383,152,111,52,27,24,32
2017/05/27/11:55:04.640501,141743,1495857304,640278100,0,119,378,150,107,51,25,23,36
2017/05/27/11:55:04.660887,141744,1495857304,660573959,0,122,384,152,82,39,24,21,37
2017/05/27/11:55:04.677284,141745,1495857304,677099943,0,121,380,125,65,32,23,21,35
2017/05/27/11:55:04.698380,141746,1495857304,698096036,0,116,359,101,64,31,21,22,33
2017/05/27/11:55:04.720759,141747,1495857304,720551013,0,71,225,103,56,31,21,22,34
2017/05/27/11:55:04.735734,141748,1495857304,735563993,0,56,250,108,55,30,21,21,29
2017/05/27/11:55:04.758226,141749,1495857304,758048057,0,50,234,109,48,27,21,21,25
2017/05/27/11:55:04.782322,141750,1495857304,782052993,0,51,238,109,47,27,22,20,25
2017/05/27/11:55:04.797854,141751,1495857304,797425031,0,47,240,107,41,27,22,18,23
2017/05/27/11:55:04.818424,141752,1495857304,818201065,0,45,221,90,55,32,23,19,23
2017/05/27/11:55:04.840728,141753,1495857304,840538024,0,40,169,107,77,36,23,20,23
2017/05/27/11:55:04.857271,141754,1495857304,857095956,0,37,160,111,88,37,23,21,23
2017/05/27/11:55:04.878258,141755,1495857304,878061056,0,36,165,117,91,40,23,21,24
2017/05/27/11:55:04.900747,141756,1495857304,900544881,0,39,177,121,92,38,23,21,24
2017/05/27/11:55:04.917358,141757,1495857304,917117118,0,34,155,145,98,43,25,23,22
2017/05/27/11:55:04.939705,141758,1495857304,939503908,0,33,149,150,108,41,25,21,22
2017/05/27/11:55:04.960895,141759,1495857304,960572957,0,32,143,156,110,43,26,21,22
2017/05/27/11:55:04.977237,141760,1495857304,977050065,0,32,129,155,113,44,26,22,21
2017/05/27/11:55:04.998576,141761,1495857304,998233079,0,35,113,207,133,45,26,23,24
2017/05/27/11:55:05.020842,141762,1495857305,20565032,0,34,113,207,138,47,25,23,25
2017/05/27/11:55:05.037281,141763,1495857305,37074089,0,33,123,214,134,55,26,25,25
2017/05/27/11:55:05.058277,141764,1495857305,58111906,0,34,124,208,131,56,27,25,24
2017/05/27/11:55:05.080829,141765,1495857305,80589056,0,34,129,213,130,57,28,24,23
2017/05/27/11:55:05.097245,141766,1495857305,97076892,0,29,122,174,118,59,30,25,25
2017/05/27/11:55:05.118301,141767,1495857305,118083953,0,33,111,168,112,54,30,24,27
2017/05/27/11:55:05.140788,141768,1495857305,140537023,0,35,148,138,95,47,30,24,28
2017/05/27/11:55:05.157390,141769,1495857305,157097101,0,36,158,153,111,53,30,27,29
2017/05/27/11:55:05.178317,141770,1495857305,178061008,0,35,168,167,112,51,27,27,29
2017/05/27/11:55:05.202223,141771,1495857305,202044963,0,36,177,161,119,52,27,26,26
2017/05/27/11:55:05.217305,141772,1495857305,217114925,0,38,199,176,122,54,25,26,23
2017/05/27/11:55:05.238326,141773,1495857305,238137006,0,37,176,189,127,55,24,27,23
2017/05/27/11:55:05.261289,141774,1495857305,261080026,0,38,168,177,113,47,22,26,23
2017/05/27/11:55:05.277377,141775,1495857305,277084112,0,38,163,171,117,49,24,27,25
2017/05/27/11:55:05.298420,141776,1495857305,298171043,0,41,158,180,109,48,25,26,26
2017/05/27/11:55:05.328324,141777,1495857305,328063011,0,39,140,156,101,45,28,27,27
2017/05/27/11:55:05.337225,141778,1495857305,337066888,0,46,147,146,96,41,27,25,26
2017/05/27/11:55:05.358268,141779,1495857305,358088016,0,47,148,143,92,41,26,27,25
2017/05/27/11:55:05.380964,141780,1495857305,380574941,0,46,140,124,79,35,25,25,23
2017/05/27/11:55:05.397222,141781,1495857305,397052049,0,92,204,150,85,38,25,25,28
2017/05/27/11:55:05.418563,141782,1495857305,418090105,0,104,202,153,94,39,21,24,29
2017/05/27/11:55:05.440708,141783,1495857305,440541028,0,107,226,187,105,43,22,26,33
2017/05/27/11:55:05.457234,141784,1495857305,457055091,0,107,230,194,105,43,24,25,35
2017/05/27/11:55:05.478238,141785,1495857305,478051900,0,109,230,219,120,47,26,25,34
2017/05/27/11:55:05.500817,141786,1495857305,500526905,0,82,204,207,127,44,24,25,31
2017/05/27/11:55:05.523354,141787,1495857305,523085117,0,67,198,209,122,42,24,26,29
2017/05/27/11:55:05.538192,141788,1495857305,538036108,0,59,160,186,115,43,24,26,25
2017/05/27/11:55:05.560901,141789,1495857305,560614109,0,57,154,186,127,45,24,24,24
2017/05/27/11:55:05.583402,141790,1495857305,583147048,0,55,155,178,131,50,25,27,24
2017/05/27/11:55:05.598404,141791,1495857305,598159074,0,37,113,162,120,49,25,26,23
2017/05/27/11:55:05.620759,141792,1495857305,620558023,0,39,143,187,133,55,28,26,27
2017/05/27/11:55:05.643194,141793,1495857305,643026113,0,38,151,196,139,57,28,27,27
2017/05/27/11:55:05.658322,141794,1495857305,658150911,0,38,153,192,128,54,28,27,26
2017/05/27/11:55:05.680927,141795,1495857305,680617094,0,38,152,176,114,49,24,24,26
2017/05/27/11:55:05.704689,141796,1495857305,704516887,0,36,147,185,116,47,27,25,25
2017/05/27/11:55:05.718330,141797,1495857305,718122005,0,33,107,164,97,42,25,25,20
2017/05/27/11:55:05.740739,141798,1495857305,740559101,0,38,107,184,106,40,25,24,24
2017/05/27/11:55:05.765301,141799,1495857305,765064954,0,40,100,185,110,42,26,24,26
2017/05/27/11:55:05.778397,141800,1495857305,778156995,0,39,101,181,110,41,27,24,25
2017/05/27/11:55:05.800749,141801,1495857305,800570011,0,45,132,227,149,55,27,25,26
2017/05/27/11:55:05.823309,141802,1495857305,823100090,0,46,145,221,151,53,27,23,26
2017/05/27/11:55:05.838275,141803,1495857305,838109016,0,41,143,187,135,51,25,20,23
2017/05/27/11:55:05.860851,141804,1495857305,860533952,0,40,143,191,146,53,24,21,22
2017/05/27/11:55:05.883280,141805,1495857305,883090019,0,41,152,206,156,58,27,21,26
2017/05/27/11:55:05.898237,141806,1495857305,898045063,0,37,135,160,118,47,26,18,26
2017/05/27/11:55:05.920688,141807,1495857305,920502901,0,35,122,152,119,48,27,20,26
2017/05/27/11:55:05.943359,141808,1495857305,943113088,0,32,102,162,130,48,28,20,26
2017/05/27/11:55:05.958308,141809,1495857305,958064079,0,31,102,174,126,48,29,20,26
2017/05/27/11:55:05.980750,141810,1495857305,980532884,0,28,90,160,114,43,27,19,21
2017/05/27/11:55:06.003254,141811,1495857306,3034114,0,25,85,147,110,40,27,17,21
2017/05/27/11:55:06.018234,141812,1495857306,18032073,0,26,107,150,108,42,26,17,20
2017/05/27/11:55:06.040710,141813,1495857306,40530920,0,24,112,162,124,46,27,17,19
2017/05/27/11:55:06.063381,141814,1495857306,63138961,0,24,108,150,113,39,26,17,20
2017/05/27/11:55:06.078398,141815,1495857306,78135013,0,24,108,153,115,39,25,19,21
2017/05/27/11:55:06.100765,141816,1495857306,100558042,0,28,125,146,114,39,25,20,22
2017/05/27/11:55:06.123595,141817,1495857306,123308897,0,33,108,151,128,47,27,20,24
2017/05/27/11:55:06.139735,141818,1495857306,139528036,0,37,107,143,116,53,29,22,26
2017/05/27/11:55:06.160764,141819,1495857306,160532951,0,39,121,144,132,60,30,22,25
2017/05/27/11:55:06.183377,141820,1495857306,183140993,0,38,127,144,131,60,29,21,26
2017/05/27/11:55:06.199685,141821,1495857306,199501037,0,36,105,143,133,62,30,23,25
2017/05/27/11:55:06.220762,141822,1495857306,220560073,0,32,111,142,133,54,28,23,25
2017/05/27/11:55:06.243301,141823,1495857306,243130922,0,33,128,141,135,47,24,21,22
2017/05/27/11:55:06.259715,141824,1495857306,259519100,0,32,119,128,120,39,23,21,23
2017/05/27/11:55:06.282282,141825,1495857306,282071113,0,34,111,146,120,41,22,21,22
2017/05/27/11:55:06.303297,141826,1495857306,303114891,0,34,108,161,128,41,22,19,22
2017/05/27/11:55:06.319655,141827,1495857306,319483041,0,35,110,164,117,40,21,22,23
2017/05/27/11:55:06.340876,141828,1495857306,340601921,0,30,95,146,99,37,26,22,24
2017/05/27/11:55:06.363288,141829,1495857306,363111972,0,28,101,156,102,39,25,22,24
2017/05/27/11:55:06.379723,141830,1495857306,379543066,0,28,107,137,100,39,25,22,25
2017/05/27/11:55:06.400825,141831,1495857306,400584936,0,33,126,131,105,43,27,23,24
2017/05/27/11:55:06.423311,141832,1495857306,423032045,0,33,119,116,98,44,29,20,22
2017/05/27/11:55:06.445698,141833,1495857306,445544958,0,32,108,113,96,43,25,22,20
2017/05/27/11:55:06.461025,141834,1495857306,460717916,0,32,97,95,86,39,26,20,21
2017/05/27/11:55:06.483332,141835,1495857306,483140945,0,31,89,87,79,37,26,22,19
2017/05/27/11:55:06.505829,141836,1495857306,505614995,0,23,58,62,51,29,23,21,19
2017/05/27/11:55:06.520721,141837,1495857306,520519018,0,19,41,73,55,27,21,20,19
2017/05/27/11:55:06.543197,141838,1495857306,543000936,0,18,42,76,62,27,21,17,18
2017/05/27/11:55:06.565783,141839,1495857306,565574884,0,16,40,78,62,28,22,17,18
2017/05/27/11:55:06.580650,141840,1495857306,580509901,0,18,35,73,59,27,23,14,19
2017/05/27/11:55:06.603271,141841,1495857306,603044986,0,18,29,68,57,27,25,16,18
2017/05/27/11:55:06.625774,141842,1495857306,625514984,0,19,28,51,43,24,23,15,19
2017/05/27/11:55:06.640764,141843,1495857306,640536069,0,20,24,42,34,24,24,20,18
2017/05/27/11:55:06.663389,141844,1495857306,663161039,0,22,22,35,31,23,23,24,18
2017/05/27/11:55:06.685707,141845,1495857306,685534954,0,20,21,33,29,22,24,27,16
2017/05/27/11:55:06.701223,141846,1495857306,701021909,0,21,22,27,26,21,22,26,16
2017/05/27/11:55:06.723328,141847,1495857306,723093986,0,20,21,25,25,18,23,26,17
2017/05/27/11:55:06.749257,141848,1495857306,749006032,0,20,23,22,20,17,21,25,20
2017/05/27/11:55:06.760753,141849,1495857306,760555982,0,20,23,19,19,19,23,22,20
2017/05/27/11:55:06.783565,141850,1495857306,783204078,0,18,22,19,22,21,25,19,22
2017/05/27/11:55:06.805742,141851,1495857306,805553913,0,17,21,20,21,21,26,18,24
2017/05/27/11:55:06.820706,141852,1495857306,820502996,0,20,21,19,20,22,26,20,22
2017/05/27/11:55:06.843253,141853,1495857306,843023061,0,19,19,21,19,23,29,17,19
2017/05/27/11:55:06.865731,141854,1495857306,865547895,0,19,21,23,19,23,29,17,20
2017/05/27/11:55:06.888444,141855,1495857306,888210058,0,21,23,24,23,25,34,17,19
2017/05/27/11:55:06.904588,141856,1495857306,904449939,0,22,21,24,25,25,34,17,17
2017/05/27/11:55:06.925717,141857,1495857306,925518989,0,23,21,24,28,24,36,16,18
2017/05/27/11:55:06.942273,141858,1495857306,942054986,0,23,22,23,29,25,35,19,18
2017/05/27/11:55:06.963427,141859,1495857306,963044881,0,24,22,20,29,23,36,21,19
2017/05/27/11:55:06.985752,141860,1495857306,985554933,0,23,18,19,25,25,33,22,18
2017/05/27/11:55:07.000710,141861,1495857307,535011,0,24,21,21,24,25,48,40,19
2017/05/27/11:55:07.023403,141862,1495857307,23121118,0,29,22,33,23,24,50,44,21
2017/05/27/11:55:07.045722,141863,1495857307,45546054,0,31,22,36,22,25,50,45,22
2017/05/27/11:55:07.060792,141864,1495857307,60527086,0,30,23,40,23,26,48,44,19
2017/05/27/11:55:07.083178,141865,1495857307,82998037,0,30,25,41,23,21,49,45,18
2017/05/27/11:55:07.105903,141866,1495857307,105649948,0,29,25,40,22,23,50,45,21
2017/05/27/11:55:07.120881,141867,1495857307,120589971,0,20,27,34,19,26,47,44,20
2017/05/27/11:55:07.143230,141868,1495857307,143011093,0,17,27,32,20,24,48,44,21
2017/05/27/11:55:07.165833,141869,1495857307,165611982,0,20,27,27,20,24,49,44,23
2017/05/27/11:55:07.180806,141870,1495857307,180532932,0,20,26,27,20,24,45,45,24
2017/05/27/11:55:07.203733,141871,1495857307,203229904,0,22,24,27,19,22,27,31,20
2017/05/27/11:55:07.225826,141872,1495857307,225547075,0,21,21,23,22,20,32,26,20
2017/05/27/11:55:07.240953,141873,1495857307,240639925,0,20,21,23,22,21,30,25,19
2017/05/27/11:55:07.263248,141874,1495857307,263076066,0,19,20,23,23,27,42,45,21
2017/05/27/11:55:07.286012,141875,1495857307,285793066,0,19,22,24,23,27,44,46,23
2017/05/27/11:55:07.300772,141876,1495857307,300564050,0,18,22,24,23,27,42,46,23
2017/05/27/11:55:07.323253,141877,1495857307,323048114,0,19,20,22,20,26,39,47,24
2017/05/27/11:55:07.345686,141878,1495857307,345526933,0,19,23,22,19,28,40,47,25
2017/05/27/11:55:07.360784,141879,1495857307,360538959,0,18,22,20,19,22,34,38,23
2017/05/27/11:55:07.383247,141880,1495857307,383105039,0,18,22,21,21,22,39,39,23
2017/05/27/11:55:07.405875,141881,1495857307,405642986,0,19,22,21,21,23,40,43,24
2017/05/27/11:55:07.428431,141882,1495857307,428195953,0,19,24,21,21,24,40,42,23
2017/05/27/11:55:07.443228,141883,1495857307,443008899,0,20,22,21,21,22,40,42,23
2017/05/27/11:55:07.465781,141884,1495857307,465586900,0,20,23,24,21,22,34,34,23
2017/05/27/11:55:07.496418,141885,1495857307,496237039,0,18,24,26,22,24,43,44,23
2017/05/27/11:55:07.510954,141886,1495857307,510682106,0,21,24,25,22,26,46,44,21
2017/05/27/11:55:07.525683,141887,1495857307,525479078,0,22,23,25,23,27,46,45,22
2017/05/27/11:55:07.548303,141888,1495857307,548127889,0,22,22,26,23,28,46,44,21
2017/05/27/11:55:07.563274,141889,1495857307,563047885,0,22,25,24,21,27,44,44,18
2017/05/27/11:55:07.585862,141890,1495857307,585549116,0,22,24,23,19,26,31,30,15
2017/05/27/11:55:07.608178,141891,1495857307,608006000,0,21,23,25,19,23,25,22,16
2017/05/27/11:55:07.623348,141892,1495857307,623085021,0,20,25,27,22,26,38,39,16
2017/05/27/11:55:07.647396,141893,1495857307,647022962,0,18,26,31,24,26,39,41,17
2017/05/27/11:55:07.668623,141894,1495857307,668442964,0,19,23,31,25,26,42,42,19
2017/05/27/11:55:07.683333,141895,1495857307,683079004,0,20,23,30,25,27,42,43,21
2017/05/27/11:55:07.705643,141896,1495857307,705513000,0,19,24,30,27,28,43,43,22
2017/05/27/11:55:07.728321,141897,1495857307,728070020,0,19,22,30,24,26,42,38,22
2017/05/27/11:55:07.750801,141898,1495857307,750587940,0,19,22,28,24,25,45,38,23
2017/05/27/11:55:07.767675,141899,1495857307,767484903,0,19,22,28,23,26,45,40,22
2017/05/27/11:55:07.788231,141900,1495857307,788049936,0,17,22,26,24,24,44,40,21
2017/05/27/11:55:07.803382,141901,1495857307,803103923,0,19,20,26,21,23,45,40,21
2017/05/27/11:55:07.825737,141902,1495857307,825551033,0,18,23,24,21,21,35,33,21
2017/05/27/11:55:07.848205,141903,1495857307,848042964,0,19,22,22,20,21,47,48,22
2017/05/27/11:55:07.864703,141904,1495857307,864552021,0,19,23,24,22,20,49,50,23
2017/05/27/11:55:07.885739,141905,1495857307,885539054,0,20,22,22,21,21,49,49,23
2017/05/27/11:55:07.908386,141906,1495857307,908149003,0,21,23,24,22,21,50,50,25
2017/05/27/11:55:07.923248,141907,1495857307,923031091,0,21,20,23,22,20,49,50,23
2017/05/27/11:55:07.945728,141908,1495857307,945553064,0,23,20,24,20,19,32,32,23
2017/05/27/11:55:07.968236,141909,1495857307,968055009,0,22,21,22,19,17,24,25,21
2017/05/27/11:55:07.983248,141910,1495857307,983033895,0,22,23,24,20,17,40,44,22
2017/05/27/11:55:08.005723,141911,1495857308,5532979,0,19,21,23,19,19,43,46,21
2017/05/27/11:55:08.028318,141912,1495857308,28072118,0,20,21,24,19,19,43,47,20
2017/05/27/11:55:08.043251,141913,1495857308,43034076,0,19,23,23,19,19,44,48,18
2017/05/27/11:55:08.065718,141914,1495857308,65501928,0,19,21,23,20,20,45,47,19
2017/05/27/11:55:08.088643,141915,1495857308,88180065,0,19,20,22,19,19,37,37,19
2017/05/27/11:55:08.103333,141916,1495857308,103043079,0,20,21,22,20,17,41,39,21
2017/05/27/11:55:08.125855,141917,1495857308,125602960,0,21,23,22,21,19,42,39,23
2017/05/27/11:55:08.148286,141918,1495857308,148034095,0,20,21,24,22,18,43,39,24
2017/05/27/11:55:08.163275,141919,1495857308,163024902,0,20,21,25,22,19,42,39,24
2017/05/27/11:55:08.185791,141920,1495857308,185533046,0,18,19,26,24,21,37,33,24
2017/05/27/11:55:08.208222,141921,1495857308,208017110,0,17,20,25,25,23,51,45,24
2017/05/27/11:55:08.223237,141922,1495857308,223046064,0,16,18,25,26,23,53,46,23
2017/05/27/11:55:08.253223,141923,1495857308,253017902,0,17,18,24,27,23,52,46,23
2017/05/27/11:55:08.268177,141924,1495857308,267992973,0,16,20,21,27,23,52,46,22
2017/05/27/11:55:08.284486,141925,1495857308,284307956,0,20,22,21,26,22,52,47,21
2017/05/27/11:55:08.305739,141926,1495857308,305536031,0,21,21,23,28,21,45,43,20
2017/05/27/11:55:08.328332,141927,1495857308,328100919,0,22,20,23,28,21,42,43,20
2017/05/27/11:55:08.350780,141928,1495857308,350572109,0,21,20,22,28,21,42,44,19
2017/05/27/11:55:08.365666,141929,1495857308,365499973,0,22,19,22,25,21,43,44,19
2017/05/27/11:55:08.388290,141930,1495857308,388070106,0,20,17,24,23,20,42,42,19
2017/05/27/11:55:08.410740,141931,1495857308,410537004,0,20,20,22,21,19,37,36,21
2017/05/27/11:55:08.425729,141932,1495857308,425523996,0,19,21,22,19,20,42,42,22
2017/05/27/11:55:08.448119,141933,1495857308,447992086,0,19,22,23,21,19,41,41,26
2017/05/27/11:55:08.470892,141934,1495857308,470556974,0,19,23,22,22,19,41,41,26
2017/05/27/11:55:08.485739,141935,1495857308,485521078,0,17,24,22,24,20,42,42,25
2017/05/27/11:55:08.508242,141936,1495857308,508033990,0,16,24,22,24,20,40,43,24
2017/05/27/11:55:08.530691,141937,1495857308,530498981,0,18,24,25,24,20,42,42,24
2017/05/27/11:55:08.545626,141938,1495857308,545460939,0,19,24,24,23,21,47,43,23
2017/05/27/11:55:08.568251,141939,1495857308,568042039,0,19,26,25,26,23,48,44,23
2017/05/27/11:55:08.590716,141940,1495857308,590516090,0,20,25,24,25,23,49,43,23
2017/05/27/11:55:08.605828,141941,1495857308,605554103,0,19,24,24,24,22,48,40,22
2017/05/27/11:55:08.628371,141942,1495857308,628117084,0,19,22,21,25,23,43,39,21
2017/05/27/11:55:08.650746,141943,1495857308,650540113,0,18,22,23,26,24,41,40,19
2017/05/27/11:55:08.665838,141944,1495857308,665575981,0,20,18,23,24,23,38,40,20
2017/05/27/11:55:08.688257,141945,1495857308,688046932,0,20,20,23,26,22,37,42,20
2017/05/27/11:55:08.713192,141946,1495857308,712981939,0,20,21,24,25,22,32,37,19
2017/05/27/11:55:08.725813,141947,1495857308,725598096,0,19,21,25,25,20,29,32,18
2017/05/27/11:55:08.748220,141948,1495857308,748018026,0,20,21,23,24,20,46,46,20
2017/05/27/11:55:08.770765,141949,1495857308,770565986,0,19,23,25,22,22,48,47,19
2017/05/27/11:55:08.785724,141950,1495857308,785527944,0,16,24,25,21,22,49,45,21
2017/05/27/11:55:08.808294,141951,1495857308,808000087,0,16,23,26,24,23,48,45,21
2017/05/27/11:55:08.830788,141952,1495857308,830571889,0,16,23,26,22,24,48,44,22
2017/05/27/11:55:08.845822,141953,1495857308,845607042,0,16,23,29,23,23,28,29,21
2017/05/27/11:55:08.868165,141954,1495857308,867989063,0,17,23,28,23,24,38,39,22
2017/05/27/11:55:08.890915,141955,1495857308,890604019,0,18,23,28,23,24,39,44,21
2017/05/27/11:55:08.905669,141956,1495857308,905539035,0,19,23,28,23,23,39,45,21
2017/05/27/11:55:08.928296,141957,1495857308,928116083,0,19,23,26,27,23,40,44,21
2017/05/27/11:55:08.950700,141958,1495857308,950539112,0,20,25,25,26,23,40,43,20
2017/05/27/11:55:08.965681,141959,1495857308,965538024,0,20,23,25,27,21,45,44,21
2017/05/27/11:55:08.988287,141960,1495857308,988061904,0,20,23,26,27,22,46,46,21
2017/05/27/11:55:09.010696,141961,1495857309,10541915,0,19,23,23,23,23,46,46,21
2017/05/27/11:55:09.025715,141962,1495857309,25504112,0,18,24,23,21,23,47,46,21
2017/05/27/11:55:09.048126,141963,1495857309,47981023,0,20,22,23,21,25,46,46,22
2017/05/27/11:55:09.071053,141964,1495857309,70590972,0,20,23,23,19,22,31,33,20
2017/05/27/11:55:09.085705,141965,1495857309,85525035,0,20,20,23,19,25,46,52,21
2017/05/27/11:55:09.108226,141966,1495857309,108033895,0,20,20,23,22,24,48,53,20
2017/05/27/11:55:09.130966,141967,1495857309,130609035,0,21,20,22,22,25,48,54,21
2017/05/27/11:55:09.145684,141968,1495857309,145522117,0,19,20,21,22,23,49,54,20
2017/05/27/11:55:09.168184,141969,1495857309,168032884,0,18,20,21,24,24,49,55,21
2017/05/27/11:55:09.190765,141970,1495857309,190505981,0,16,19,20,25,22,44,40,21
2017/05/27/11:55:09.205724,141971,1495857309,205557107,0,16,19,23,23,22,50,51,21
2017/05/27/11:55:09.228287,141972,1495857309,228065013,0,16,19,25,23,23,52,53,22
2017/05/27/11:55:09.250916,141973,1495857309,250595092,0,16,20,24,23,22,53,53,22
2017/05/27/11:55:09.265887,141974,1495857309,265630006,0,18,21,25,21,21,53,53,21
2017/05/27/11:55:09.288311,141975,1495857309,288036108,0,18,22,25,20,19,42,47,19
2017/05/27/11:55:09.310876,141976,1495857309,310637950,0,19,22,23,22,19,31,31,18
2017/05/27/11:55:09.333241,141977,1495857309,333056926,0,22,23,23,22,20,39,37,17
2017/05/27/11:55:09.349276,141978,1495857309,349005937,0,21,23,25,22,20,42,43,17
2017/05/27/11:55:09.370753,141979,1495857309,370538949,0,19,22,24,22,21,43,44,17
2017/05/27/11:55:09.393334,141980,1495857309,393124103,0,20,21,23,22,21,44,43,17
2017/05/27/11:55:09.408157,141981,1495857309,408018112,0,20,21,23,21,22,46,44,18
2017/05/27/11:55:09.430859,141982,1495857309,430526971,0,19,21,22,20,19,37,38,18
2017/05/27/11:55:09.453297,141983,1495857309,453084945,0,20,23,22,19,19,39,29,18
2017/05/27/11:55:09.475719,141984,1495857309,475496053,0,21,25,23,22,22,55,40,20
2017/05/27/11:55:09.490906,141985,1495857309,490520000,0,20,26,23,22,23,56,42,20
2017/05/27/11:55:09.513236,141986,1495857309,513051986,0,19,26,25,21,22,55,39,19
2017/05/27/11:55:09.528245,141987,1495857309,528049945,0,18,25,24,22,24,54,39,17
2017/05/27/11:55:09.550645,141988,1495857309,550498008,0,19,24,25,22,22,49,40,18
2017/05/27/11:55:09.573321,141989,1495857309,573113918,0,17,23,23,20,20,29,28,15
