time,.header.seq,.header.stamp.secs,.header.stamp.nsecs,.header.frame_id,.ch0,.ch1,.ch2,.ch3,.ch4,.ch5,.ch6,.ch7
2017/05/27/11:48:15.209361,121325,1495856895,209184885,0,34,74,75,65,49,42,66,57
2017/05/27/11:48:15.216201,121326,1495856895,215928077,0,34,75,76,70,46,55,89,62
2017/05/27/11:48:15.238740,121327,1495856895,238545894,0,42,126,97,94,54,57,90,62
2017/05/27/11:48:15.261092,121328,1495856895,260926961,0,93,319,175,164,100,74,96,65
2017/05/27/11:48:15.276182,121329,1495856895,275963068,0,96,334,179,171,111,77,98,67
2017/05/27/11:48:15.300015,121330,1495856895,299833059,0,105,360,183,176,118,82,89,50
2017/05/27/11:48:15.321113,121331,1495856895,320888996,0,109,380,232,210,138,80,70,44
2017/05/27/11:48:15.337518,121332,1495856895,337327957,0,133,427,279,229,144,92,68,45
2017/05/27/11:48:15.365436,121333,1495856895,365204095,0,157,346,289,230,134,81,55,45
2017/05/27/11:48:15.381031,121334,1495856895,380857944,0,172,455,300,234,132,80,53,48
2017/05/27/11:48:15.396064,121335,1495856895,395879983,0,172,524,325,253,129,81,56,47
2017/05/27/11:48:15.420184,121336,1495856895,419908046,0,194,531,319,232,115,85,51,47
2017/05/27/11:48:15.441666,121337,1495856895,441162109,0,189,536,320,223,146,89,52,51
2017/05/27/11:48:15.463602,121338,1495856895,463378906,0,163,623,288,199,154,98,58,49
2017/05/27/11:48:15.478668,121339,1495856895,478439092,0,212,608,294,193,156,102,65,60
2017/05/27/11:48:15.502949,121340,1495856895,502732038,0,239,573,300,198,178,101,61,64
2017/05/27/11:48:15.523710,121341,1495856895,523430109,0,238,594,325,215,182,94,59,67
2017/05/27/11:48:15.538726,121342,1495856895,538573980,0,240,593,295,213,157,81,55,62
2017/05/27/11:48:15.561059,121343,1495856895,560889005,0,252,516,305,224,172,90,57,67
2017/05/27/11:48:15.583857,121344,1495856895,583528041,0,230,478,306,224,164,89,51,57
2017/05/27/11:48:15.598740,121345,1495856895,598530054,0,217,488,300,210,151,96,55,53
2017/05/27/11:48:15.621093,121346,1495856895,620919942,0,228,460,272,221,198,105,64,60
2017/05/27/11:48:15.651977,121347,1495856895,651660919,0,246,413,275,209,200,108,67,64
2017/05/27/11:48:15.658686,121348,1495856895,658384084,0,259,479,326,218,183,96,64,63
2017/05/27/11:48:15.681125,121349,1495856895,680919885,0,268,476,320,220,191,99,65,65
2017/05/27/11:48:15.703700,121350,1495856895,703443050,0,368,424,305,206,184,90,61,69
2017/05/27/11:48:15.718609,121351,1495856895,718429088,0,450,494,478,360,209,107,66,79
2017/05/27/11:48:15.742573,121352,1495856895,742367982,0,450,499,524,398,227,111,68,84
2017/05/27/11:48:15.763637,121353,1495856895,763422966,0,478,426,494,386,221,108,66,84
2017/05/27/11:48:15.778677,121354,1495856895,778464078,0,481,408,492,389,220,109,66,83
2017/05/27/11:48:15.801278,121355,1495856895,801007032,0,414,439,496,397,228,115,73,82
2017/05/27/11:48:15.823669,121356,1495856895,823411941,0,356,364,354,272,174,91,63,67
2017/05/27/11:48:15.838665,121357,1495856895,838480949,0,457,375,278,219,148,84,58,74
2017/05/27/11:48:15.861093,121358,1495856895,860919952,0,457,370,282,219,170,111,62,72
2017/05/27/11:48:15.883636,121359,1495856895,883424043,0,539,368,269,208,170,115,63,81
2017/05/27/11:48:15.898583,121360,1495856895,898371934,0,563,354,294,243,165,112,54,79
2017/05/27/11:48:15.921087,121361,1495856895,920874118,0,548,424,341,281,162,117,50,80
2017/05/27/11:48:15.943578,121362,1495856895,943362951,0,496,414,375,290,165,117,50,71
2017/05/27/11:48:15.958648,121363,1495856895,958414077,0,476,447,416,310,152,103,45,70
2017/05/27/11:48:15.981062,121364,1495856895,980873107,0,391,483,451,318,149,108,40,60
2017/05/27/11:48:16.003711,121365,1495856896,3406047,0,442,503,453,287,148,112,43,64
2017/05/27/11:48:16.018551,121366,1495856896,18373966,0,462,540,438,252,142,109,46,66
2017/05/27/11:48:16.041250,121367,1495856896,40951967,0,437,542,439,255,153,117,51,61
2017/05/27/11:48:16.063660,121368,1495856896,63405990,0,457,539,435,237,143,110,54,68
2017/05/27/11:48:16.078752,121369,1495856896,78490972,0,533,521,466,277,150,94,55,80
2017/05/27/11:48:16.101089,121370,1495856896,100884914,0,482,503,465,285,149,91,55,81
2017/05/27/11:48:16.123745,121371,1495856896,123513936,0,483,418,457,269,148,95,56,83
2017/05/27/11:48:16.138643,121372,1495856896,138434886,0,480,470,506,346,163,93,59,87
2017/05/27/11:48:16.161314,121373,1495856896,161020040,0,544,512,506,376,171,98,59,90
2017/05/27/11:48:16.185388,121374,1495856896,185132026,0,468,527,465,350,168,113,64,87
2017/05/27/11:48:16.198557,121375,1495856896,198365926,0,443,521,476,360,169,112,64,81
2017/05/27/11:48:16.223006,121376,1495856896,220984935,0,406,513,446,356,165,115,63,76
2017/05/27/11:48:16.243622,121377,1495856896,243375062,0,399,462,366,272,143,113,59,71
2017/05/27/11:48:16.258668,121378,1495856896,258423089,0,294,404,375,286,160,132,71,79
2017/05/27/11:48:16.281067,121379,1495856896,280868053,0,261,405,388,298,163,126,72,73
2017/05/27/11:48:16.303620,121380,1495856896,303381919,0,278,401,400,315,172,125,74,76
2017/05/27/11:48:16.318604,121381,1495856896,318422079,0,270,407,390,308,171,120,74,76
2017/05/27/11:48:16.341164,121382,1495856896,340910911,0,262,423,426,329,168,117,73,81
2017/05/27/11:48:16.363702,121383,1495856896,363409042,0,204,401,428,287,154,94,59,63
2017/05/27/11:48:16.386052,121384,1495856896,385857105,0,205,391,453,311,163,92,58,61
2017/05/27/11:48:16.408600,121385,1495856896,408412933,0,187,438,473,292,167,108,61,62
2017/05/27/11:48:16.425107,121386,1495856896,424902915,0,184,456,477,296,169,113,62,64
2017/05/27/11:48:16.446133,121387,1495856896,445909023,0,181,475,441,273,177,114,63,59
2017/05/27/11:48:16.461044,121388,1495856896,460901975,0,171,491,452,319,180,116,68,65
2017/05/27/11:48:16.488368,121389,1495856896,483424901,0,154,511,512,312,176,119,65,66
2017/05/27/11:48:16.506121,121390,1495856896,505908012,0,128,461,490,309,176,104,61,63
2017/05/27/11:48:16.521265,121391,1495856896,520976066,0,123,422,500,306,170,96,62,63
2017/05/27/11:48:16.559317,121392,1495856896,559138059,0,107,406,528,321,162,88,59,58
2017/05/27/11:48:16.565979,121393,1495856896,565841913,0,111,457,564,318,186,119,67,58
2017/05/27/11:48:16.581274,121394,1495856896,580970048,0,97,442,469,280,175,114,65,54
2017/05/27/11:48:16.603636,121395,1495856896,603396892,0,98,464,456,276,157,123,66,52
2017/05/27/11:48:16.634413,121396,1495856896,634160995,0,104,557,449,273,158,121,60,48
2017/05/27/11:48:16.641079,121397,1495856896,640892028,0,108,536,460,307,184,125,62,53
2017/05/27/11:48:16.663530,121398,1495856896,663362026,0,89,480,350,242,155,92,47,45
2017/05/27/11:48:16.686678,121399,1495856896,686428070,0,98,484,414,267,165,93,50,51
2017/05/27/11:48:16.701071,121400,1495856896,700902938,0,94,519,411,271,166,83,47,51
2017/05/27/11:48:16.723669,121401,1495856896,723411083,0,85,425,424,282,178,93,49,53
2017/05/27/11:48:16.746120,121402,1495856896,745908975,0,75,424,379,213,141,86,49,55
2017/05/27/11:48:16.761095,121403,1495856896,760900020,0,77,460,418,241,125,80,45,53
2017/05/27/11:48:16.783744,121404,1495856896,783446073,0,72,460,355,207,119,84,43,50
2017/05/27/11:48:16.806080,121405,1495856896,805890083,0,69,410,388,197,123,82,41,52
2017/05/27/11:48:16.821227,121406,1495856896,820935010,0,69,426,358,181,107,78,40,52
2017/05/27/11:48:16.843670,121407,1495856896,843466997,0,70,438,365,205,106,79,40,48
2017/05/27/11:48:16.869247,121408,1495856896,869013071,0,63,383,358,188,115,78,46,51
2017/05/27/11:48:16.881058,121409,1495856896,880870103,0,54,347,376,210,121,75,45,53
2017/05/27/11:48:16.903670,121410,1495856896,903465032,0,57,374,311,206,133,86,50,55
2017/05/27/11:48:16.926303,121411,1495856896,925962924,0,68,404,387,213,138,85,48,55
2017/05/27/11:48:16.944760,121412,1495856896,944516897,0,78,449,371,192,154,88,49,56
2017/05/27/11:48:16.963578,121413,1495856896,963371038,0,86,450,327,174,168,103,58,58
2017/05/27/11:48:16.986479,121414,1495856896,986004114,0,87,465,311,166,169,109,58,52
2017/05/27/11:48:17.001098,121415,1495856897,897884,0,92,458,314,152,158,105,56,45
2017/05/27/11:48:17.023738,121416,1495856897,23413896,0,89,433,268,181,213,122,63,48
2017/05/27/11:48:17.054330,121417,1495856897,54124116,0,87,384,326,226,212,123,61,47
2017/05/27/11:48:17.061054,121418,1495856897,60857057,0,80,388,333,232,207,122,53,45
2017/05/27/11:48:17.083857,121419,1495856897,83492040,0,77,368,335,225,203,113,50,46
2017/05/27/11:48:17.106159,121420,1495856897,105868101,0,68,331,334,225,204,121,64,52
2017/05/27/11:48:17.128634,121421,1495856897,128400087,0,60,299,308,204,137,102,59,50
2017/05/27/11:48:17.143497,121422,1495856897,143338918,0,55,299,264,162,131,103,69,48
2017/05/27/11:48:17.166440,121423,1495856897,165983915,0,59,285,267,166,116,98,68,46
2017/05/27/11:48:17.181257,121424,1495856897,180979013,0,62,269,296,167,120,97,71,49
2017/05/27/11:48:17.203630,121425,1495856897,203397989,0,79,353,430,234,136,87,68,52
2017/05/27/11:48:17.226028,121426,1495856897,225866079,0,80,355,432,231,153,93,78,49
2017/05/27/11:48:17.241037,121427,1495856897,240895032,0,76,349,423,225,164,163,75,54
2017/05/27/11:48:17.263658,121428,1495856897,263431072,0,75,367,429,232,168,164,72,55
2017/05/27/11:48:17.287619,121429,1495856897,287379026,0,84,381,438,258,169,166,75,59
2017/05/27/11:48:17.308552,121430,1495856897,308374881,0,72,380,313,212,157,165,69,56
2017/05/27/11:48:17.323545,121431,1495856897,323368072,0,86,406,297,215,164,173,70,65
2017/05/27/11:48:17.354323,121432,1495856897,354136943,0,105,459,308,256,166,112,79,69
2017/05/27/11:48:17.368664,121433,1495856897,368386030,0,113,478,326,252,168,108,84,71
2017/05/27/11:48:17.390979,121434,1495856897,390841960,0,114,498,274,249,168,102,80,67
2017/05/27/11:48:17.405998,121435,1495856897,405874013,0,121,513,258,237,175,116,85,70
2017/05/27/11:48:17.428735,121436,1495856897,428467988,0,119,519,374,298,192,107,80,69
2017/05/27/11:48:17.443610,121437,1495856897,443420886,0,122,591,377,273,177,107,68,60
2017/05/27/11:48:17.466120,121438,1495856897,465919971,0,119,593,355,280,186,120,79,64
2017/05/27/11:48:17.488740,121439,1495856897,488383054,0,114,581,356,258,180,121,82,64
2017/05/27/11:48:17.505053,121440,1495856897,504872083,0,108,543,378,259,171,101,74,59
2017/05/27/11:48:17.526130,121441,1495856897,525870084,0,109,528,281,192,135,104,75,58
2017/05/27/11:48:17.548708,121442,1495856897,548429965,0,89,412,273,176,132,101,76,58
2017/05/27/11:48:17.563702,121443,1495856897,563455104,0,80,389,256,141,109,83,58,50
2017/05/27/11:48:17.586093,121444,1495856897,585864067,0,91,361,310,166,124,87,57,55
2017/05/27/11:48:17.608603,121445,1495856897,608397960,0,88,359,312,172,123,94,62,55
2017/05/27/11:48:17.630995,121446,1495856897,630836963,0,83,372,302,166,125,79,54,48
2017/05/27/11:48:17.646237,121447,1495856897,645977020,0,82,346,317,205,135,79,52,53
2017/05/27/11:48:17.668595,121448,1495856897,668428897,0,94,316,320,218,150,100,70,56
2017/05/27/11:48:17.683570,121449,1495856897,683414936,0,98,418,263,196,149,115,69,50
2017/05/27/11:48:17.706150,121450,1495856897,705882072,0,99,423,259,199,143,119,70,47
2017/05/27/11:48:17.728598,121451,1495856897,728439092,0,101,411,267,203,145,122,72,48
2017/05/27/11:48:17.743609,121452,1495856897,743401050,0,101,399,242,172,155,130,74,47
2017/05/27/11:48:17.765940,121453,1495856897,765791893,0,96,417,240,164,159,117,60,43
2017/05/27/11:48:17.788810,121454,1495856897,788542985,0,80,344,239,168,155,97,61,46
2017/05/27/11:48:17.803730,121455,1495856897,803514003,0,81,318,240,181,173,91,58,53
2017/05/27/11:48:17.826005,121456,1495856897,825838088,0,75,329,231,171,183,87,52,51
2017/05/27/11:48:17.848760,121457,1495856897,848433971,0,76,348,225,173,184,84,49,51
2017/05/27/11:48:17.863553,121458,1495856897,863390922,0,77,385,234,184,184,90,49,51
2017/05/27/11:48:17.886287,121459,1495856897,885970115,0,76,368,238,182,205,95,54,50
2017/05/27/11:48:17.908644,121460,1495856897,908406972,0,74,363,250,201,205,101,55,47
2017/05/27/11:48:17.923672,121461,1495856897,923418998,0,73,338,254,208,188,102,59,52
2017/05/27/11:48:17.946417,121462,1495856897,945971965,0,83,407,268,218,193,123,70,62
2017/05/27/11:48:17.968496,121463,1495856897,968348979,0,78,363,262,213,185,118,70,66
2017/05/27/11:48:17.983525,121464,1495856897,983397960,0,78,364,262,213,156,116,64,65
2017/05/27/11:48:18.006131,121465,1495856898,5944967,0,78,399,248,178,141,109,68,66
2017/05/27/11:48:18.028510,121466,1495856898,28386116,0,81,401,237,192,228,141,88,76
2017/05/27/11:48:18.043500,121467,1495856898,43359041,0,79,399,226,175,222,117,86,67
2017/05/27/11:48:18.066225,121468,1495856898,65993070,0,97,500,262,180,234,153,98,66
2017/05/27/11:48:18.088663,121469,1495856898,88481903,0,99,515,256,189,234,152,102,67
2017/05/27/11:48:18.103499,121470,1495856898,103355884,0,106,549,225,193,240,155,99,64
2017/05/27/11:48:18.126015,121471,1495856898,125814914,0,106,568,227,175,228,133,84,47
2017/05/27/11:48:18.149192,121472,1495856898,148479938,0,101,517,228,167,226,144,82,49
2017/05/27/11:48:18.165550,121473,1495856898,165359020,0,91,432,211,172,217,105,69,53
2017/05/27/11:48:18.186109,121474,1495856898,185909986,0,86,408,210,165,228,110,66,52
2017/05/27/11:48:18.208684,121475,1495856898,208405971,0,76,321,215,151,227,108,70,53
2017/05/27/11:48:18.223639,121476,1495856898,223321914,0,77,289,224,156,222,121,64,54
2017/05/27/11:48:18.246081,121477,1495856898,245872020,0,79,307,223,208,222,108,64,56
2017/05/27/11:48:18.268554,121478,1495856898,268342971,0,72,328,183,189,218,119,68,49
2017/05/27/11:48:18.291378,121479,1495856898,290961027,0,78,315,172,194,220,120,68,55
2017/05/27/11:48:18.306035,121480,1495856898,305847883,0,83,345,170,196,239,119,66,55
2017/05/27/11:48:18.328521,121481,1495856898,328392982,0,80,378,164,190,202,105,66,54
2017/05/27/11:48:18.351568,121482,1495856898,351413965,0,86,440,176,134,198,106,61,48
2017/05/27/11:48:18.366120,121483,1495856898,365869045,0,87,454,204,152,211,95,64,55
2017/05/27/11:48:18.388486,121484,1495856898,388365983,0,83,489,240,156,194,92,69,54
2017/05/27/11:48:18.411171,121485,1495856898,410985946,0,79,482,247,153,186,89,70,53
2017/05/27/11:48:18.426182,121486,1495856898,425884008,0,77,488,257,155,182,91,73,54
2017/05/27/11:48:18.448566,121487,1495856898,448436975,0,69,432,244,166,190,99,73,55
2017/05/27/11:48:18.471049,121488,1495856898,470863103,0,65,401,254,168,208,114,65,52
2017/05/27/11:48:18.486042,121489,1495856898,485862016,0,61,372,230,161,211,114,57,46
2017/05/27/11:48:18.508588,121490,1495856898,508394956,0,60,346,238,168,195,122,56,45
2017/05/27/11:48:18.531060,121491,1495856898,530915975,0,59,297,213,154,189,112,54,48
2017/05/27/11:48:18.546315,121492,1495856898,545877933,0,59,309,209,152,182,103,53,47
2017/05/27/11:48:18.576782,121493,1495856898,576574087,0,59,305,176,135,150,84,50,44
2017/05/27/11:48:18.591063,121494,1495856898,590888023,0,62,309,181,132,173,90,51,40
2017/05/27/11:48:18.606026,121495,1495856898,605871915,0,60,318,154,122,186,84,50,37
2017/05/27/11:48:18.636806,121496,1495856898,636543989,0,60,295,160,122,185,85,49,32
2017/05/27/11:48:18.651019,121497,1495856898,650867938,0,72,354,192,120,199,103,55,39
2017/05/27/11:48:18.666057,121498,1495856898,665889024,0,69,338,200,124,201,120,63,39
2017/05/27/11:48:18.690106,121499,1495856898,689877033,0,68,336,185,116,215,133,62,43
2017/05/27/11:48:18.711190,121500,1495856898,710977077,0,71,335,183,120,220,139,74,47
2017/05/27/11:48:18.726036,121501,1495856898,725881099,0,67,339,183,128,219,141,74,50
2017/05/27/11:48:18.748508,121502,1495856898,748358011,0,53,255,142,126,240,135,72,43
2017/05/27/11:48:18.771055,121503,1495856898,770893096,0,59,294,143,118,244,119,67,41
2017/05/27/11:48:18.793630,121504,1495856898,793375015,0,58,280,139,120,236,96,65,41
2017/05/27/11:48:18.808860,121505,1495856898,808485031,0,54,269,138,119,232,90,54,38
2017/05/27/11:48:18.831037,121506,1495856898,830866098,0,67,357,179,119,229,95,60,38
2017/05/27/11:48:18.847622,121507,1495856898,847412109,0,65,363,184,114,193,88,62,40
2017/05/27/11:48:18.868543,121508,1495856898,868351936,0,64,331,163,109,179,103,65,42
2017/05/27/11:48:18.891179,121509,1495856898,890902996,0,63,339,174,107,171,103,69,40
2017/05/27/11:48:18.906047,121510,1495856898,905859947,0,63,347,188,119,156,106,65,39
2017/05/27/11:48:18.928756,121511,1495856898,928512096,0,52,299,147,111,184,118,66,37
2017/05/27/11:48:18.951231,121512,1495856898,950874090,0,61,287,141,115,198,128,72,41
2017/05/27/11:48:18.966269,121513,1495856898,966001033,0,56,314,149,125,196,126,68,40
2017/05/27/11:48:18.988569,121514,1495856898,988378047,0,58,312,143,130,189,128,66,41
2017/05/27/11:48:19.011227,121515,1495856899,10896921,0,68,324,130,116,197,124,70,41
2017/05/27/11:48:19.026273,121516,1495856899,25844097,0,71,310,158,132,187,104,65,42
2017/05/27/11:48:19.048649,121517,1495856899,48444032,0,62,286,151,134,171,89,56,41
2017/05/27/11:48:19.070993,121518,1495856899,70822954,0,66,241,149,139,176,71,53,39
2017/05/27/11:48:19.086048,121519,1495856899,85850954,0,64,267,145,138,192,83,52,38
2017/05/27/11:48:19.108547,121520,1495856899,108335971,0,55,253,140,140,221,92,48,36
2017/05/27/11:48:19.131208,121521,1495856899,130968093,0,52,219,108,123,212,106,55,37
2017/05/27/11:48:19.146246,121522,1495856899,145946979,0,51,226,114,118,230,109,53,33
2017/05/27/11:48:19.169973,121523,1495856899,169800996,0,44,238,124,102,232,111,55,36
2017/05/27/11:48:19.191106,121524,1495856899,190850019,0,45,211,129,99,224,114,55,37
2017/05/27/11:48:19.214090,121525,1495856899,213387966,0,43,202,144,98,189,103,55,38
2017/05/27/11:48:19.228630,121526,1495856899,228408098,0,43,204,162,98,190,90,52,39
2017/05/27/11:48:19.250983,121527,1495856899,250809907,0,42,201,163,102,177,95,52,39
2017/05/27/11:48:19.273562,121528,1495856899,273387908,0,44,184,158,103,172,101,57,36
2017/05/27/11:48:19.288637,121529,1495856899,288423061,0,43,140,156,103,162,86,57,36
2017/05/27/11:48:19.311117,121530,1495856899,310899972,0,48,250,150,99,168,85,55,36
2017/05/27/11:48:19.333573,121531,1495856899,333385944,0,43,251,127,97,151,83,49,29
2017/05/27/11:48:19.348528,121532,1495856899,348357915,0,43,255,121,92,145,79,50,32
2017/05/27/11:48:19.371081,121533,1495856899,370868921,0,41,255,113,95,156,69,43,36
2017/05/27/11:48:19.393543,121534,1495856899,393377065,0,43,268,116,97,150,70,40,35
2017/05/27/11:48:19.408619,121535,1495856899,408396959,0,41,174,110,120,153,82,46,37
2017/05/27/11:48:19.431102,121536,1495856899,430918931,0,55,186,131,143,162,83,47,37
2017/05/27/11:48:19.453592,121537,1495856899,453398942,0,57,187,126,140,158,80,43,32
2017/05/27/11:48:19.468613,121538,1495856899,468346118,0,59,206,126,135,149,88,44,28
2017/05/27/11:48:19.491115,121539,1495856899,490864038,0,58,190,118,134,140,85,49,27
2017/05/27/11:48:19.513668,121540,1495856899,513375043,0,55,177,120,115,143,74,42,25
2017/05/27/11:48:19.528561,121541,1495856899,528332948,0,44,190,115,95,140,84,43,29
2017/05/27/11:48:19.551054,121542,1495856899,550837039,0,45,186,144,104,172,82,44,31
2017/05/27/11:48:19.573499,121543,1495856899,573332071,0,41,164,142,108,174,76,44,30
2017/05/27/11:48:19.588548,121544,1495856899,588351964,0,45,173,140,104,185,84,38,31
2017/05/27/11:48:19.611217,121545,1495856899,610964059,0,44,174,132,103,177,83,40,29
2017/05/27/11:48:19.633541,121546,1495856899,633362054,0,40,128,119,93,171,78,37,26
2017/05/27/11:48:19.648555,121547,1495856899,648394107,0,40,138,116,117,140,82,41,29
2017/05/27/11:48:19.671227,121548,1495856899,670923948,0,41,147,132,128,145,79,46,31
2017/05/27/11:48:19.693558,121549,1495856899,693373918,0,40,140,151,131,131,72,46,30
2017/05/27/11:48:19.708609,121550,1495856899,708400011,0,41,141,163,139,128,69,45,31
2017/05/27/11:48:19.739329,121551,1495856899,739132881,0,44,157,162,149,148,77,51,35
2017/05/27/11:48:19.753584,121552,1495856899,753406047,0,43,154,137,120,141,73,48,33
2017/05/27/11:48:19.768646,121553,1495856899,768410921,0,45,166,150,109,150,70,47,36
2017/05/27/11:48:19.791066,121554,1495856899,790895938,0,42,173,158,118,157,75,45,37
2017/05/27/11:48:19.813600,121555,1495856899,813369035,0,41,181,158,122,178,78,48,38
2017/05/27/11:48:19.828598,121556,1495856899,828423023,0,44,189,154,111,174,66,44,35
2017/05/27/11:48:19.851104,121557,1495856899,850902080,0,42,181,157,113,177,65,44,34
2017/05/27/11:48:19.873653,121558,1495856899,873428106,0,42,174,160,118,166,68,39,31
2017/05/27/11:48:19.888529,121559,1495856899,888335943,0,43,180,168,108,158,64,40,29
2017/05/27/11:48:19.911017,121560,1495856899,910825967,0,45,171,170,101,135,70,38,27
2017/05/27/11:48:19.933497,121561,1495856899,933330059,0,44,162,169,100,140,71,38,26
2017/05/27/11:48:19.948626,121562,1495856899,948369026,0,45,161,167,100,145,75,39,29
2017/05/27/11:48:19.971360,121563,1495856899,970869064,0,44,162,143,87,143,72,38,30
2017/05/27/11:48:19.993598,121564,1495856899,993381023,0,46,157,165,113,150,73,41,32
2017/05/27/11:48:20.008561,121565,1495856900,8378028,0,47,163,172,113,144,60,38,35
2017/05/27/11:48:20.031225,121566,1495856900,30972957,0,43,145,178,119,144,66,38,35
2017/05/27/11:48:20.053536,121567,1495856900,53352117,0,40,151,181,118,131,60,37,34
2017/05/27/11:48:20.068601,121568,1495856900,68368911,0,42,138,181,119,123,62,38,30
2017/05/27/11:48:20.091116,121569,1495856900,90934991,0,39,128,134,86,120,61,34,30
2017/05/27/11:48:20.113608,121570,1495856900,113378047,0,35,111,112,87,114,61,36,29
2017/05/27/11:48:20.128588,121571,1495856900,128398895,0,36,122,106,74,132,50,33,29
2017/05/27/11:48:20.151239,121572,1495856900,150950908,0,39,124,110,89,136,51,32,28
2017/05/27/11:48:20.173580,121573,1495856900,173374891,0,36,140,112,93,147,58,41,30
2017/05/27/11:48:20.196104,121574,1495856900,195893049,0,36,131,109,100,164,60,43,32
2017/05/27/11:48:20.210924,121575,1495856900,210779905,0,37,134,100,91,164,62,42,30
2017/05/27/11:48:20.233595,121576,1495856900,233397006,0,34,121,105,113,136,63,43,30
2017/05/27/11:48:20.256076,121577,1495856900,255883932,0,34,119,124,124,138,71,46,33
2017/05/27/11:48:20.271019,121578,1495856900,270811080,0,36,112,128,123,136,67,42,34
2017/05/27/11:48:20.293948,121579,1495856900,293811082,0,34,114,125,119,120,73,42,34
2017/05/27/11:48:20.315979,121580,1495856900,315838098,0,36,116,142,127,140,74,42,36
2017/05/27/11:48:20.331020,121581,1495856900,330842971,0,40,139,139,119,137,75,44,38
2017/05/27/11:48:20.353678,121582,1495856900,353399991,0,39,132,114,99,144,68,43,35
2017/05/27/11:48:20.376346,121583,1495856900,375946044,0,39,119,101,97,130,65,38,34
2017/05/27/11:48:20.392488,121584,1495856900,392327070,0,44,141,100,98,125,54,36,34
2017/05/27/11:48:20.413745,121585,1495856900,413474082,0,49,181,152,119,126,61,38,36
2017/05/27/11:48:20.437673,121586,1495856900,435858964,0,47,165,172,146,140,61,39,35
2017/05/27/11:48:20.452496,121587,1495856900,452322959,0,59,175,180,151,134,63,42,42
2017/05/27/11:48:20.473663,121588,1495856900,473421096,0,60,176,185,150,134,63,42,41
2017/05/27/11:48:20.496001,121589,1495856900,495870113,0,58,162,183,151,127,63,41,39
2017/05/27/11:48:20.520680,121590,1495856900,520498991,0,53,118,140,137,104,50,37,36
2017/05/27/11:48:20.537274,121591,1495856900,536953926,0,54,129,125,111,96,57,40,39
2017/05/27/11:48:20.557700,121592,1495856900,557394981,0,40,124,123,103,90,52,35,33
2017/05/27/11:48:20.572885,121593,1495856900,572412967,0,44,137,127,112,90,50,34,35
2017/05/27/11:48:20.595021,121594,1495856900,594862937,0,51,158,133,161,91,52,36,44
2017/05/27/11:48:20.616051,121595,1495856900,615847110,0,66,256,143,189,93,57,38,48
2017/05/27/11:48:20.632532,121596,1495856900,632349014,0,83,427,222,204,104,52,36,54
2017/05/27/11:48:20.655088,121597,1495856900,654827117,0,92,476,241,205,109,55,36,56
2017/05/27/11:48:20.676088,121598,1495856900,675890922,0,92,511,247,217,110,56,39,59
2017/05/27/11:48:20.692476,121599,1495856900,692308902,0,96,546,260,192,113,55,38,54
2017/05/27/11:48:20.715051,121600,1495856900,714854955,0,94,519,270,174,120,55,39,55
2017/05/27/11:48:20.736140,121601,1495856900,735886096,0,83,390,202,147,97,52,33,49
2017/05/27/11:48:20.758549,121602,1495856900,758337020,0,76,369,183,149,86,48,32,46
2017/05/27/11:48:20.774970,121603,1495856900,774769067,0,75,348,172,132,88,47,29,42
2017/05/27/11:48:20.803501,121604,1495856900,803323030,0,64,283,147,113,80,44,28,41
2017/05/27/11:48:20.826162,121605,1495856900,825894117,0,51,269,120,84,63,39,27,34
2017/05/27/11:48:20.835183,121606,1495856900,834775924,0,48,268,130,91,60,36,29,30
2017/05/27/11:48:20.857574,121607,1495856900,857393026,0,42,206,113,82,60,34,29,29
2017/05/27/11:48:20.878556,121608,1495856900,878348112,0,37,138,101,67,55,34,34,26
2017/05/27/11:48:20.902735,121609,1495856900,902337074,0,50,121,96,73,87,217,132,139
2017/05/27/11:48:20.916155,121610,1495856900,915865898,0,52,108,69,72,94,230,145,149
2017/05/27/11:48:20.938812,121611,1495856900,938585996,0,53,125,49,57,95,236,149,152
2017/05/27/11:48:20.955363,121612,1495856900,954958915,0,58,141,52,58,98,240,152,155
2017/05/27/11:48:20.975964,121613,1495856900,975826978,0,58,139,51,56,98,244,154,157
2017/05/27/11:48:20.998700,121614,1495856900,998385906,0,47,135,48,42,68,122,107,93
2017/05/27/11:48:21.015089,121615,1495856901,14854907,0,44,127,45,36,54,95,89,76
2017/05/27/11:48:21.036283,121616,1495856901,35979986,0,38,100,39,39,45,79,83,72
2017/05/27/11:48:21.058540,121617,1495856901,58358907,0,33,75,82,49,40,64,78,69
2017/05/27/11:48:21.075252,121618,1495856901,74879884,0,33,77,92,49,35,49,72,64
2017/05/27/11:48:21.096090,121619,1495856901,95890045,0,32,80,94,54,35,31,32,41
2017/05/27/11:48:21.118623,121620,1495856901,118422985,0,32,80,95,56,37,27,29,38
2017/05/27/11:48:21.135121,121621,1495856901,134799957,0,29,76,94,56,39,27,25,34
2017/05/27/11:48:21.156153,121622,1495856901,155903100,0,26,109,150,119,54,33,22,28
2017/05/27/11:48:21.181209,121623,1495856901,181035995,0,27,112,157,128,56,33,24,27
2017/05/27/11:48:21.202504,121624,1495856901,202295064,0,25,112,161,130,56,32,25,25
2017/05/27/11:48:21.216261,121625,1495856901,216001987,0,28,117,163,133,58,32,25,24
2017/05/27/11:48:21.239995,121626,1495856901,239835977,0,29,120,194,150,64,33,25,26
2017/05/27/11:48:21.255154,121627,1495856901,254786968,0,30,95,203,157,57,29,26,25
2017/05/27/11:48:21.277200,121628,1495856901,276998996,0,29,91,204,157,57,29,24,25
2017/05/27/11:48:21.298593,121629,1495856901,298401117,0,29,93,217,159,58,28,24,25
2017/05/27/11:48:21.315166,121630,1495856901,314851999,0,30,88,220,161,56,27,23,26
2017/05/27/11:48:21.337461,121631,1495856901,337290048,0,98,95,266,211,72,32,28,34
2017/05/27/11:48:21.358520,121632,1495856901,358330965,0,107,133,238,182,71,35,27,39
2017/05/27/11:48:21.377484,121633,1495856901,377274990,0,110,141,235,177,70,37,28,42
2017/05/27/11:48:21.397567,121634,1495856901,397346019,0,112,150,250,198,81,39,32,45
2017/05/27/11:48:21.418637,121635,1495856901,418397903,0,116,166,300,240,91,42,35,47
2017/05/27/11:48:21.435120,121636,1495856901,434856891,0,98,169,280,200,77,38,32,42
2017/05/27/11:48:21.457465,121637,1495856901,457293987,0,169,161,277,200,76,35,31,49
2017/05/27/11:48:21.478717,121638,1495856901,478427886,0,173,158,286,211,76,33,31,48
2017/05/27/11:48:21.494985,121639,1495856901,494817972,0,176,158,265,193,66,30,25,45
2017/05/27/11:48:21.517462,121640,1495856901,517276048,0,180,142,227,147,53,26,22,42
2017/05/27/11:48:21.539068,121641,1495856901,538897037,0,167,139,184,142,50,27,21,41
2017/05/27/11:48:21.561366,121642,1495856901,561008930,0,93,141,185,156,50,27,20,29
2017/05/27/11:48:21.577553,121643,1495856901,577337026,0,90,141,164,143,49,28,19,27
2017/05/27/11:48:21.598833,121644,1495856901,598386049,0,88,135,160,136,47,27,21,29
2017/05/27/11:48:21.621089,121645,1495856901,620881080,0,80,136,138,125,42,27,20,30
2017/05/27/11:48:21.637702,121646,1495856901,637346982,0,88,141,146,125,41,25,22,29
2017/05/27/11:48:21.658751,121647,1495856901,658433914,0,103,108,134,109,38,23,25,28
2017/05/27/11:48:21.681023,121648,1495856901,680851936,0,99,101,150,122,40,21,24,28
2017/05/27/11:48:21.697527,121649,1495856901,697324991,0,97,98,157,128,43,23,23,26
2017/05/27/11:48:21.718594,121650,1495856901,718375921,0,94,114,210,145,48,26,29,26
2017/05/27/11:48:21.741131,121651,1495856901,740868091,0,86,110,249,160,49,25,29,26
2017/05/27/11:48:21.757519,121652,1495856901,757333993,0,63,110,255,160,47,25,26,28
2017/05/27/11:48:21.778559,121653,1495856901,778366088,0,61,112,254,151,45,28,25,30
2017/05/27/11:48:21.800998,121654,1495856901,800848007,0,57,106,249,150,42,26,26,31
2017/05/27/11:48:21.817585,121655,1495856901,817323923,0,52,100,214,139,41,24,18,30
2017/05/27/11:48:21.838521,121656,1495856901,838327884,0,51,112,187,117,43,26,20,29
2017/05/27/11:48:21.861182,121657,1495856901,860959053,0,47,148,171,107,44,27,20,28
2017/05/27/11:48:21.877522,121658,1495856901,877296924,0,95,163,181,116,46,23,21,25
2017/05/27/11:48:21.899975,121659,1495856901,899800062,0,104,169,189,117,50,26,21,25
2017/05/27/11:48:21.921078,121660,1495856901,920862913,0,103,167,179,111,44,24,21,27
2017/05/27/11:48:21.937483,121661,1495856901,937342882,0,104,152,155,105,40,23,20,27
2017/05/27/11:48:21.960010,121662,1495856901,959778070,0,116,133,155,106,38,23,22,27
2017/05/27/11:48:21.981019,121663,1495856901,980823040,0,115,125,133,95,35,23,21,30
2017/05/27/11:48:21.997543,121664,1495856901,997291088,0,131,127,125,89,30,25,23,36
2017/05/27/11:48:22.018893,121665,1495856902,18520116,0,145,120,124,91,32,26,23,38
2017/05/27/11:48:22.041275,121666,1495856902,40962934,0,146,159,130,110,47,30,25,40
2017/05/27/11:48:22.057448,121667,1495856902,57270050,0,137,148,128,113,50,29,27,40
2017/05/27/11:48:22.078728,121668,1495856902,78398942,0,113,143,126,110,51,30,28,41
2017/05/27/11:48:22.108701,121669,1495856902,108449935,0,92,142,128,108,49,28,30,43
2017/05/27/11:48:22.117780,121670,1495856902,117383003,0,75,158,126,102,48,27,31,41
2017/05/27/11:48:22.138815,121671,1495856902,138577938,0,73,118,143,109,35,24,28,40
2017/05/27/11:48:22.161024,121672,1495856902,160845994,0,67,120,155,106,29,23,27,41
2017/05/27/11:48:22.177507,121673,1495856902,177329063,0,61,125,156,110,30,24,26,38
2017/05/27/11:48:22.198560,121674,1495856902,198380947,0,59,136,176,118,37,25,21,31
2017/05/27/11:48:22.221065,121675,1495856902,220875978,0,59,111,182,128,39,25,20,31
2017/05/27/11:48:22.237453,121676,1495856902,237293004,0,57,115,204,122,40,25,22,28
2017/05/27/11:48:22.258536,121677,1495856902,258341073,0,60,132,215,135,44,26,22,27
2017/05/27/11:48:22.280988,121678,1495856902,280828952,0,60,130,228,147,49,27,24,30
2017/05/27/11:48:22.297533,121679,1495856902,297306060,0,56,137,214,145,45,28,25,31
2017/05/27/11:48:22.318664,121680,1495856902,318357944,0,51,147,210,140,48,28,27,31
2017/05/27/11:48:22.345332,121681,1495856902,345053911,0,48,143,178,124,45,27,25,33
2017/05/27/11:48:22.357489,121682,1495856902,357287883,0,44,122,160,111,44,27,24,34
2017/05/27/11:48:22.378523,121683,1495856902,378340005,0,40,113,169,101,35,24,22,32
2017/05/27/11:48:22.401100,121684,1495856902,400903940,0,35,107,174,94,37,22,21,30
2017/05/27/11:48:22.417520,121685,1495856902,417331933,0,29,111,170,88,34,24,20,28
2017/05/27/11:48:22.438777,121686,1495856902,438462018,0,31,112,152,75,32,23,21,28
2017/05/27/11:48:22.461036,121687,1495856902,460865020,0,36,114,156,85,36,28,20,27
2017/05/27/11:48:22.477486,121688,1495856902,477273941,0,37,119,159,98,40,27,21,26
2017/05/27/11:48:22.498970,121689,1495856902,498634099,0,38,101,158,104,43,27,23,27
2017/05/27/11:48:22.521169,121690,1495856902,520941972,0,36,85,162,108,42,25,22,27
2017/05/27/11:48:22.537484,121691,1495856902,537327051,0,35,80,163,109,44,26,23,26
2017/05/27/11:48:22.558654,121692,1495856902,558373928,0,42,89,176,117,51,23,24,30
2017/05/27/11:48:22.581066,121693,1495856902,580898046,0,44,105,151,104,48,24,24,32
2017/05/27/11:48:22.606642,121694,1495856902,606409072,0,65,138,145,101,46,26,22,32
2017/05/27/11:48:22.621107,121695,1495856902,620812892,0,71,137,137,98,47,27,23,32
2017/05/27/11:48:22.641021,121696,1495856902,640815019,0,72,142,146,101,48,27,23,35
2017/05/27/11:48:22.657588,121697,1495856902,657305002,0,72,145,146,101,46,26,23,33
2017/05/27/11:48:22.679974,121698,1495856902,679806947,0,72,134,138,105,50,24,26,32
2017/05/27/11:48:22.701175,121699,1495856902,700939893,0,52,95,129,101,49,21,26,30
2017/05/27/11:48:22.717446,121700,1495856902,717292070,0,45,94,138,104,50,22,25,31
2017/05/27/11:48:22.740087,121701,1495856902,739867925,0,45,91,128,101,48,22,25,28
2017/05/27/11:48:22.761018,121702,1495856902,760831117,0,36,72,107,89,51,26,26,28
2017/05/27/11:48:22.783557,121703,1495856902,783351898,0,36,80,153,106,55,33,27,29
2017/05/27/11:48:22.800056,121704,1495856902,799784898,0,35,78,155,112,56,33,26,33
2017/05/27/11:48:22.821013,121705,1495856902,820836067,0,34,75,145,107,55,33,27,32
2017/05/27/11:48:22.837642,121706,1495856902,837337017,0,32,71,144,106,55,33,28,32
2017/05/27/11:48:22.858661,121707,1495856902,858397006,0,29,68,132,96,46,30,25,29
2017/05/27/11:48:22.881270,121708,1495856902,880953073,0,23,43,74,58,34,24,21,26
2017/05/27/11:48:22.897474,121709,1495856902,897270917,0,21,44,68,44,31,24,21,21
2017/05/27/11:48:22.918591,121710,1495856902,918359041,0,22,51,115,81,37,24,23,21
2017/05/27/11:48:22.941218,121711,1495856902,940973043,0,21,53,131,96,42,25,21,21
2017/05/27/11:48:22.957570,121712,1495856902,957333087,0,22,51,129,95,39,24,19,19
2017/05/27/11:48:22.978674,121713,1495856902,978418111,0,24,49,126,94,40,24,21,20
2017/05/27/11:48:23.001295,121714,1495856903,968933,0,24,48,127,95,39,23,21,19
2017/05/27/11:48:23.023550,121715,1495856903,23365020,0,23,35,84,67,32,21,19,19
2017/05/27/11:48:23.038621,121716,1495856903,38418054,0,23,26,53,44,24,20,19,18
2017/05/27/11:48:23.061310,121717,1495856903,61006069,0,21,26,52,44,25,18,19,19
2017/05/27/11:48:23.083645,121718,1495856903,83388090,0,18,25,47,42,22,18,18,17
2017/05/27/11:48:23.100052,121719,1495856903,99801063,0,18,24,43,39,23,19,18,18
2017/05/27/11:48:23.120999,121720,1495856903,120824098,0,16,22,39,33,22,17,17,16
2017/05/27/11:48:23.143737,121721,1495856903,143398046,0,15,21,35,27,23,18,18,17
2017/05/27/11:48:23.160342,121722,1495856903,159851074,0,19,21,28,24,21,18,19,17
2017/05/27/11:48:23.181199,121723,1495856903,180943012,0,21,21,24,23,22,18,18,19
2017/05/27/11:48:23.203666,121724,1495856903,203433990,0,22,22,25,23,21,19,17,18
2017/05/27/11:48:23.220008,121725,1495856903,219804048,0,23,21,24,23,19,18,18,18
2017/05/27/11:48:23.241113,121726,1495856903,240883111,0,23,22,27,22,19,17,18,18
2017/05/27/11:48:23.265464,121727,1495856903,265292882,0,21,20,25,22,19,18,18,18
2017/05/27/11:48:23.279973,121728,1495856903,279799938,0,18,18,26,23,21,19,20,16
2017/05/27/11:48:23.300985,121729,1495856903,300805091,0,17,17,23,22,20,18,20,17
2017/05/27/11:48:23.323550,121730,1495856903,323334932,0,20,18,26,25,22,18,19,19
2017/05/27/11:48:23.339969,121731,1495856903,339787960,0,20,20,26,27,23,20,19,19
2017/05/27/11:48:23.361007,121732,1495856903,360822916,0,19,20,25,24,21,19,18,19
2017/05/27/11:48:23.383539,121733,1495856903,383339881,0,19,22,24,24,20,17,16,20
2017/05/27/11:48:23.399928,121734,1495856903,399769067,0,18,20,24,22,21,20,17,19
2017/05/27/11:48:23.421061,121735,1495856903,420886993,0,16,21,20,20,21,21,19,18
2017/05/27/11:48:23.443699,121736,1495856903,443365097,0,16,19,19,19,19,19,18,18
2017/05/27/11:48:23.460082,121737,1495856903,459784030,0,17,18,24,21,20,20,19,18
2017/05/27/11:48:23.481071,121738,1495856903,480882883,0,18,17,24,22,20,21,19,19
2017/05/27/11:48:23.503577,121739,1495856903,503374099,0,18,20,24,25,21,19,19,20
2017/05/27/11:48:23.520070,121740,1495856903,519809961,0,18,18,24,24,21,18,16,22
2017/05/27/11:48:23.541036,121741,1495856903,540853977,0,20,21,22,25,21,17,16,21
2017/05/27/11:48:23.563772,121742,1495856903,563448905,0,18,22,18,23,22,18,18,22
2017/05/27/11:48:23.579989,121743,1495856903,579833984,0,18,21,19,23,23,17,17,20
2017/05/27/11:48:23.601174,121744,1495856903,600879907,0,21,19,21,22,22,18,17,20
2017/05/27/11:48:23.623523,121745,1495856903,623338937,0,22,21,20,22,21,19,17,17
2017/05/27/11:48:23.639997,121746,1495856903,639811992,0,19,20,20,21,21,18,18,16
2017/05/27/11:48:23.661003,121747,1495856903,660820007,0,20,19,19,21,19,18,16,14
2017/05/27/11:48:23.683633,121748,1495856903,683378934,0,20,20,20,22,18,18,17,15
2017/05/27/11:48:23.700168,121749,1495856903,699820995,0,21,20,18,21,18,17,17,14
2017/05/27/11:48:23.721161,121750,1495856903,720896959,0,24,19,18,23,20,17,17,15
2017/05/27/11:48:23.743456,121751,1495856903,743283033,0,24,18,21,23,19,17,16,17
2017/05/27/11:48:23.760293,121752,1495856903,759810924,0,23,19,20,23,20,18,17,18
2017/05/27/11:48:23.780998,121753,1495856903,780822992,0,23,20,19,22,19,19,18,18
2017/05/27/11:48:23.803910,121754,1495856903,803447961,0,23,19,19,22,20,19,18,19
2017/05/27/11:48:23.819988,121755,1495856903,819801092,0,20,19,20,21,18,18,18,19
2017/05/27/11:48:23.841214,121756,1495856903,840934038,0,21,19,20,20,18,22,18,18
2017/05/27/11:48:23.863660,121757,1495856903,863363981,0,22,19,21,23,19,22,18,19
2017/05/27/11:48:23.879917,121758,1495856903,879751920,0,21,19,21,22,21,21,18,20
2017/05/27/11:48:23.901097,121759,1495856903,900887012,0,16,19,21,22,20,21,20,21
2017/05/27/11:48:23.923528,121760,1495856903,923357009,0,17,19,20,22,19,22,21,22
2017/05/27/11:48:23.946068,121761,1495856903,945844888,0,16,19,20,21,21,20,22,21
2017/05/27/11:48:23.961111,121762,1495856903,960836887,0,18,19,20,19,20,18,21,19
2017/05/27/11:48:23.983944,121763,1495856903,983423948,0,20,20,20,20,18,18,20,18
2017/05/27/11:48:24.006045,121764,1495856904,5862951,0,20,20,18,20,18,18,20,18
2017/05/27/11:48:24.021271,121765,1495856904,20817995,0,20,21,17,19,18,18,20,15
2017/05/27/11:48:24.043674,121766,1495856904,43397903,0,20,21,19,19,18,17,19,16
2017/05/27/11:48:24.066004,121767,1495856904,65817117,0,19,22,19,19,17,16,19,18
2017/05/27/11:48:24.081110,121768,1495856904,80887079,0,18,20,19,18,18,17,20,20
2017/05/27/11:48:24.104939,121769,1495856904,104799985,0,17,20,19,18,18,16,17,20
2017/05/27/11:48:24.126131,121770,1495856904,125874042,0,17,20,20,18,19,16,17,20
2017/05/27/11:48:24.141008,121771,1495856904,140837907,0,17,22,18,18,18,17,17,20
2017/05/27/11:48:24.163503,121772,1495856904,163319110,0,15,23,17,17,19,19,17,20
2017/05/27/11:48:24.186000,121773,1495856904,185818910,0,15,22,17,18,19,19,17,19
2017/05/27/11:48:24.201026,121774,1495856904,200845956,0,15,23,19,18,19,21,18,19
2017/05/27/11:48:24.223595,121775,1495856904,223365068,0,16,21,20,18,19,20,19,20
2017/05/27/11:48:24.246131,121776,1495856904,245886087,0,18,20,21,21,20,19,20,19
2017/05/27/11:48:24.261124,121777,1495856904,260884046,0,20,17,21,20,20,19,19,18
2017/05/27/11:48:24.283523,121778,1495856904,283349037,0,20,18,23,20,18,18,18,17
2017/05/27/11:48:24.306073,121779,1495856904,305856943,0,20,17,22,21,18,19,18,17
2017/05/27/11:48:24.321038,121780,1495856904,320885896,0,21,20,21,21,19,18,18,17
2017/05/27/11:48:24.343623,121781,1495856904,343388080,0,19,19,21,19,19,18,17,19
2017/05/27/11:48:24.365968,121782,1495856904,365830898,0,20,20,21,19,20,18,18,19
2017/05/27/11:48:24.382562,121783,1495856904,382318019,0,20,20,19,20,20,19,19,20
2017/05/27/11:48:24.403493,121784,1495856904,403342962,0,21,20,19,19,19,19,19,20
2017/05/27/11:48:24.426231,121785,1495856904,425887107,0,20,20,20,19,18,19,17,20
2017/05/27/11:48:24.442463,121786,1495856904,442305088,0,21,21,20,20,18,21,19,18
2017/05/27/11:48:24.463917,121787,1495856904,463423967,0,20,21,21,19,16,19,18,19
2017/05/27/11:48:24.486170,121788,1495856904,485857009,0,20,21,22,18,17,20,19,19
2017/05/27/11:48:24.502524,121789,1495856904,502331972,0,18,22,24,19,17,24,18,18
2017/05/27/11:48:24.523443,121790,1495856904,523283958,0,19,20,21,19,16,24,18,19
2017/05/27/11:48:24.546524,121791,1495856904,546260118,0,20,20,22,21,16,24,17,19
2017/05/27/11:48:24.562495,121792,1495856904,562303066,0,21,20,23,21,16,25,17,20
2017/05/27/11:48:24.583479,121793,1495856904,583295106,0,19,21,23,21,19,25,17,19
2017/05/27/11:48:24.605953,121794,1495856904,605801105,0,20,20,20,22,19,21,18,19
2017/05/27/11:48:24.622524,121795,1495856904,622340917,0,18,21,23,20,19,21,18,19
2017/05/27/11:48:24.643591,121796,1495856904,643362998,0,17,21,23,19,19,19,16,18
2017/05/27/11:48:24.665986,121797,1495856904,665812015,0,17,21,21,18,20,20,16,16
2017/05/27/11:48:24.682574,121798,1495856904,682320117,0,17,21,22,18,19,18,18,17
2017/05/27/11:48:24.703461,121799,1495856904,703289031,0,16,20,24,16,20,18,17,19
2017/05/27/11:48:24.725985,121800,1495856904,725792884,0,17,21,23,18,19,19,18,18
2017/05/27/11:48:24.742537,121801,1495856904,742261886,0,18,22,24,18,20,19,18,19
2017/05/27/11:48:24.763733,121802,1495856904,763360023,0,17,22,23,19,20,19,18,20
2017/05/27/11:48:24.785971,121803,1495856904,785804986,0,17,20,21,18,19,19,16,21
2017/05/27/11:48:24.802444,121804,1495856904,802258014,0,17,20,22,19,19,19,16,19
2017/05/27/11:48:24.823675,121805,1495856904,823368072,0,17,20,20,18,19,18,16,20
2017/05/27/11:48:24.846026,121806,1495856904,845860004,0,15,19,18,18,19,19,16,20
2017/05/27/11:48:24.862455,121807,1495856904,862299919,0,16,19,20,20,19,19,16,20
2017/05/27/11:48:24.883554,121808,1495856904,883408069,0,17,20,21,24,19,20,17,20
2017/05/27/11:48:24.906112,121809,1495856904,905833959,0,16,21,21,23,20,21,16,21
2017/05/27/11:48:24.928669,121810,1495856904,928323984,0,16,20,22,25,20,22,16,21
2017/05/27/11:48:24.943645,121811,1495856904,943347930,0,16,21,23,24,19,20,17,24
2017/05/27/11:48:24.966022,121812,1495856904,965840101,0,15,20,22,23,20,19,17,24
2017/05/27/11:48:24.988706,121813,1495856904,988475084,0,14,21,21,19,20,19,19,25
2017/05/27/11:48:25.003728,121814,1495856905,3374099,0,15,21,21,20,20,20,19,25
2017/05/27/11:48:25.026065,121815,1495856905,25849103,0,15,23,21,18,20,18,18,24
2017/05/27/11:48:25.048763,121816,1495856905,48532962,0,16,22,22,18,20,19,18,21
2017/05/27/11:48:25.063541,121817,1495856905,63322067,0,17,23,21,17,19,21,17,19
2017/05/27/11:48:25.087389,121818,1495856905,87249994,0,17,21,21,19,19,21,17,18
2017/05/27/11:48:25.108522,121819,1495856905,108355998,0,17,22,20,19,19,20,16,17
2017/05/27/11:48:25.125091,121820,1495856905,124865055,0,17,18,18,18,19,22,19,17
2017/05/27/11:48:25.146019,121821,1495856905,145842075,0,17,19,20,20,18,21,18,20
2017/05/27/11:48:25.168520,121822,1495856905,168329000,0,17,18,21,20,18,21,19,19
2017/05/27/11:48:25.183630,121823,1495856905,183408975,0,18,20,22,18,17,21,19,19
2017/05/27/11:48:25.206006,121824,1495856905,205838918,0,18,19,21,19,17,20,21,19
2017/05/27/11:48:25.229245,121825,1495856905,228461027,0,18,18,21,20,16,19,20,19
2017/05/27/11:48:25.243472,121826,1495856905,243304014,0,18,19,19,19,18,18,20,18
2017/05/27/11:48:25.265986,121827,1495856905,265822887,0,18,19,20,20,19,19,19,17
2017/05/27/11:48:25.288471,121828,1495856905,288341045,0,17,19,18,20,19,20,21,16
2017/05/27/11:48:25.303699,121829,1495856905,303440093,0,17,19,20,18,20,21,21,18
2017/05/27/11:48:25.325984,121830,1495856905,325799942,0,17,20,20,18,20,22,20,19
2017/05/27/11:48:25.348583,121831,1495856905,348356008,0,16,21,19,17,18,23,20,18
2017/05/27/11:48:25.363677,121832,1495856905,363337039,0,16,20,20,17,18,22,20,20
2017/05/27/11:48:25.388399,121833,1495856905,388264894,0,17,20,20,17,18,20,19,21
2017/05/27/11:48:25.408481,121834,1495856905,408318996,0,16,20,19,19,19,21,19,19
2017/05/27/11:48:25.423529,121835,1495856905,423345088,0,17,18,19,19,19,20,20,19
2017/05/27/11:48:25.446016,121836,1495856905,445839881,0,18,17,19,23,21,19,18,19
2017/05/27/11:48:25.468468,121837,1495856905,468327045,0,20,18,19,23,21,20,20,19
2017/05/27/11:48:25.483555,121838,1495856905,483393907,0,19,18,18,22,23,20,18,20
2017/05/27/11:48:25.505955,121839,1495856905,505815029,0,21,20,18,22,23,19,17,19
2017/05/27/11:48:25.528522,121840,1495856905,528382062,0,20,20,20,22,23,19,18,21
2017/05/27/11:48:25.543486,121841,1495856905,543314933,0,19,20,19,19,22,19,18,22
2017/05/27/11:48:25.566207,121842,1495856905,565866947,0,18,20,18,19,23,17,16,23
2017/05/27/11:48:25.588571,121843,1495856905,588365077,0,19,19,20,19,21,18,18,22
2017/05/27/11:48:25.603499,121844,1495856905,603324890,0,17,17,20,18,20,19,19,22
2017/05/27/11:48:25.626386,121845,1495856905,625974893,0,16,19,20,17,19,19,18,20
2017/05/27/11:48:25.648545,121846,1495856905,648346900,0,17,19,20,17,19,19,20,20
2017/05/27/11:48:25.664936,121847,1495856905,664757966,0,15,21,20,19,18,20,21,17
2017/05/27/11:48:25.686344,121848,1495856905,685961008,0,15,21,19,19,17,18,21,17
2017/05/27/11:48:25.708525,121849,1495856905,708333015,0,14,23,20,20,17,17,20,18
2017/05/27/11:48:25.724961,121850,1495856905,724756002,0,15,21,21,19,17,18,19,20
2017/05/27/11:48:25.746033,121851,1495856905,745845079,0,19,22,22,21,17,17,18,19
2017/05/27/11:48:25.768505,121852,1495856905,768296957,0,19,18,23,19,17,18,17,19
2017/05/27/11:48:25.785062,121853,1495856905,784775018,0,19,20,24,21,17,19,16,19
2017/05/27/11:48:25.806009,121854,1495856905,805814027,0,21,17,22,22,18,20,16,20
2017/05/27/11:48:25.828665,121855,1495856905,828422069,0,21,21,24,21,18,20,17,20
2017/05/27/11:48:25.851055,121856,1495856905,850838899,0,19,21,24,19,17,22,17,19
2017/05/27/11:48:25.866077,121857,1495856905,865864038,0,19,21,22,21,18,22,15,24
2017/05/27/11:48:25.888511,121858,1495856905,888330936,0,20,20,22,20,19,20,16,24
2017/05/27/11:48:25.911058,121859,1495856905,910876035,0,19,21,23,19,20,19,16,22
2017/05/27/11:48:25.925935,121860,1495856905,925784111,0,19,19,20,20,21,18,17,22
2017/05/27/11:48:25.948459,121861,1495856905,948314905,0,18,18,19,19,22,16,17,21
2017/05/27/11:48:25.970974,121862,1495856905,970817089,0,17,20,20,16,21,17,18,16
2017/05/27/11:48:25.986140,121863,1495856905,985855102,0,15,19,21,17,20,19,17,14
2017/05/27/11:48:26.008482,121864,1495856906,8320093,0,17,20,21,17,19,20,17,16
2017/05/27/11:48:26.030998,121865,1495856906,30860900,0,17,20,20,18,19,20,15,14
2017/05/27/11:48:26.048176,121866,1495856906,48042058,0,18,21,21,19,18,20,17,16
2017/05/27/11:48:26.068650,121867,1495856906,68383932,0,18,20,20,19,19,20,18,17
2017/05/27/11:48:26.091002,121868,1495856906,90811967,0,20,21,20,19,20,18,18,19
2017/05/27/11:48:26.106010,121869,1495856906,105829954,0,20,20,20,20,20,18,19,20
