time,.header.seq,.header.stamp.secs,.header.stamp.nsecs,.header.frame_id,.ch0,.ch1,.ch2,.ch3,.ch4,.ch5,.ch6,.ch7
2017/05/27/11:45:20.842540,112640,1495856720,842225074,0,125,78,143,112,66,75,96,52
2017/05/27/11:45:20.857411,112641,1495856720,857189893,0,126,82,143,110,72,85,99,51
2017/05/27/11:45:20.879755,112642,1495856720,879565954,0,164,129,145,110,74,86,93,53
2017/05/27/11:45:20.902842,112643,1495856720,902378082,0,222,170,196,161,121,82,62,53
2017/05/27/11:45:20.924880,112644,1495856720,924647092,0,324,232,296,277,177,106,76,84
2017/05/27/11:45:20.939828,112645,1495856720,939594984,0,334,262,386,369,208,123,89,90
2017/05/27/11:45:20.962278,112646,1495856720,962075948,0,358,271,400,395,227,127,91,94
2017/05/27/11:45:20.977412,112647,1495856720,977113008,0,383,312,436,416,239,138,98,99
2017/05/27/11:45:20.999913,112648,1495856720,999650955,0,519,407,542,455,249,160,108,117
2017/05/27/11:45:21.030531,112649,1495856721,30293941,0,512,433,579,458,250,147,95,104
2017/05/27/11:45:21.037271,112650,1495856721,37065982,0,527,434,527,394,238,154,85,101
2017/05/27/11:45:21.060095,112651,1495856721,59719085,0,526,460,584,424,249,159,89,101
2017/05/27/11:45:21.082348,112652,1495856721,82079887,0,546,498,600,427,246,154,87,109
2017/05/27/11:45:21.097333,112653,1495856721,97104072,0,437,511,556,405,233,131,74,95
2017/05/27/11:45:21.121430,112654,1495856721,121175050,0,464,501,483,340,200,127,75,94
2017/05/27/11:45:21.142355,112655,1495856721,142106056,0,459,499,503,353,183,105,75,100
2017/05/27/11:45:21.164863,112656,1495856721,164614915,0,476,526,464,320,157,95,66,103
2017/05/27/11:45:21.179873,112657,1495856721,179627895,0,451,489,563,374,154,88,60,88
2017/05/27/11:45:21.202681,112658,1495856721,202229976,0,475,446,534,368,146,84,63,90
2017/05/27/11:45:21.225029,112659,1495856721,224687099,0,424,443,555,398,160,91,66,93
2017/05/27/11:45:21.239876,112660,1495856721,239584922,0,462,457,585,433,196,106,65,91
2017/05/27/11:45:21.262266,112661,1495856721,262069940,0,480,416,578,424,191,97,63,85
2017/05/27/11:45:21.284880,112662,1495856721,284670114,0,620,493,512,404,195,97,66,112
2017/05/27/11:45:21.299834,112663,1495856721,299626111,0,583,599,627,468,260,132,73,112
2017/05/27/11:45:21.322546,112664,1495856721,322109937,0,578,607,624,449,252,129,71,110
2017/05/27/11:45:21.344866,112665,1495856721,344626903,0,617,617,586,405,232,125,66,107
2017/05/27/11:45:21.359835,112666,1495856721,359601974,0,610,650,574,397,226,126,68,109
2017/05/27/11:45:21.382350,112667,1495856721,382136106,0,488,602,577,378,228,128,68,87
2017/05/27/11:45:21.404894,112668,1495856721,404639959,0,555,505,468,312,170,104,66,101
2017/05/27/11:45:21.419889,112669,1495856721,419610023,0,605,562,560,429,195,129,83,110
2017/05/27/11:45:21.442431,112670,1495856721,442100048,0,575,555,565,436,200,123,86,115
2017/05/27/11:45:21.464854,112671,1495856721,464647054,0,571,557,584,449,202,121,85,113
2017/05/27/11:45:21.479897,112672,1495856721,479659080,0,571,598,565,437,191,123,92,110
2017/05/27/11:45:21.502511,112673,1495856721,502213001,0,582,604,526,394,163,109,86,109
2017/05/27/11:45:21.524913,112674,1495856721,524686098,0,562,575,498,360,178,96,81,107
2017/05/27/11:45:21.539967,112675,1495856721,539618015,0,582,570,492,359,173,95,82,109
2017/05/27/11:45:21.562285,112676,1495856721,562076091,0,576,575,516,356,173,98,83,112
2017/05/27/11:45:21.584921,112677,1495856721,584681987,0,648,568,507,369,197,104,75,122
2017/05/27/11:45:21.599833,112678,1495856721,599581956,0,633,551,521,392,212,112,78,117
2017/05/27/11:45:21.622637,112679,1495856721,622117996,0,593,550,581,392,188,98,69,110
2017/05/27/11:45:21.644796,112680,1495856721,644581079,0,553,547,579,393,202,110,72,109
2017/05/27/11:45:21.660077,112681,1495856721,659799098,0,578,530,568,390,203,112,76,116
2017/05/27/11:45:21.682480,112682,1495856721,682261943,0,488,487,577,394,192,108,75,102
2017/05/27/11:45:21.704831,112683,1495856721,704626083,0,452,464,600,403,183,106,69,91
2017/05/27/11:45:21.720031,112684,1495856721,719733953,0,456,406,465,311,193,110,67,86
2017/05/27/11:45:21.742343,112685,1495856721,742125034,0,461,448,459,284,177,104,66,88
2017/05/27/11:45:21.764829,112686,1495856721,764615058,0,408,417,460,294,175,100,60,72
2017/05/27/11:45:21.780024,112687,1495856721,779697895,0,394,433,406,259,162,92,58,70
2017/05/27/11:45:21.811991,112688,1495856721,811769962,0,380,445,361,215,161,99,57,72
2017/05/27/11:45:21.825153,112689,1495856721,824687957,0,380,461,352,210,125,90,54,71
2017/05/27/11:45:21.847604,112690,1495856721,847271919,0,388,423,401,247,128,85,52,70
2017/05/27/11:45:21.864064,112691,1495856721,863707065,0,398,462,412,244,132,88,56,79
2017/05/27/11:45:21.885056,112692,1495856721,884741067,0,376,452,429,263,142,94,56,78
2017/05/27/11:45:21.899717,112693,1495856721,899547100,0,389,438,430,276,151,87,57,76
2017/05/27/11:45:21.922432,112694,1495856721,922177076,0,397,430,449,304,166,108,65,85
2017/05/27/11:45:21.944993,112695,1495856721,944714069,0,362,436,427,304,173,110,63,82
2017/05/27/11:45:21.959972,112696,1495856721,959647893,0,349,379,377,290,173,113,64,79
2017/05/27/11:45:21.982352,112697,1495856721,982120990,0,342,373,385,274,166,109,66,84
2017/05/27/11:45:22.004985,112698,1495856722,4606008,0,270,353,379,262,147,103,62,81
2017/05/27/11:45:22.019873,112699,1495856722,19612073,0,244,335,369,241,132,87,55,69
2017/05/27/11:45:22.042331,112700,1495856722,42112112,0,198,361,411,265,121,90,49,59
2017/05/27/11:45:22.064870,112701,1495856722,64613103,0,235,387,437,283,140,99,52,60
2017/05/27/11:45:22.079815,112702,1495856722,79605102,0,235,370,419,280,136,96,58,56
2017/05/27/11:45:22.102336,112703,1495856722,102102994,0,246,412,451,288,156,112,68,61
2017/05/27/11:45:22.124830,112704,1495856722,124583005,0,269,449,436,275,151,108,67,66
2017/05/27/11:45:22.147506,112705,1495856722,147178888,0,269,460,434,256,142,111,71,70
2017/05/27/11:45:22.162468,112706,1495856722,162172079,0,238,476,464,264,127,102,69,69
2017/05/27/11:45:22.184837,112707,1495856722,184604883,0,228,471,451,253,129,107,67,70
2017/05/27/11:45:22.207386,112708,1495856722,207128047,0,197,467,453,253,123,108,60,71
2017/05/27/11:45:22.222522,112709,1495856722,222229003,0,151,461,472,257,125,110,61,67
2017/05/27/11:45:22.244959,112710,1495856722,244700908,0,137,438,447,241,126,107,61,65
2017/05/27/11:45:22.267417,112711,1495856722,267174959,0,98,413,423,208,130,112,63,60
2017/05/27/11:45:22.282282,112712,1495856722,282051086,0,87,436,462,253,147,124,64,60
2017/05/27/11:45:22.304867,112713,1495856722,304613113,0,82,428,421,242,143,109,63,56
2017/05/27/11:45:22.327290,112714,1495856722,327061891,0,78,387,410,257,155,108,61,54
2017/05/27/11:45:22.342264,112715,1495856722,342047929,0,85,445,376,245,156,105,58,51
2017/05/27/11:45:22.364864,112716,1495856722,364593982,0,95,467,411,276,157,100,55,54
2017/05/27/11:45:22.387306,112717,1495856722,387078046,0,96,483,395,266,171,104,56,54
2017/05/27/11:45:22.402283,112718,1495856722,402096986,0,95,481,408,267,167,108,56,52
2017/05/27/11:45:22.424868,112719,1495856722,424628973,0,101,509,411,274,183,116,56,56
2017/05/27/11:45:22.447315,112720,1495856722,447094917,0,110,467,507,323,198,128,63,63
2017/05/27/11:45:22.462578,112721,1495856722,462151050,0,109,437,491,330,212,132,62,61
2017/05/27/11:45:22.493039,112722,1495856722,492809057,0,105,405,497,324,216,122,55,58
2017/05/27/11:45:22.507261,112723,1495856722,507065057,0,129,558,634,459,283,139,70,72
2017/05/27/11:45:22.522381,112724,1495856722,522135019,0,134,552,656,461,273,136,69,70
2017/05/27/11:45:22.544948,112725,1495856722,544625997,0,123,538,591,433,270,145,68,66
2017/05/27/11:45:22.567324,112726,1495856722,567099094,0,128,609,563,414,279,157,74,74
2017/05/27/11:45:22.582310,112727,1495856722,582104921,0,122,617,538,409,274,158,75,72
2017/05/27/11:45:22.605069,112728,1495856722,604739904,0,100,511,398,290,221,151,66,60
2017/05/27/11:45:22.627583,112729,1495856722,627207040,0,127,594,430,296,246,166,74,71
2017/05/27/11:45:22.642427,112730,1495856722,642195940,0,127,642,414,290,242,157,75,68
2017/05/27/11:45:22.664879,112731,1495856722,664648056,0,146,695,549,334,232,156,74,72
2017/05/27/11:45:22.687418,112732,1495856722,687186956,0,164,721,558,336,232,154,77,79
2017/05/27/11:45:22.702313,112733,1495856722,702109098,0,164,703,531,304,226,145,72,83
2017/05/27/11:45:22.725001,112734,1495856722,724625110,0,149,668,513,293,199,139,74,86
2017/05/27/11:45:22.747464,112735,1495856722,747226953,0,151,647,550,310,207,140,75,91
2017/05/27/11:45:22.762275,112736,1495856722,762083053,0,129,517,420,245,181,123,68,80
2017/05/27/11:45:22.784822,112737,1495856722,784580945,0,120,492,399,228,156,118,67,72
2017/05/27/11:45:22.807325,112738,1495856722,807086944,0,127,498,483,298,160,118,69,73
2017/05/27/11:45:22.823253,112739,1495856722,822915077,0,117,462,564,324,163,105,61,59
2017/05/27/11:45:22.846347,112740,1495856722,846117973,0,114,407,527,309,153,100,57,55
2017/05/27/11:45:22.867415,112741,1495856722,867186069,0,116,433,514,311,186,111,62,66
2017/05/27/11:45:22.882590,112742,1495856722,882210016,0,111,454,608,355,209,121,68,75
2017/05/27/11:45:22.904798,112743,1495856722,904577016,0,106,528,579,326,198,123,69,72
2017/05/27/11:45:22.927475,112744,1495856722,927145957,0,111,543,509,296,187,117,69,75
2017/05/27/11:45:22.945450,112745,1495856722,945211887,0,113,557,539,305,181,106,67,74
2017/05/27/11:45:22.972352,112746,1495856722,972198963,0,108,532,543,308,168,97,63,68
2017/05/27/11:45:22.987328,112747,1495856722,987097978,0,102,500,468,277,164,91,73,73
2017/05/27/11:45:23.009822,112748,1495856723,9589910,0,102,442,461,264,167,90,72,74
2017/05/27/11:45:23.024915,112749,1495856723,24616956,0,91,465,403,253,187,98,69,73
2017/05/27/11:45:23.047457,112750,1495856723,47118902,0,89,448,366,250,206,103,69,74
2017/05/27/11:45:23.069774,112751,1495856723,69545984,0,92,458,396,257,193,112,66,73
2017/05/27/11:45:23.089471,112752,1495856723,89145898,0,89,465,373,241,172,106,47,61
2017/05/27/11:45:23.107307,112753,1495856723,107074975,0,99,427,349,226,174,103,44,60
2017/05/27/11:45:23.138188,112754,1495856723,137840986,0,105,385,356,235,181,96,50,62
2017/05/27/11:45:23.145168,112755,1495856723,144736051,0,101,400,377,225,171,107,52,65
2017/05/27/11:45:23.167256,112756,1495856723,167047977,0,108,408,342,212,188,95,55,63
2017/05/27/11:45:23.197960,112757,1495856723,197746992,0,110,427,354,210,198,90,53,58
2017/05/27/11:45:23.204867,112758,1495856723,204638004,0,98,411,331,210,194,90,56,54
2017/05/27/11:45:23.227326,112759,1495856723,227178096,0,102,398,348,211,184,108,50,52
2017/05/27/11:45:23.249955,112760,1495856723,249633073,0,106,385,332,231,230,102,46,49
2017/05/27/11:45:23.264805,112761,1495856723,264585018,0,106,376,352,243,217,98,45,50
2017/05/27/11:45:23.287296,112762,1495856723,287067890,0,110,382,373,286,222,108,57,61
2017/05/27/11:45:23.309910,112763,1495856723,309695005,0,152,498,410,303,242,117,59,61
2017/05/27/11:45:23.324734,112764,1495856723,324594020,0,154,524,414,303,232,97,58,60
2017/05/27/11:45:23.347443,112765,1495856723,347142934,0,154,531,407,301,200,94,60,61
2017/05/27/11:45:23.369756,112766,1495856723,369580984,0,151,561,377,285,208,115,62,58
2017/05/27/11:45:23.384898,112767,1495856723,384614944,0,148,542,374,263,210,119,54,50
2017/05/27/11:45:23.415589,112768,1495856723,415293931,0,108,451,345,231,182,121,55,71
2017/05/27/11:45:23.429728,112769,1495856723,429537057,0,100,395,310,219,182,122,56,72
2017/05/27/11:45:23.444911,112770,1495856723,444664001,0,101,389,305,193,158,115,52,74
2017/05/27/11:45:23.475476,112771,1495856723,475274085,0,111,319,313,209,152,99,51,76
2017/05/27/11:45:23.489841,112772,1495856723,489613056,0,104,272,328,198,142,92,54,76
2017/05/27/11:45:23.504747,112773,1495856723,504542112,0,95,251,321,201,148,83,53,61
2017/05/27/11:45:23.529002,112774,1495856723,528665065,0,98,268,344,213,139,80,53,62
2017/05/27/11:45:23.550060,112775,1495856723,549663066,0,107,311,347,220,144,82,56,65
2017/05/27/11:45:23.564982,112776,1495856723,564677000,0,88,305,335,208,139,76,57,64
2017/05/27/11:45:23.587364,112777,1495856723,587130069,0,98,320,272,198,206,74,60,69
2017/05/27/11:45:23.609911,112778,1495856723,609615087,0,102,347,272,223,210,74,56,65
2017/05/27/11:45:23.626325,112779,1495856723,626108884,0,101,360,298,200,211,77,57,62
2017/05/27/11:45:23.647335,112780,1495856723,647111892,0,91,374,299,193,216,75,54,57
2017/05/27/11:45:23.669830,112781,1495856723,669614076,0,97,400,308,194,243,71,52,63
2017/05/27/11:45:23.684758,112782,1495856723,684591054,0,88,406,303,186,193,63,43,58
2017/05/27/11:45:23.707583,112783,1495856723,707305908,0,98,399,356,191,198,66,45,63
2017/05/27/11:45:23.730118,112784,1495856723,729749917,0,118,472,320,203,211,79,43,65
2017/05/27/11:45:23.744752,112785,1495856723,744534969,0,122,491,344,212,292,86,48,74
2017/05/27/11:45:23.767279,112786,1495856723,767065048,0,133,493,418,268,276,91,47,73
2017/05/27/11:45:23.789773,112787,1495856723,789520025,0,140,480,438,284,288,97,52,77
2017/05/27/11:45:23.806479,112788,1495856723,806117057,0,136,492,388,256,277,92,53,77
2017/05/27/11:45:23.827375,112789,1495856723,827164888,0,115,500,403,259,271,83,57,75
2017/05/27/11:45:23.850052,112790,1495856723,849680900,0,106,430,393,271,183,76,53,66
2017/05/27/11:45:23.864808,112791,1495856723,864574909,0,108,547,324,216,186,76,53,67
2017/05/27/11:45:23.887264,112792,1495856723,887073993,0,117,553,308,202,161,79,53,64
2017/05/27/11:45:23.917983,112793,1495856723,917757987,0,115,552,345,219,185,84,49,59
2017/05/27/11:45:23.924806,112794,1495856723,924603939,0,115,487,330,214,190,88,54,61
2017/05/27/11:45:23.947318,112795,1495856723,947113990,0,118,520,328,180,194,94,57,58
2017/05/27/11:45:23.969945,112796,1495856723,969686985,0,104,469,367,221,224,93,59,55
2017/05/27/11:45:23.984839,112797,1495856723,984589099,0,83,463,360,214,218,88,58,52
2017/05/27/11:45:24.007248,112798,1495856724,7030010,0,83,495,319,207,210,84,56,51
2017/05/27/11:45:24.029787,112799,1495856724,29551982,0,80,475,317,207,224,91,52,49
2017/05/27/11:45:24.052362,112800,1495856724,52130937,0,79,486,301,230,232,90,54,59
2017/05/27/11:45:24.067431,112801,1495856724,67142963,0,77,404,257,187,200,94,49,55
2017/05/27/11:45:24.089883,112802,1495856724,89601039,0,116,466,282,187,204,95,44,54
2017/05/27/11:45:24.112357,112803,1495856724,112121105,0,116,410,271,176,210,100,46,54
2017/05/27/11:45:24.127325,112804,1495856724,127103090,0,119,402,249,191,218,99,44,55
2017/05/27/11:45:24.149865,112805,1495856724,149642944,0,122,370,237,167,206,97,39,44
2017/05/27/11:45:24.172412,112806,1495856724,172089099,0,119,404,229,172,199,89,46,47
2017/05/27/11:45:24.195852,112807,1495856724,195447921,0,85,327,195,179,265,105,51,48
2017/05/27/11:45:24.209803,112808,1495856724,209572076,0,85,392,194,185,271,116,57,49
2017/05/27/11:45:24.232408,112809,1495856724,232106924,0,91,442,199,177,268,121,60,46
2017/05/27/11:45:24.247448,112810,1495856724,247108936,0,103,460,222,206,276,121,60,47
2017/05/27/11:45:24.269951,112811,1495856724,269551992,0,106,421,192,229,325,130,66,53
2017/05/27/11:45:24.292625,112812,1495856724,292131900,0,104,426,200,227,280,117,62,52
2017/05/27/11:45:24.308746,112813,1495856724,308537006,0,100,359,198,219,273,110,57,52
2017/05/27/11:45:24.330230,112814,1495856724,329670906,0,96,312,186,212,292,100,57,53
2017/05/27/11:45:24.360543,112815,1495856724,360352039,0,82,258,171,182,298,106,58,53
2017/05/27/11:45:24.367261,112816,1495856724,367055892,0,77,292,186,152,270,112,51,45
2017/05/27/11:45:24.389756,112817,1495856724,389564990,0,78,299,176,151,264,116,54,44
2017/05/27/11:45:24.412255,112818,1495856724,412069082,0,94,304,170,145,268,113,55,41
2017/05/27/11:45:24.435142,112819,1495856724,434566020,0,88,321,174,134,250,116,52,37
2017/05/27/11:45:24.449779,112820,1495856724,449558973,0,84,324,184,140,292,120,52,39
2017/05/27/11:45:24.472617,112821,1495856724,472151041,0,89,335,201,133,267,110,48,38
2017/05/27/11:45:24.487387,112822,1495856724,487173080,0,88,319,205,123,278,103,45,38
2017/05/27/11:45:24.510137,112823,1495856724,509752035,0,72,318,213,124,279,104,48,40
2017/05/27/11:45:24.532357,112824,1495856724,532120943,0,69,282,206,131,295,98,45,39
2017/05/27/11:45:24.547276,112825,1495856724,547074079,0,65,302,201,122,239,94,46,35
2017/05/27/11:45:24.569816,112826,1495856724,569596052,0,65,253,177,123,253,91,48,37
2017/05/27/11:45:24.592296,112827,1495856724,592098951,0,65,270,166,125,248,96,50,39
2017/05/27/11:45:24.607560,112828,1495856724,607122898,0,69,280,168,146,257,100,47,37
2017/05/27/11:45:24.638137,112829,1495856724,637896060,0,76,292,177,138,208,110,50,38
2017/05/27/11:45:24.652414,112830,1495856724,652115106,0,78,267,207,181,217,108,56,41
2017/05/27/11:45:24.667331,112831,1495856724,667112112,0,76,321,214,195,235,112,60,43
2017/05/27/11:45:24.698049,112832,1495856724,697820901,0,73,320,213,192,231,108,59,39
2017/05/27/11:45:24.717453,112833,1495856724,717226028,0,72,299,201,174,214,96,59,40
2017/05/27/11:45:24.727326,112834,1495856724,727109909,0,64,298,196,177,222,81,56,40
2017/05/27/11:45:24.751493,112835,1495856724,751151084,0,70,322,154,135,207,89,58,47
2017/05/27/11:45:24.772269,112836,1495856724,772072076,0,80,288,129,104,174,95,54,47
2017/05/27/11:45:24.787401,112837,1495856724,787201881,0,81,271,127,102,165,95,57,50
2017/05/27/11:45:24.809986,112838,1495856724,809643983,0,79,280,136,110,149,97,54,48
2017/05/27/11:45:24.832421,112839,1495856724,832104921,0,83,276,142,123,175,100,55,49
2017/05/27/11:45:24.847530,112840,1495856724,847198009,0,79,246,123,115,187,90,49,44
2017/05/27/11:45:24.869779,112841,1495856724,869554042,0,67,205,119,120,186,79,42,52
2017/05/27/11:45:24.892424,112842,1495856724,892134904,0,66,193,122,121,185,87,46,52
2017/05/27/11:45:24.914931,112843,1495856724,914604902,0,75,290,128,122,184,93,47,53
2017/05/27/11:45:24.929808,112844,1495856724,929589033,0,73,303,137,107,182,93,45,51
2017/05/27/11:45:24.952305,112845,1495856724,952105045,0,71,299,137,109,175,97,45,49
2017/05/27/11:45:24.974883,112846,1495856724,974642992,0,71,315,139,101,167,92,45,40
2017/05/27/11:45:24.989868,112847,1495856724,989623069,0,73,337,134,106,168,90,43,42
2017/05/27/11:45:25.012535,112848,1495856725,12226104,0,69,248,158,137,168,83,44,41
2017/05/27/11:45:25.035149,112849,1495856725,34672021,0,65,243,143,139,158,77,43,43
2017/05/27/11:45:25.049732,112850,1495856725,49539089,0,64,241,153,145,157,72,41,43
2017/05/27/11:45:25.072511,112851,1495856725,72313070,0,64,229,160,154,154,84,41,40
2017/05/27/11:45:25.094957,112852,1495856725,94629049,0,64,243,192,176,177,89,42,39
2017/05/27/11:45:25.109792,112853,1495856725,109570980,0,57,235,169,166,188,89,41,40
2017/05/27/11:45:25.132388,112854,1495856725,132143974,0,55,213,195,178,200,90,41,40
2017/05/27/11:45:25.154760,112855,1495856725,154572010,0,53,219,193,180,207,90,43,43
2017/05/27/11:45:25.170009,112856,1495856725,169683933,0,48,277,180,175,212,83,42,39
2017/05/27/11:45:25.192390,112857,1495856725,192177057,0,46,238,154,147,210,72,39,38
2017/05/27/11:45:25.215567,112858,1495856725,215190887,0,51,254,163,123,212,72,38,35
2017/05/27/11:45:25.229981,112859,1495856725,229623079,0,60,308,137,92,187,74,39,35
2017/05/27/11:45:25.253745,112860,1495856725,253560066,0,72,314,133,79,182,76,38,32
2017/05/27/11:45:25.275237,112861,1495856725,274732112,0,71,267,145,87,185,77,39,32
2017/05/27/11:45:25.289954,112862,1495856725,289628982,0,77,287,149,91,167,85,40,31
2017/05/27/11:45:25.312376,112863,1495856725,312140941,0,75,275,138,95,151,91,39,32
2017/05/27/11:45:25.335146,112864,1495856725,334598064,0,77,235,150,112,166,87,36,32
2017/05/27/11:45:25.357292,112865,1495856725,357095003,0,66,236,154,113,185,81,37,32
2017/05/27/11:45:25.372250,112866,1495856725,372044086,0,68,221,151,113,195,89,35,32
2017/05/27/11:45:25.394801,112867,1495856725,394597053,0,60,194,143,120,200,82,32,30
2017/05/27/11:45:25.417668,112868,1495856725,417135953,0,60,197,151,125,207,72,32,30
2017/05/27/11:45:25.432316,112869,1495856725,432092905,0,51,220,136,110,213,75,35,27
2017/05/27/11:45:25.454779,112870,1495856725,454602956,0,51,214,141,114,199,77,32,26
2017/05/27/11:45:25.471298,112871,1495856725,471108913,0,56,257,151,111,203,87,37,27
2017/05/27/11:45:25.492341,112872,1495856725,492099046,0,65,324,169,116,197,95,39,28
2017/05/27/11:45:25.514805,112873,1495856725,514589071,0,60,317,174,142,190,96,41,30
2017/05/27/11:45:25.531397,112874,1495856725,531102895,0,57,291,185,143,172,93,42,31
2017/05/27/11:45:25.552255,112875,1495856725,552061080,0,60,304,180,137,153,95,43,31
2017/05/27/11:45:25.583102,112876,1495856725,582823991,0,55,290,169,136,175,85,38,30
2017/05/27/11:45:25.589761,112877,1495856725,589541912,0,42,215,152,126,189,80,37,29
2017/05/27/11:45:25.612351,112878,1495856725,612128019,0,47,240,137,96,218,81,37,27
2017/05/27/11:45:25.635055,112879,1495856725,634720087,0,45,226,116,119,255,91,43,29
2017/05/27/11:45:25.649700,112880,1495856725,649516105,0,37,188,114,122,266,88,49,29
2017/05/27/11:45:25.672464,112881,1495856725,672241926,0,46,167,136,119,241,79,49,31
2017/05/27/11:45:25.694829,112882,1495856725,694572925,0,55,247,160,129,239,76,49,33
2017/05/27/11:45:25.713236,112883,1495856725,713092088,0,52,228,158,125,218,78,50,34
2017/05/27/11:45:25.732283,112884,1495856725,732100009,0,55,249,154,107,181,68,42,32
2017/05/27/11:45:25.754874,112885,1495856725,754635095,0,56,249,147,100,181,65,36,34
2017/05/27/11:45:25.769906,112886,1495856725,769578933,0,46,250,127,98,187,63,37,33
2017/05/27/11:45:25.792391,112887,1495856725,792083978,0,43,197,99,81,178,64,39,33
2017/05/27/11:45:25.814856,112888,1495856725,814600944,0,42,203,98,73,199,69,40,35
2017/05/27/11:45:25.830063,112889,1495856725,829654932,0,39,188,96,77,202,69,42,35
2017/05/27/11:45:25.852367,112890,1495856725,852160930,0,38,182,99,89,187,68,42,32
2017/05/27/11:45:25.874838,112891,1495856725,874622106,0,41,205,94,100,206,82,44,34
2017/05/27/11:45:25.897390,112892,1495856725,897133111,0,40,200,82,104,235,81,42,30
2017/05/27/11:45:25.912519,112893,1495856725,912147045,0,42,190,74,108,226,79,40,29
2017/05/27/11:45:25.935054,112894,1495856725,934709072,0,45,180,79,104,214,77,39,29
2017/05/27/11:45:25.957314,112895,1495856725,957103013,0,49,185,103,99,229,88,48,37
2017/05/27/11:45:25.972285,112896,1495856725,972057104,0,60,141,109,103,217,75,46,37
2017/05/27/11:45:25.994767,112897,1495856725,994565010,0,69,161,110,99,197,75,45,39
2017/05/27/11:45:26.025687,112898,1495856726,25384902,0,78,175,120,95,186,79,45,40
2017/05/27/11:45:26.032603,112899,1495856726,32213926,0,84,175,122,101,228,86,45,44
2017/05/27/11:45:26.054802,112900,1495856726,54601907,0,85,181,151,131,222,84,40,43
2017/05/27/11:45:26.077277,112901,1495856726,77088117,0,84,188,152,126,212,84,41,41
2017/05/27/11:45:26.092432,112902,1495856726,92108964,0,76,142,151,124,214,81,41,40
2017/05/27/11:45:26.114927,112903,1495856726,114629983,0,68,122,142,123,207,73,39,36
2017/05/27/11:45:26.137456,112904,1495856726,137135028,0,58,115,139,119,183,66,37,32
2017/05/27/11:45:26.152235,112905,1495856726,152056932,0,56,100,110,103,181,55,33,33
2017/05/27/11:45:26.174695,112906,1495856726,174510955,0,50,106,134,112,173,57,37,39
2017/05/27/11:45:26.197365,112907,1495856726,197117090,0,49,124,140,124,178,69,44,45
2017/05/27/11:45:26.212302,112908,1495856726,212090015,0,44,124,139,125,178,68,43,45
2017/05/27/11:45:26.235125,112909,1495856726,234726905,0,47,126,138,122,171,67,44,45
2017/05/27/11:45:26.257339,112910,1495856726,257097005,0,52,136,117,105,166,69,44,44
2017/05/27/11:45:26.272429,112911,1495856726,272136926,0,65,161,85,88,172,69,40,44
2017/05/27/11:45:26.294801,112912,1495856726,294569015,0,69,157,73,76,144,56,34,42
2017/05/27/11:45:26.317310,112913,1495856726,317096948,0,71,169,94,92,161,58,39,47
2017/05/27/11:45:26.332373,112914,1495856726,332108974,0,72,168,93,93,156,60,43,52
2017/05/27/11:45:26.363064,112915,1495856726,362870931,0,66,160,110,106,161,60,43,51
2017/05/27/11:45:26.377352,112916,1495856726,377089023,0,55,124,114,113,217,59,42,49
2017/05/27/11:45:26.392341,112917,1495856726,392110109,0,56,132,114,108,227,66,42,48
2017/05/27/11:45:26.416319,112918,1495856726,416115045,0,57,122,102,99,219,64,40,44
2017/05/27/11:45:26.437429,112919,1495856726,437093019,0,56,130,103,98,216,65,39,39
2017/05/27/11:45:26.452249,112920,1495856726,452056884,0,66,133,101,95,226,64,38,42
2017/05/27/11:45:26.474884,112921,1495856726,474643945,0,75,138,97,124,176,68,44,64
2017/05/27/11:45:26.497323,112922,1495856726,497093915,0,70,118,96,133,200,59,43,63
2017/05/27/11:45:26.512365,112923,1495856726,512120008,0,69,112,98,148,195,57,41,65
2017/05/27/11:45:26.534818,112924,1495856726,534591913,0,80,113,104,156,189,58,39,67
2017/05/27/11:45:26.557289,112925,1495856726,557079076,0,115,183,155,176,194,62,42,72
2017/05/27/11:45:26.573596,112926,1495856726,573379993,0,118,191,162,200,210,59,48,75
2017/05/27/11:45:26.594927,112927,1495856726,594649076,0,135,292,174,209,175,60,50,80
2017/05/27/11:45:26.617303,112928,1495856726,617152929,0,142,341,242,228,186,71,57,89
2017/05/27/11:45:26.641361,112929,1495856726,641143083,0,169,419,281,258,227,80,68,111
2017/05/27/11:45:26.654815,112930,1495856726,654606103,0,191,507,318,264,224,83,71,128
2017/05/27/11:45:26.677379,112931,1495856726,677150964,0,198,541,326,251,200,83,66,122
2017/05/27/11:45:26.693763,112932,1495856726,693572044,0,202,553,363,252,206,83,66,124
2017/05/27/11:45:26.714795,112933,1495856726,714576005,0,203,547,326,236,201,77,64,117
2017/05/27/11:45:26.737306,112934,1495856726,737088918,0,183,510,301,209,165,75,54,95
2017/05/27/11:45:26.752309,112935,1495856726,752110004,0,138,407,238,182,138,66,46,65
2017/05/27/11:45:26.774966,112936,1495856726,774671077,0,124,370,224,152,134,60,42,58
2017/05/27/11:45:26.805515,112937,1495856726,805295944,0,105,323,157,140,117,57,39,45
2017/05/27/11:45:26.812253,112938,1495856726,812060117,0,97,317,152,119,99,52,33,43
2017/05/27/11:45:26.834811,112939,1495856726,834599971,0,86,298,131,98,61,33,28,40
2017/05/27/11:45:26.857337,112940,1495856726,857122898,0,78,290,113,86,56,32,27,35
2017/05/27/11:45:26.880016,112941,1495856726,879686117,0,67,269,101,78,54,29,26,28
2017/05/27/11:45:26.894808,112942,1495856726,894587993,0,63,227,78,61,57,30,26,28
2017/05/27/11:45:26.917219,112943,1495856726,917071104,0,56,205,68,50,63,37,120,87
2017/05/27/11:45:26.940122,112944,1495856726,939625978,0,53,188,64,38,58,36,126,92
2017/05/27/11:45:26.954775,112945,1495856726,954566955,0,53,183,66,42,53,37,129,94
2017/05/27/11:45:26.977277,112946,1495856726,977049112,0,58,210,67,40,52,38,132,96
2017/05/27/11:45:27.000019,112947,1495856726,999680995,0,58,189,59,44,46,39,133,96
2017/05/27/11:45:27.022313,112948,1495856727,22140026,0,55,160,51,43,34,29,64,51
2017/05/27/11:45:27.038681,112949,1495856727,38489103,0,58,157,47,44,34,28,51,43
2017/05/27/11:45:27.059858,112950,1495856727,59628009,0,60,187,136,116,59,33,44,37
2017/05/27/11:45:27.082272,112951,1495856727,82082986,0,52,167,146,125,65,36,38,35
2017/05/27/11:45:27.097209,112952,1495856727,97023963,0,45,170,148,124,65,35,36,34
2017/05/27/11:45:27.124694,112953,1495856727,124516963,0,44,180,151,126,63,34,31,30
2017/05/27/11:45:27.136282,112954,1495856727,136137962,0,45,183,189,145,68,37,32,30
2017/05/27/11:45:27.157401,112955,1495856727,157129049,0,43,146,193,151,62,35,29,31
2017/05/27/11:45:27.179783,112956,1495856727,179589986,0,42,131,196,154,60,35,29,32
2017/05/27/11:45:27.194754,112957,1495856727,194561958,0,45,123,198,158,60,36,29,30
2017/05/27/11:45:27.217468,112958,1495856727,217124938,0,47,125,218,162,62,36,30,31
2017/05/27/11:45:27.239784,112959,1495856727,239604949,0,45,118,207,162,60,33,28,29
2017/05/27/11:45:27.254735,112960,1495856727,254569053,0,93,128,170,132,54,28,29,38
2017/05/27/11:45:27.277296,112961,1495856727,277095079,0,96,134,164,126,50,24,27,38
2017/05/27/11:45:27.299853,112962,1495856727,299607992,0,102,151,216,151,54,25,26,39
2017/05/27/11:45:27.314832,112963,1495856727,314630031,0,103,140,220,166,63,35,31,44
2017/05/27/11:45:27.337502,112964,1495856727,337045907,0,106,156,241,164,66,42,34,45
2017/05/27/11:45:27.359869,112965,1495856727,359561920,0,84,181,269,165,64,45,33,40
2017/05/27/11:45:27.374778,112966,1495856727,374578952,0,141,203,273,162,68,47,34,41
2017/05/27/11:45:27.397334,112967,1495856727,397097110,0,143,196,259,165,79,58,45,52
2017/05/27/11:45:27.419817,112968,1495856727,419637918,0,145,199,254,154,75,53,44,48
2017/05/27/11:45:27.435138,112969,1495856727,434582948,0,146,184,258,149,71,49,42,50
2017/05/27/11:45:27.457261,112970,1495856727,457082033,0,153,160,261,173,70,49,43,53
2017/05/27/11:45:27.487991,112971,1495856727,487787008,0,107,150,270,180,70,50,44,56
2017/05/27/11:45:27.494771,112972,1495856727,494566917,0,106,159,257,169,57,38,33,50
2017/05/27/11:45:27.525458,112973,1495856727,525298118,0,119,157,259,182,54,35,30,52
2017/05/27/11:45:27.539827,112974,1495856727,539616107,0,136,153,225,179,57,36,35,53
2017/05/27/11:45:27.554778,112975,1495856727,554582118,0,134,156,195,163,56,37,34,51
2017/05/27/11:45:27.578710,112976,1495856727,578541040,0,168,167,196,164,54,34,31,49
2017/05/27/11:45:27.600139,112977,1495856727,599745035,0,167,163,188,154,51,34,32,46
2017/05/27/11:45:27.614715,112978,1495856727,614557027,0,169,170,166,131,49,36,32,44
2017/05/27/11:45:27.637549,112979,1495856727,637094020,0,168,175,175,156,58,37,26,41
2017/05/27/11:45:27.659841,112980,1495856727,659609079,0,159,162,174,148,58,40,30,38
2017/05/27/11:45:27.674751,112981,1495856727,674544095,0,123,128,160,141,59,43,33,35
2017/05/27/11:45:27.697497,112982,1495856727,697082996,0,126,123,155,134,60,42,34,48
2017/05/27/11:45:27.728094,112983,1495856727,727852106,0,119,127,169,153,69,44,34,49
2017/05/27/11:45:27.735276,112984,1495856727,734643936,0,103,133,211,162,69,47,43,64
2017/05/27/11:45:27.757417,112985,1495856727,757083892,0,111,132,202,164,69,44,42,67
2017/05/27/11:45:27.779792,112986,1495856727,779573917,0,125,127,194,161,69,42,41,68
2017/05/27/11:45:27.802409,112987,1495856727,802103042,0,119,122,203,164,68,42,40,58
2017/05/27/11:45:27.817527,112988,1495856727,817157030,0,110,104,194,147,58,41,40,58
2017/05/27/11:45:27.839766,112989,1495856727,839543104,0,107,89,149,112,50,35,29,39
2017/05/27/11:45:27.862286,112990,1495856727,862071037,0,94,93,165,127,53,32,25,33
2017/05/27/11:45:27.877252,112991,1495856727,877063035,0,176,116,164,128,49,31,23,39
2017/05/27/11:45:27.899795,112992,1495856727,899568080,0,183,107,148,126,46,28,22,42
2017/05/27/11:45:27.922476,112993,1495856727,922192096,0,183,113,143,129,48,26,21,40
2017/05/27/11:45:27.937517,112994,1495856727,937055110,0,188,152,174,137,56,35,26,42
2017/05/27/11:45:27.968019,112995,1495856727,967787027,0,191,174,164,111,54,36,28,44
2017/05/27/11:45:27.982248,112996,1495856727,982057094,0,108,179,163,108,52,35,29,38
2017/05/27/11:45:27.997343,112997,1495856727,997093915,0,150,200,163,104,54,36,30,39
2017/05/27/11:45:28.019753,112998,1495856728,19581079,0,155,211,176,104,56,39,35,42
2017/05/27/11:45:28.042254,112999,1495856728,42097091,0,151,196,152,96,49,31,33,42
2017/05/27/11:45:28.057373,113000,1495856728,57132005,0,150,200,141,94,48,30,33,41
2017/05/27/11:45:28.081381,113001,1495856728,81073999,0,143,182,141,94,47,30,33,40
2017/05/27/11:45:28.102328,113002,1495856728,102118015,0,79,164,160,100,45,30,31,37
2017/05/27/11:45:28.117363,113003,1495856728,117084026,0,65,150,144,95,45,28,28,34
2017/05/27/11:45:28.139914,113004,1495856728,139590978,0,56,137,131,99,49,28,26,29
2017/05/27/11:45:28.162288,113005,1495856728,162064075,0,45,101,132,101,50,32,30,32
2017/05/27/11:45:28.177383,113006,1495856728,177123069,0,40,99,134,104,52,35,32,34
2017/05/27/11:45:28.199915,113007,1495856728,199635982,0,34,92,113,98,54,35,33,33
2017/05/27/11:45:28.222357,113008,1495856728,222115039,0,31,82,115,99,51,33,32,33
2017/05/27/11:45:28.237598,113009,1495856728,237140893,0,34,79,123,101,42,32,32,37
2017/05/27/11:45:28.259777,113010,1495856728,259568929,0,34,77,118,98,41,26,27,34
2017/05/27/11:45:28.282384,113011,1495856728,282104969,0,31,82,118,96,37,23,25,31
2017/05/27/11:45:28.297311,113012,1495856728,297068119,0,31,95,127,101,37,23,25,31
2017/05/27/11:45:28.321373,113013,1495856728,321146011,0,33,93,133,99,36,23,26,32
2017/05/27/11:45:28.342431,113014,1495856728,342150926,0,29,84,102,68,33,20,24,27
2017/05/27/11:45:28.357367,113015,1495856728,357094049,0,35,86,106,74,39,29,25,29
2017/05/27/11:45:28.379844,113016,1495856728,379597902,0,35,85,111,94,47,32,26,32
2017/05/27/11:45:28.410513,113017,1495856728,410315036,0,34,73,99,93,47,34,27,32
2017/05/27/11:45:28.417281,113018,1495856728,417074918,0,33,71,92,95,48,35,25,29
2017/05/27/11:45:28.439750,113019,1495856728,439583063,0,35,86,108,103,51,37,27,31
2017/05/27/11:45:28.462311,113020,1495856728,462112903,0,29,81,121,99,47,31,26,28
2017/05/27/11:45:28.477333,113021,1495856728,477075099,0,27,77,113,78,41,27,23,24
2017/05/27/11:45:28.499857,113022,1495856728,499593019,0,28,75,112,70,38,24,23,23
2017/05/27/11:45:28.522481,113023,1495856728,522196054,0,28,72,108,65,36,24,23,26
2017/05/27/11:45:28.537493,113024,1495856728,537154912,0,26,60,111,89,43,25,22,25
2017/05/27/11:45:28.559878,113025,1495856728,559568881,0,26,59,89,83,42,25,21,26
2017/05/27/11:45:28.582274,113026,1495856728,582041025,0,27,57,94,87,43,26,21,25
2017/05/27/11:45:28.597198,113027,1495856728,597032070,0,26,56,95,89,43,27,21,25
2017/05/27/11:45:28.620022,113028,1495856728,619638919,0,26,55,93,88,42,26,21,22
2017/05/27/11:45:28.642257,113029,1495856728,642081975,0,26,46,68,48,29,22,22,21
2017/05/27/11:45:28.657328,113030,1495856728,657114028,0,24,50,66,46,26,20,22,20
2017/05/27/11:45:28.679729,113031,1495856728,679553031,0,24,52,52,37,23,19,22,21
2017/05/27/11:45:28.702214,113032,1495856728,702059030,0,23,47,43,31,21,17,22,24
2017/05/27/11:45:28.717510,113033,1495856728,717170953,0,23,47,42,31,23,18,23,24
2017/05/27/11:45:28.739809,113034,1495856728,739636898,0,23,45,39,28,23,21,21,24
2017/05/27/11:45:28.762382,113035,1495856728,762140035,0,23,45,39,28,24,22,22,24
2017/05/27/11:45:28.784745,113036,1495856728,784555912,0,20,39,36,27,24,24,23,23
2017/05/27/11:45:28.799798,113037,1495856728,799629926,0,21,39,36,29,26,26,24,23
2017/05/27/11:45:28.822289,113038,1495856728,822077989,0,19,36,35,27,26,27,25,22
2017/05/27/11:45:28.844847,113039,1495856728,844614028,0,19,36,28,28,27,26,24,22
2017/05/27/11:45:28.859937,113040,1495856728,859580039,0,20,26,27,27,26,27,23,22
2017/05/27/11:45:28.882235,113041,1495856728,882018089,0,22,25,29,25,25,24,22,22
2017/05/27/11:45:28.904723,113042,1495856728,904540061,0,21,26,28,22,23,22,22,20
2017/05/27/11:45:28.919827,113043,1495856728,919545888,0,21,27,26,24,23,24,21,19
2017/05/27/11:45:28.942403,113044,1495856728,942127943,0,20,26,27,22,22,24,22,20
2017/05/27/11:45:28.964922,113045,1495856728,964554071,0,19,25,26,23,21,22,23,21
2017/05/27/11:45:28.979743,113046,1495856728,979537963,0,17,25,25,22,21,23,23,20
2017/05/27/11:45:29.002330,113047,1495856729,2099037,0,18,23,22,22,22,28,21,21
2017/05/27/11:45:29.024872,113048,1495856729,24576902,0,21,24,23,21,20,26,20,20
2017/05/27/11:45:29.039780,113049,1495856729,39555072,0,20,23,22,20,20,25,21,19
2017/05/27/11:45:29.062335,113050,1495856729,62105894,0,21,22,24,21,22,26,21,19
2017/05/27/11:45:29.084777,113051,1495856729,84564924,0,21,22,22,20,22,26,21,19
2017/05/27/11:45:29.099870,113052,1495856729,99654912,0,20,22,24,22,25,29,23,19
2017/05/27/11:45:29.122294,113053,1495856729,122081041,0,18,20,24,24,25,27,23,20
2017/05/27/11:45:29.144789,113054,1495856729,144577980,0,18,20,24,24,25,28,21,20
2017/05/27/11:45:29.159777,113055,1495856729,159563064,0,19,21,22,23,25,29,26,19
2017/05/27/11:45:29.182371,113056,1495856729,182087898,0,20,20,23,23,26,32,27,19
2017/05/27/11:45:29.204794,113057,1495856729,204559087,0,20,21,21,21,22,25,28,19
2017/05/27/11:45:29.219926,113058,1495856729,219625949,0,19,19,21,18,22,26,27,18
2017/05/27/11:45:29.242240,113059,1495856729,242008924,0,20,20,21,16,26,26,29,18
2017/05/27/11:45:29.264779,113060,1495856729,264545917,0,19,19,21,15,24,25,25,19
2017/05/27/11:45:29.279949,113061,1495856729,279633045,0,18,20,20,15,25,28,25,19
2017/05/27/11:45:29.302273,113062,1495856729,302067041,0,16,21,21,16,25,29,24,18
2017/05/27/11:45:29.328178,113063,1495856729,327824115,0,16,21,22,18,25,29,23,18
2017/05/27/11:45:29.339848,113064,1495856729,339570999,0,19,20,22,20,25,28,21,17
2017/05/27/11:45:29.362289,113065,1495856729,362078905,0,18,19,20,21,26,28,19,19
2017/05/27/11:45:29.384896,113066,1495856729,384619951,0,20,20,20,20,25,22,19,21
2017/05/27/11:45:29.399899,113067,1495856729,399652957,0,20,17,20,22,25,26,23,21
2017/05/27/11:45:29.424770,113068,1495856729,422094106,0,19,19,21,21,26,25,23,21
2017/05/27/11:45:29.444923,113069,1495856729,444628000,0,19,19,20,20,22,25,24,22
2017/05/27/11:45:29.459831,113070,1495856729,459573030,0,21,21,20,19,22,25,24,21
2017/05/27/11:45:29.482396,113071,1495856729,482105016,0,20,21,21,19,25,25,26,19
2017/05/27/11:45:29.505059,113072,1495856729,504667043,0,21,22,23,17,26,23,22,19
2017/05/27/11:45:29.519772,113073,1495856729,519530057,0,22,21,21,19,26,26,25,20
2017/05/27/11:45:29.542496,113074,1495856729,542123079,0,20,22,21,18,26,27,25,20
2017/05/27/11:45:29.564792,113075,1495856729,564558029,0,19,21,21,20,26,26,27,19
2017/05/27/11:45:29.587460,113076,1495856729,587100028,0,20,21,22,21,23,26,24,20
2017/05/27/11:45:29.603840,113077,1495856729,603568077,0,18,20,20,21,23,24,24,21
2017/05/27/11:45:29.624781,113078,1495856729,624562025,0,19,20,19,22,19,24,24,20
2017/05/27/11:45:29.647443,113079,1495856729,647190093,0,18,19,19,22,23,24,23,20
2017/05/27/11:45:29.663807,113080,1495856729,663528919,0,20,18,21,22,23,23,21,21
2017/05/27/11:45:29.684726,113081,1495856729,684504985,0,21,18,21,23,23,26,23,20
2017/05/27/11:45:29.707271,113082,1495856729,707052946,0,21,19,23,24,23,25,24,20
2017/05/27/11:45:29.723715,113083,1495856729,723519086,0,19,20,24,23,26,25,24,21
2017/05/27/11:45:29.746305,113084,1495856729,746051073,0,19,20,23,25,25,24,24,21
2017/05/27/11:45:29.767331,113085,1495856729,767091989,0,19,20,21,24,25,23,25,22
2017/05/27/11:45:29.783695,113086,1495856729,783482074,0,16,21,21,23,27,24,25,23
2017/05/27/11:45:29.805089,113087,1495856729,804738044,0,18,20,22,22,27,22,24,24
2017/05/27/11:45:29.827292,113088,1495856729,827063083,0,19,19,22,21,25,23,21,22
2017/05/27/11:45:29.843835,113089,1495856729,843553066,0,20,21,23,18,24,26,22,22
2017/05/27/11:45:29.865059,113090,1495856729,864718914,0,18,20,23,18,24,27,23,21
2017/05/27/11:45:29.887302,113091,1495856729,887015104,0,20,21,24,18,23,27,22,19
2017/05/27/11:45:29.903790,113092,1495856729,903588056,0,18,20,24,17,22,27,22,18
2017/05/27/11:45:29.924782,113093,1495856729,924563884,0,19,22,24,17,23,30,23,19
2017/05/27/11:45:29.947247,113094,1495856729,947067022,0,16,19,23,17,25,30,23,18
2017/05/27/11:45:29.963809,113095,1495856729,963514089,0,16,20,23,17,25,30,24,19
2017/05/27/11:45:29.984885,113096,1495856729,984603881,0,15,20,22,17,23,29,25,20
2017/05/27/11:45:30.007276,113097,1495856730,7066965,0,15,20,20,21,24,30,25,20
2017/05/27/11:45:30.024259,113098,1495856730,24010896,0,13,19,20,22,25,32,26,20
2017/05/27/11:45:30.044791,113099,1495856730,44552087,0,16,20,23,23,25,34,23,19
2017/05/27/11:45:30.067283,113100,1495856730,67087888,0,17,18,22,23,27,33,23,19
2017/05/27/11:45:30.083896,113101,1495856730,83530902,0,17,18,21,23,27,34,24,19
2017/05/27/11:45:30.104795,113102,1495856730,104518890,0,18,18,22,19,27,33,25,19
2017/05/27/11:45:30.134932,113103,1495856730,134663105,0,18,17,22,22,25,27,25,20
2017/05/27/11:45:30.143751,113104,1495856730,143495082,0,15,18,19,24,24,22,26,20
2017/05/27/11:45:30.173886,113105,1495856730,173551082,0,16,19,21,24,24,26,23,17
2017/05/27/11:45:30.188757,113106,1495856730,188513994,0,16,21,21,24,23,27,25,19
2017/05/27/11:45:30.203737,113107,1495856730,203521966,0,17,21,22,24,23,29,24,19
2017/05/27/11:45:30.226265,113108,1495856730,226023912,0,17,22,21,23,22,30,25,19
2017/05/27/11:45:30.248763,113109,1495856730,248513936,0,18,21,22,22,20,30,25,19
2017/05/27/11:45:30.263819,113110,1495856730,263541936,0,18,21,22,23,20,32,26,21
2017/05/27/11:45:30.286232,113111,1495856730,285993099,0,18,19,21,22,21,32,23,20
2017/05/27/11:45:30.307288,113112,1495856730,307080030,0,17,21,20,24,21,32,25,19
2017/05/27/11:45:30.323846,113113,1495856730,323522090,0,17,23,21,22,22,30,24,17
2017/05/27/11:45:30.346209,113114,1495856730,346007108,0,19,23,20,21,23,29,24,17
2017/05/27/11:45:30.367414,113115,1495856730,367168903,0,20,22,19,20,22,27,25,16
2017/05/27/11:45:30.389799,113116,1495856730,389575958,0,20,22,20,21,26,31,24,15
2017/05/27/11:45:30.413820,113117,1495856730,413527965,0,19,21,20,20,26,29,20,16
2017/05/27/11:45:30.427350,113118,1495856730,427068948,0,20,18,20,21,26,30,21,16
2017/05/27/11:45:30.449725,113119,1495856730,449506044,0,17,20,23,19,26,31,25,18
2017/05/27/11:45:30.474297,113120,1495856730,473946094,0,17,22,23,19,31,33,26,17
2017/05/27/11:45:30.487273,113121,1495856730,487046003,0,17,23,22,19,27,28,27,18
2017/05/27/11:45:30.509823,113122,1495856730,509556055,0,17,23,22,18,26,28,28,18
2017/05/27/11:45:30.526267,113123,1495856730,526010036,0,18,22,22,18,26,29,27,18
2017/05/27/11:45:30.547295,113124,1495856730,547020912,0,18,20,20,20,26,32,25,17
2017/05/27/11:45:30.569789,113125,1495856730,569525957,0,19,19,22,22,20,28,23,17
2017/05/27/11:45:30.586256,113126,1495856730,586023092,0,21,18,22,21,20,29,24,17
2017/05/27/11:45:30.607547,113127,1495856730,607192039,0,21,16,24,22,22,30,23,17
2017/05/27/11:45:30.630028,113128,1495856730,629636049,0,21,16,22,21,22,32,25,17
2017/05/27/11:45:30.646925,113129,1495856730,646624088,0,21,17,23,20,22,28,24,18
2017/05/27/11:45:30.667289,113130,1495856730,667041063,0,21,17,21,19,22,29,23,16
2017/05/27/11:45:30.689822,113131,1495856730,689562082,0,20,17,22,19,24,30,22,18
2017/05/27/11:45:30.706429,113132,1495856730,706088066,0,21,17,19,19,23,31,22,18
2017/05/27/11:45:30.727540,113133,1495856730,727097988,0,21,19,18,20,25,31,23,18
2017/05/27/11:45:30.749984,113134,1495856730,749624967,0,19,19,18,22,25,31,23,17
2017/05/27/11:45:30.766233,113135,1495856730,766019105,0,18,20,18,22,24,30,22,19
2017/05/27/11:45:30.787265,113136,1495856730,787043094,0,17,22,19,22,26,32,21,20
2017/05/27/11:45:30.809804,113137,1495856730,809564113,0,16,22,20,24,26,29,24,20
2017/05/27/11:45:30.826365,113138,1495856730,826030015,0,17,21,21,23,24,25,21,19
2017/05/27/11:45:30.854877,113139,1495856730,854584932,0,19,21,23,21,24,29,22,20
2017/05/27/11:45:30.869707,113140,1495856730,869501113,0,19,21,22,21,27,33,26,20
2017/05/27/11:45:30.886217,113141,1495856730,886013031,0,18,20,20,23,24,31,26,18
2017/05/27/11:45:30.907362,113142,1495856730,907046079,0,18,18,19,21,24,31,24,19
2017/05/27/11:45:30.930132,113143,1495856730,929629087,0,17,21,19,21,26,32,26,22
2017/05/27/11:45:30.946208,113144,1495856730,945997953,0,17,22,19,21,25,31,25,22
2017/05/27/11:45:30.968731,113145,1495856730,968513011,0,19,20,21,20,22,31,24,21
2017/05/27/11:45:30.989777,113146,1495856730,989554882,0,19,21,23,18,22,30,23,24
2017/05/27/11:45:31.006233,113147,1495856731,6035089,0,19,23,22,18,21,30,23,23
2017/05/27/11:45:31.027452,113148,1495856731,27131080,0,19,20,23,19,26,35,25,21
2017/05/27/11:45:31.049719,113149,1495856731,49534082,0,20,21,23,17,27,32,24,21
2017/05/27/11:45:31.066213,113150,1495856731,66025018,0,18,23,21,18,28,29,23,21
2017/05/27/11:45:31.087379,113151,1495856731,87150096,0,18,21,21,18,29,28,24,18
2017/05/27/11:45:31.110035,113152,1495856731,109679937,0,17,20,22,18,29,28,24,21
2017/05/27/11:45:31.132267,113153,1495856731,132038116,0,17,22,22,19,24,24,20,21
2017/05/27/11:45:31.147277,113154,1495856731,147062063,0,16,22,20,20,23,25,20,21
2017/05/27/11:45:31.169748,113155,1495856731,169545888,0,16,20,20,22,25,25,21,20
2017/05/27/11:45:31.194323,113156,1495856731,194015979,0,17,21,21,22,23,26,21,21
2017/05/27/11:45:31.207248,113157,1495856731,207036972,0,16,22,21,23,23,27,22,18
2017/05/27/11:45:31.229703,113158,1495856731,229501008,0,17,21,22,22,23,28,22,18
2017/05/27/11:45:31.246243,113159,1495856731,246015071,0,17,20,23,23,22,27,22,16
2017/05/27/11:45:31.267435,113160,1495856731,267102003,0,19,20,23,21,19,26,21,16
2017/05/27/11:45:31.289778,113161,1495856731,289542913,0,18,19,21,23,20,26,22,16
2017/05/27/11:45:31.306223,113162,1495856731,306056976,0,19,20,21,23,20,24,21,17
2017/05/27/11:45:31.327409,113163,1495856731,327085018,0,19,21,21,22,17,20,23,18
2017/05/27/11:45:31.349751,113164,1495856731,349519014,0,21,20,19,23,18,23,24,19
2017/05/27/11:45:31.366201,113165,1495856731,365982055,0,19,21,19,23,20,25,24,19
2017/05/27/11:45:31.387291,113166,1495856731,387042999,0,21,19,21,25,20,24,22,19
2017/05/27/11:45:31.409716,113167,1495856731,409493923,0,21,21,20,26,19,26,23,20
2017/05/27/11:45:31.426258,113168,1495856731,425988912,0,21,19,19,26,20,26,22,19
2017/05/27/11:45:31.448802,113169,1495856731,448534965,0,18,21,22,23,20,23,22,18
2017/05/27/11:45:31.469826,113170,1495856731,469561100,0,18,21,21,23,25,24,24,19
2017/05/27/11:45:31.486273,113171,1495856731,486047029,0,17,20,20,19,24,27,28,19
2017/05/27/11:45:31.508959,113172,1495856731,508517026,0,17,18,20,19,26,27,27,18
2017/05/27/11:45:31.529844,113173,1495856731,529536962,0,17,19,21,20,26,27,26,19
2017/05/27/11:45:31.552229,113174,1495856731,552015066,0,16,18,20,20,27,27,26,19
2017/05/27/11:45:31.576249,113175,1495856731,576040983,0,18,20,23,20,21,24,23,19
2017/05/27/11:45:31.589778,113176,1495856731,589559078,0,17,20,23,20,23,22,19,21
2017/05/27/11:45:31.612455,113177,1495856731,612082004,0,19,20,24,20,26,31,21,23
2017/05/27/11:45:31.628681,113178,1495856731,628483057,0,19,20,24,20,26,31,22,22
2017/05/27/11:45:31.649737,113179,1495856731,649559020,0,20,20,22,21,28,32,21,22
2017/05/27/11:45:31.672172,113180,1495856731,672023057,0,19,19,19,22,28,31,21,21
2017/05/27/11:45:31.688719,113181,1495856731,688529014,0,20,22,19,21,29,31,20,19
2017/05/27/11:45:31.710023,113182,1495856731,709673881,0,19,22,20,22,25,21,20,19
2017/05/27/11:45:31.739776,113183,1495856731,739535093,0,18,22,19,23,24,20,19,19
2017/05/27/11:45:31.748886,113184,1495856731,748512029,0,19,21,21,23,24,22,20,18
2017/05/27/11:45:31.769732,113185,1495856731,769517898,0,18,22,24,24,24,24,21,20
2017/05/27/11:45:31.792385,113186,1495856731,792139053,0,17,20,23,24,23,23,21,21
2017/05/27/11:45:31.808819,113187,1495856731,808530092,0,19,20,22,23,21,23,21,18
2017/05/27/11:45:31.829742,113188,1495856731,829530000,0,20,19,23,24,23,27,25,19
2017/05/27/11:45:31.852364,113189,1495856731,852091073,0,19,22,25,22,21,25,25,19
2017/05/27/11:45:31.868680,113190,1495856731,868509054,0,18,21,22,21,22,24,26,18
2017/05/27/11:45:31.889779,113191,1495856731,889534950,0,18,21,21,20,21,23,26,16
2017/05/27/11:45:31.912287,113192,1495856731,912059068,0,18,21,23,19,23,23,25,18
2017/05/27/11:45:31.928708,113193,1495856731,928488969,0,17,23,25,17,21,20,21,20
2017/05/27/11:45:31.949730,113194,1495856731,949512958,0,17,21,22,18,21,19,21,20
2017/05/27/11:45:31.973602,113195,1495856731,973314046,0,18,22,23,19,21,18,20,21
2017/05/27/11:45:31.988714,113196,1495856731,988470077,0,20,21,24,21,25,21,20,22
2017/05/27/11:45:32.009789,113197,1495856732,9562969,0,19,22,23,21,24,22,22,22
2017/05/27/11:45:32.032478,113198,1495856732,32123088,0,20,20,21,21,24,22,23,21
2017/05/27/11:45:32.048706,113199,1495856732,48464059,0,20,20,23,22,24,22,22,20
2017/05/27/11:45:32.070306,113200,1495856732,70158958,0,20,20,22,22,24,22,21,20
2017/05/27/11:45:32.092764,113201,1495856732,92283964,0,18,20,21,20,23,20,22,18
2017/05/27/11:45:32.108709,113202,1495856732,108571052,0,18,21,21,25,23,21,19,18
2017/05/27/11:45:32.130008,113203,1495856732,129678010,0,17,21,22,23,23,20,20,17
2017/05/27/11:45:32.152324,113204,1495856732,152110099,0,17,22,21,23,24,23,21,18
2017/05/27/11:45:32.168812,113205,1495856732,168520927,0,16,22,21,21,25,25,23,18
2017/05/27/11:45:32.189777,113206,1495856732,189532041,0,16,22,22,22,25,33,25,19
2017/05/27/11:45:32.212249,113207,1495856732,212038993,0,17,22,21,18,26,33,26,18
2017/05/27/11:45:32.228863,113208,1495856732,228554964,0,18,20,22,20,26,35,25,18
2017/05/27/11:45:32.249771,113209,1495856732,249520063,0,19,20,22,20,27,34,25,17
2017/05/27/11:45:32.272506,113210,1495856732,272156000,0,18,19,23,20,26,34,25,17
2017/05/27/11:45:32.288781,113211,1495856732,288522958,0,18,20,21,21,24,28,23,17
2017/05/27/11:45:32.309739,113212,1495856732,309533119,0,18,19,21,21,24,28,23,18
2017/05/27/11:45:32.332363,113213,1495856732,332070112,0,16,20,20,20,23,26,23,22
2017/05/27/11:45:32.356256,113214,1495856732,356024980,0,17,22,20,20,22,25,23,22
2017/05/27/11:45:32.370171,113215,1495856732,369875907,0,17,23,19,22,21,25,24,22
