time,.header.seq,.header.stamp.secs,.header.stamp.nsecs,.header.frame_id,.ch0,.ch1,.ch2,.ch3,.ch4,.ch5,.ch6,.ch7
2017/05/27/11:49:27.869285,124949,1495856967,869075059,0,264,446,304,246,172,158,151,122
2017/05/27/11:49:27.890546,124950,1495856967,890386104,0,249,443,321,244,175,159,151,119
2017/05/27/11:49:27.913222,124951,1495856967,912956953,0,184,404,291,226,180,162,150,112
2017/05/27/11:49:27.928326,124952,1495856967,927920103,0,175,444,306,238,197,168,150,108
2017/05/27/11:49:27.950550,124953,1495856967,950368881,0,158,416,368,266,176,146,137,104
2017/05/27/11:49:27.974422,124954,1495856967,973864078,0,135,457,366,269,191,165,133,91
2017/05/27/11:49:27.988977,124955,1495856967,988786935,0,148,490,349,254,188,166,132,91
2017/05/27/11:49:28.010668,124956,1495856968,10416030,0,165,572,356,259,175,157,130,93
2017/05/27/11:49:28.033091,124957,1495856968,32892942,0,164,582,369,262,163,147,125,96
2017/05/27/11:49:28.048013,124958,1495856968,47884941,0,180,559,300,217,166,143,121,92
2017/05/27/11:49:28.070560,124959,1495856968,70389032,0,214,516,288,196,159,120,91,77
2017/05/27/11:49:28.093044,124960,1495856968,92870950,0,223,553,270,190,155,122,82,71
2017/05/27/11:49:28.108367,124961,1495856968,107942104,0,229,515,337,230,157,119,76,67
2017/05/27/11:49:28.130584,124962,1495856968,130393028,0,234,499,307,225,153,114,73,60
2017/05/27/11:49:28.153153,124963,1495856968,152915954,0,226,517,317,234,154,125,81,62
2017/05/27/11:49:28.169528,124964,1495856968,169358968,0,254,536,388,257,140,115,69,53
2017/05/27/11:49:28.190660,124965,1495856968,190402984,0,271,508,387,259,138,115,73,60
2017/05/27/11:49:28.213495,124966,1495856968,212996006,0,286,560,375,292,150,120,82,72
2017/05/27/11:49:28.228144,124967,1495856968,227972030,0,282,542,473,336,155,119,80,71
2017/05/27/11:49:28.250589,124968,1495856968,250421047,0,322,612,508,340,151,113,76,78
2017/05/27/11:49:28.273091,124969,1495856968,272891044,0,357,570,467,325,149,114,80,81
2017/05/27/11:49:28.288154,124970,1495856968,287889957,0,339,519,478,329,155,109,80,79
2017/05/27/11:49:28.310565,124971,1495856968,310384988,0,331,458,490,336,152,107,73,73
2017/05/27/11:49:28.333097,124972,1495856968,332895040,0,333,457,425,297,141,114,75,74
2017/05/27/11:49:28.355603,124973,1495856968,355395078,0,315,388,408,289,145,111,69,64
2017/05/27/11:49:28.370601,124974,1495856968,370392084,0,236,387,399,282,134,96,62,64
2017/05/27/11:49:28.393075,124975,1495856968,392916917,0,265,428,406,294,129,93,70,71
2017/05/27/11:49:28.415967,124976,1495856968,415553092,0,263,445,372,232,109,83,72,73
2017/05/27/11:49:28.430886,124977,1495856968,430543899,0,277,485,420,294,138,97,78,77
2017/05/27/11:49:28.453201,124978,1495856968,452929973,0,262,419,384,288,123,95,77,77
2017/05/27/11:49:28.475537,124979,1495856968,475356101,0,240,467,412,308,127,98,79,75
2017/05/27/11:49:28.490630,124980,1495856968,490391016,0,216,450,457,316,131,101,68,68
2017/05/27/11:49:28.513133,124981,1495856968,512876987,0,241,393,434,309,131,101,62,66
2017/05/27/11:49:28.535747,124982,1495856968,535501956,0,269,378,383,263,101,82,75,82
2017/05/27/11:49:28.550786,124983,1495856968,550498008,0,268,406,437,292,122,93,77,81
2017/05/27/11:49:28.573185,124984,1495856968,572927951,0,272,436,479,324,141,99,85,85
2017/05/27/11:49:28.595836,124985,1495856968,595483064,0,267,432,436,312,145,104,91,87
2017/05/27/11:49:28.610566,124986,1495856968,610382080,0,246,437,429,300,142,108,90,83
2017/05/27/11:49:28.633105,124987,1495856968,632915973,0,256,443,477,357,172,124,83,72
2017/05/27/11:49:28.655642,124988,1495856968,655374050,0,262,501,428,341,178,132,108,87
2017/05/27/11:49:28.670556,124989,1495856968,670320034,0,262,442,351,297,168,130,105,85
2017/05/27/11:49:28.693479,124990,1495856968,693030118,0,273,459,348,302,182,144,108,91
2017/05/27/11:49:28.715604,124991,1495856968,715444087,0,299,498,338,300,189,148,112,97
2017/05/27/11:49:28.730608,124992,1495856968,730395078,0,256,498,271,242,198,158,116,98
2017/05/27/11:49:28.752966,124993,1495856968,752840995,0,244,434,290,240,192,147,125,99
2017/05/27/11:49:28.783878,124994,1495856968,783622026,0,276,435,281,235,188,152,124,104
2017/05/27/11:49:28.791434,124995,1495856968,791243076,0,268,456,263,225,182,147,145,100
2017/05/27/11:49:28.814489,124996,1495856968,814344882,0,224,457,363,275,187,146,145,95
2017/05/27/11:49:28.835597,124997,1495856968,835442066,0,233,476,344,245,149,119,137,89
2017/05/27/11:49:28.850521,124998,1495856968,850395917,0,230,504,421,282,156,122,110,78
2017/05/27/11:49:28.873440,124999,1495856968,873053073,0,203,513,439,288,164,113,128,78
2017/05/27/11:49:28.895519,125000,1495856968,895369052,0,183,484,458,286,145,105,96,71
2017/05/27/11:49:28.912030,125001,1495856968,911854982,0,172,441,415,257,137,126,101,77
2017/05/27/11:49:28.933329,125002,1495856968,933047056,0,140,433,417,274,149,135,100,78
2017/05/27/11:49:28.955697,125003,1495856968,955447912,0,132,420,421,274,145,132,99,73
2017/05/27/11:49:28.970566,125004,1495856968,970377922,0,92,435,417,269,136,136,73,61
2017/05/27/11:49:28.993091,125005,1495856968,992892026,0,87,476,403,272,144,134,91,71
2017/05/27/11:49:29.015754,125006,1495856969,15446901,0,82,467,374,246,146,121,84,69
2017/05/27/11:49:29.038358,125007,1495856969,38100957,0,79,522,426,245,141,119,93,69
2017/05/27/11:49:29.053287,125008,1495856969,52953958,0,70,498,336,200,142,125,97,69
2017/05/27/11:49:29.075566,125009,1495856969,75371980,0,74,532,328,213,147,121,97,71
2017/05/27/11:49:29.090571,125010,1495856969,90378046,0,73,549,361,221,153,119,84,67
2017/05/27/11:49:29.113180,125011,1495856969,112910032,0,72,560,366,229,154,118,80,63
2017/05/27/11:49:29.135730,125012,1495856969,135521888,0,74,518,308,222,150,121,76,60
2017/05/27/11:49:29.150830,125013,1495856969,150475978,0,81,551,345,227,143,116,75,63
2017/05/27/11:49:29.173056,125014,1495856969,172873973,0,84,490,376,261,174,155,86,75
2017/05/27/11:49:29.195602,125015,1495856969,195400953,0,79,403,347,252,171,158,85,73
2017/05/27/11:49:29.210572,125016,1495856969,210382938,0,83,451,341,249,168,153,85,71
2017/05/27/11:49:29.233459,125017,1495856969,233017921,0,82,429,343,247,176,148,80,71
2017/05/27/11:49:29.255551,125018,1495856969,255362033,0,84,474,398,269,185,163,79,72
2017/05/27/11:49:29.270592,125019,1495856969,270385980,0,86,506,423,245,158,129,66,60
2017/05/27/11:49:29.293223,125020,1495856969,292947053,0,93,566,423,246,168,141,65,59
2017/05/27/11:49:29.315627,125021,1495856969,315413951,0,91,519,432,245,167,143,66,63
2017/05/27/11:49:29.346341,125022,1495856969,346144914,0,104,560,452,258,161,141,76,71
2017/05/27/11:49:29.353039,125023,1495856969,352889060,0,100,520,454,260,144,124,69,68
2017/05/27/11:49:29.375668,125024,1495856969,375421047,0,97,492,404,242,138,128,77,80
2017/05/27/11:49:29.399487,125025,1495856969,399322032,0,94,452,443,280,132,120,79,83
2017/05/27/11:49:29.413343,125026,1495856969,412950992,0,106,538,457,293,130,134,86,88
2017/05/27/11:49:29.443893,125027,1495856969,443629980,0,89,463,426,287,133,155,87,84
2017/05/27/11:49:29.458074,125028,1495856969,457876920,0,85,425,386,276,134,152,93,85
2017/05/27/11:49:29.473231,125029,1495856969,472966909,0,85,444,405,287,154,167,92,75
2017/05/27/11:49:29.495804,125030,1495856969,495485067,0,86,440,350,248,141,166,89,77
2017/05/27/11:49:29.518064,125031,1495856969,517867088,0,69,331,314,233,145,157,84,70
2017/05/27/11:49:29.533053,125032,1495856969,532919883,0,79,347,338,241,166,200,96,77
2017/05/27/11:49:29.555585,125033,1495856969,555358886,0,90,375,346,252,169,201,101,86
2017/05/27/11:49:29.578245,125034,1495856969,577876091,0,104,460,397,282,168,189,98,86
2017/05/27/11:49:29.593067,125035,1495856969,592889070,0,103,482,414,291,173,185,103,83
2017/05/27/11:49:29.615650,125036,1495856969,615466117,0,105,522,420,299,203,211,107,88
2017/05/27/11:49:29.638246,125037,1495856969,637954950,0,102,522,406,279,195,159,99,83
2017/05/27/11:49:29.653168,125038,1495856969,652896881,0,95,536,367,267,198,168,92,73
2017/05/27/11:49:29.675607,125039,1495856969,675381898,0,77,455,401,247,191,164,91,70
2017/05/27/11:49:29.698269,125040,1495856969,698012113,0,74,427,391,233,192,160,90,71
2017/05/27/11:49:29.713190,125041,1495856969,712956905,0,83,404,394,234,176,122,88,70
2017/05/27/11:49:29.735564,125042,1495856969,735383987,0,76,384,385,234,171,129,86,67
2017/05/27/11:49:29.758497,125043,1495856969,758315086,0,79,384,378,219,167,116,83,66
2017/05/27/11:49:29.773084,125044,1495856969,772897958,0,86,432,289,198,166,124,90,69
2017/05/27/11:49:29.795653,125045,1495856969,795406103,0,98,466,324,225,168,135,87,63
2017/05/27/11:49:29.818086,125046,1495856969,817867040,0,90,439,317,213,145,128,79,61
2017/05/27/11:49:29.833306,125047,1495856969,832870960,0,94,511,347,222,144,130,71,61
2017/05/27/11:49:29.855509,125048,1495856969,855333089,0,96,506,387,246,174,141,86,72
2017/05/27/11:49:29.878033,125049,1495856969,877875089,0,99,526,472,310,181,145,85,71
2017/05/27/11:49:29.893318,125050,1495856969,893059015,0,86,481,441,298,191,139,85,72
2017/05/27/11:49:29.924030,125051,1495856969,923687934,0,86,494,460,319,204,149,93,73
2017/05/27/11:49:29.938025,125052,1495856969,937853097,0,83,471,443,314,202,144,92,67
2017/05/27/11:49:29.953199,125053,1495856969,952913045,0,75,485,413,304,179,150,82,56
2017/05/27/11:49:29.975803,125054,1495856969,975409030,0,65,416,299,249,173,142,74,55
2017/05/27/11:49:29.998204,125055,1495856969,997941970,0,73,442,337,246,161,139,87,69
2017/05/27/11:49:30.020544,125056,1495856970,20353078,0,125,591,345,250,172,132,88,69
2017/05/27/11:49:30.035542,125057,1495856970,35360097,0,132,592,357,253,174,125,86,69
2017/05/27/11:49:30.058097,125058,1495856970,57900905,0,133,554,366,248,178,120,86,72
2017/05/27/11:49:30.073440,125059,1495856970,73110103,0,143,659,385,242,168,120,84,69
2017/05/27/11:49:30.095577,125060,1495856970,95377922,0,144,654,387,264,172,130,71,55
2017/05/27/11:49:30.118107,125061,1495856970,117887020,0,106,523,385,268,180,128,62,52
2017/05/27/11:49:30.133213,125062,1495856970,132951974,0,103,487,375,274,191,119,61,59
2017/05/27/11:49:30.155558,125063,1495856970,155390977,0,107,523,355,259,189,103,53,56
2017/05/27/11:49:30.178112,125064,1495856970,177905082,0,105,452,345,251,197,109,57,57
2017/05/27/11:49:30.193071,125065,1495856970,192893981,0,102,460,353,224,193,96,56,57
2017/05/27/11:49:30.215504,125066,1495856970,215348005,0,104,495,321,182,193,101,55,56
2017/05/27/11:49:30.238103,125067,1495856970,237931966,0,101,507,303,163,184,105,57,53
2017/05/27/11:49:30.260627,125068,1495856970,260332107,0,98,509,349,220,193,101,57,51
2017/05/27/11:49:30.275527,125069,1495856970,275371074,0,87,438,329,224,186,109,83,72
2017/05/27/11:49:30.298082,125070,1495856970,297897100,0,101,566,295,216,186,113,84,72
2017/05/27/11:49:30.320538,125071,1495856970,320379972,0,99,544,290,216,162,110,83,71
2017/05/27/11:49:30.337823,125072,1495856970,337619066,0,113,541,304,215,177,114,85,73
2017/05/27/11:49:30.358024,125073,1495856970,357824087,0,114,554,259,169,159,118,87,77
2017/05/27/11:49:30.388764,125074,1495856970,388550996,0,124,580,279,185,166,101,65,72
2017/05/27/11:49:30.395572,125075,1495856970,395349025,0,110,456,262,191,166,109,71,73
2017/05/27/11:49:30.417996,125076,1495856970,417825937,0,105,441,290,192,174,103,76,78
2017/05/27/11:49:30.440781,125077,1495856970,440435886,0,104,527,296,218,155,98,77,80
2017/05/27/11:49:30.455570,125078,1495856970,455351114,0,107,540,287,219,166,94,77,79
2017/05/27/11:49:30.478051,125079,1495856970,477859973,0,97,573,262,192,151,93,74,67
2017/05/27/11:49:30.500530,125080,1495856970,500349044,0,103,584,276,188,143,78,64,63
2017/05/27/11:49:30.515973,125081,1495856970,515467882,0,104,575,254,191,131,82,58,59
2017/05/27/11:49:30.538044,125082,1495856970,537911891,0,96,570,255,161,124,91,58,51
2017/05/27/11:49:30.560580,125083,1495856970,560408115,0,88,521,256,144,103,85,53,44
2017/05/27/11:49:30.577121,125084,1495856970,576862096,0,101,514,265,137,121,88,54,49
2017/05/27/11:49:30.598004,125085,1495856970,597809076,0,100,504,308,148,128,86,55,52
2017/05/27/11:49:30.620588,125086,1495856970,620373964,0,112,561,319,137,124,94,61,59
2017/05/27/11:49:30.635662,125087,1495856970,635411977,0,116,526,318,131,121,88,56,56
2017/05/27/11:49:30.658064,125088,1495856970,657840967,0,126,559,354,151,128,95,57,58
2017/05/27/11:49:30.688860,125089,1495856970,688647031,0,113,516,392,197,126,101,56,59
2017/05/27/11:49:30.695502,125090,1495856970,695362091,0,115,567,363,200,127,101,56,58
2017/05/27/11:49:30.718173,125091,1495856970,717859029,0,110,539,363,207,123,94,52,51
2017/05/27/11:49:30.740570,125092,1495856970,740370988,0,97,492,363,236,131,93,57,57
2017/05/27/11:49:30.755542,125093,1495856970,755353927,0,87,473,318,229,128,91,62,59
2017/05/27/11:49:30.778067,125094,1495856970,777877092,0,90,482,306,222,116,80,59,52
2017/05/27/11:49:30.801277,125095,1495856970,800960063,0,82,430,298,222,109,76,58,50
2017/05/27/11:49:30.815557,125096,1495856970,815367937,0,78,413,310,229,111,92,63,54
2017/05/27/11:49:30.838072,125097,1495856970,837884902,0,82,470,297,194,97,89,57,51
2017/05/27/11:49:30.869081,125098,1495856970,868680953,0,94,472,327,208,105,87,56,51
2017/05/27/11:49:30.875727,125099,1495856970,875480890,0,100,461,286,177,119,92,65,55
2017/05/27/11:49:30.898026,125100,1495856970,897850990,0,97,446,281,174,121,95,83,61
2017/05/27/11:49:30.920690,125101,1495856970,920397043,0,97,479,257,160,115,83,81,57
2017/05/27/11:49:30.935654,125102,1495856970,935451984,0,98,408,264,170,118,80,82,56
2017/05/27/11:49:30.959937,125103,1495856970,959779024,0,83,416,249,144,115,93,85,58
2017/05/27/11:49:30.980574,125104,1495856970,980366945,0,74,400,229,137,121,90,83,55
2017/05/27/11:49:30.995834,125105,1495856970,995488882,0,84,434,277,166,131,103,69,59
2017/05/27/11:49:31.018089,125106,1495856971,17867088,0,82,384,268,165,137,111,69,63
2017/05/27/11:49:31.040560,125107,1495856971,40369033,0,79,414,266,161,137,116,69,64
2017/05/27/11:49:31.055655,125108,1495856971,55418014,0,79,383,245,167,131,108,67,63
2017/05/27/11:49:31.078065,125109,1495856971,77866077,0,80,421,248,166,110,111,61,61
2017/05/27/11:49:31.100602,125110,1495856971,100393056,0,71,395,179,136,148,104,62,52
2017/05/27/11:49:31.115589,125111,1495856971,115400075,0,71,442,174,126,172,89,55,45
2017/05/27/11:49:31.138029,125112,1495856971,137868881,0,68,420,187,140,184,99,58,46
2017/05/27/11:49:31.184383,125113,1495856971,184200048,0,74,445,205,148,200,106,58,44
2017/05/27/11:49:31.185858,125114,1495856971,185741901,0,70,399,199,162,227,106,65,45
2017/05/27/11:49:31.198080,125115,1495856971,197918891,0,72,426,206,146,213,99,59,43
2017/05/27/11:49:31.245079,125116,1495856971,244790077,0,77,437,267,160,212,102,62,46
2017/05/27/11:49:31.246462,125117,1495856971,246335029,0,80,437,248,147,206,87,57,45
2017/05/27/11:49:31.258373,125118,1495856971,257940053,0,70,403,231,146,202,79,57,47
2017/05/27/11:49:31.280543,125119,1495856971,280371904,0,69,422,239,138,175,88,59,48
2017/05/27/11:49:31.303084,125120,1495856971,302867889,0,65,382,234,142,161,87,58,48
2017/05/27/11:49:31.318078,125121,1495856971,317887067,0,57,314,199,132,131,87,61,52
2017/05/27/11:49:31.340623,125122,1495856971,340392112,0,50,304,195,129,129,91,69,53
2017/05/27/11:49:31.371525,125123,1495856971,371206045,0,52,289,196,105,147,91,70,51
2017/05/27/11:49:31.378316,125124,1495856971,377902984,0,59,273,207,135,153,86,68,56
2017/05/27/11:49:31.400504,125125,1495856971,400341987,0,64,247,228,146,155,94,75,58
2017/05/27/11:49:31.423105,125126,1495856971,422880887,0,68,302,230,149,158,94,70,55
2017/05/27/11:49:31.438080,125127,1495856971,437895059,0,69,320,231,154,183,110,76,55
2017/05/27/11:49:31.460856,125128,1495856971,460402965,0,69,333,227,158,182,111,75,54
2017/05/27/11:49:31.483063,125129,1495856971,482880115,0,64,329,210,144,172,105,70,45
2017/05/27/11:49:31.498206,125130,1495856971,497946977,0,66,348,236,174,169,101,62,41
2017/05/27/11:49:31.520566,125131,1495856971,520354032,0,59,324,228,176,180,108,69,44
2017/05/27/11:49:31.543175,125132,1495856971,542892932,0,62,310,241,177,155,95,58,41
2017/05/27/11:49:31.558202,125133,1495856971,557936906,0,64,327,259,176,138,96,58,45
2017/05/27/11:49:31.580522,125134,1495856971,580357074,0,63,327,257,164,143,99,60,48
2017/05/27/11:49:31.603153,125135,1495856971,602857112,0,62,346,215,112,142,100,64,51
2017/05/27/11:49:31.618158,125136,1495856971,617832899,0,64,317,197,112,132,95,62,49
2017/05/27/11:49:31.640540,125137,1495856971,640341997,0,64,309,193,107,129,92,61,52
2017/05/27/11:49:31.663045,125138,1495856971,662846088,0,72,352,171,106,115,94,62,51
2017/05/27/11:49:31.678049,125139,1495856971,677879095,0,73,347,165,103,145,95,63,50
2017/05/27/11:49:31.702063,125140,1495856971,701788902,0,71,294,149,103,140,90,59,47
2017/05/27/11:49:31.723042,125141,1495856971,722839117,0,65,306,166,99,138,86,52,43
2017/05/27/11:49:31.738151,125142,1495856971,737996101,0,61,335,173,98,140,91,50,38
2017/05/27/11:49:31.760556,125143,1495856971,760354995,0,53,260,218,115,137,84,45,34
2017/05/27/11:49:31.783052,125144,1495856971,782871007,0,49,258,236,122,137,84,40,34
2017/05/27/11:49:31.798030,125145,1495856971,797852993,0,55,297,237,122,141,91,43,38
2017/05/27/11:49:31.820792,125146,1495856971,820462942,0,59,277,244,145,140,102,48,40
2017/05/27/11:49:31.843071,125147,1495856971,842875957,0,60,238,234,152,152,105,49,43
2017/05/27/11:49:31.858034,125148,1495856971,857845067,0,62,237,190,144,188,108,50,46
2017/05/27/11:49:31.880773,125149,1495856971,880456924,0,66,237,169,137,163,111,54,47
2017/05/27/11:49:31.903060,125150,1495856971,902868032,0,58,217,179,148,174,107,50,43
2017/05/27/11:49:31.918017,125151,1495856971,917824029,0,59,224,159,125,174,99,45,41
2017/05/27/11:49:31.948727,125152,1495856971,948554039,0,62,244,159,108,169,90,44,40
2017/05/27/11:49:31.963103,125153,1495856971,962882995,0,59,237,174,123,135,90,44,40
2017/05/27/11:49:31.978119,125154,1495856971,977916955,0,57,236,173,125,141,89,42,37
2017/05/27/11:49:32.000719,125155,1495856972,438928,0,59,265,160,115,120,89,47,40
2017/05/27/11:49:32.023107,125156,1495856972,22897005,0,58,266,153,119,127,83,52,42
2017/05/27/11:49:32.038075,125157,1495856972,37913084,0,56,270,145,119,124,79,48,38
2017/05/27/11:49:32.060713,125158,1495856972,60461997,0,51,283,153,103,117,76,50,36
2017/05/27/11:49:32.083153,125159,1495856972,82912921,0,48,283,195,109,114,64,50,37
2017/05/27/11:49:32.097996,125160,1495856972,97839117,0,44,236,216,107,124,62,49,37
2017/05/27/11:49:32.120540,125161,1495856972,120345115,0,44,224,208,98,134,60,50,38
2017/05/27/11:49:32.143053,125162,1495856972,142851114,0,48,205,230,124,131,71,53,39
2017/05/27/11:49:32.165680,125163,1495856972,165390014,0,51,183,224,132,141,74,51,38
2017/05/27/11:49:32.180512,125164,1495856972,180354118,0,52,181,197,125,149,72,47,36
2017/05/27/11:49:32.203053,125165,1495856972,202852010,0,51,195,170,122,139,70,47,39
2017/05/27/11:49:32.225640,125166,1495856972,225337028,0,52,240,171,120,124,75,41,35
2017/05/27/11:49:32.242111,125167,1495856972,241863012,0,50,259,156,95,132,82,40,39
2017/05/27/11:49:32.263266,125168,1495856972,262933969,0,48,252,150,79,148,88,40,40
2017/05/27/11:49:32.285555,125169,1495856972,285329103,0,50,259,144,91,139,98,46,41
2017/05/27/11:49:32.300555,125170,1495856972,300354003,0,57,242,150,106,152,102,49,43
2017/05/27/11:49:32.323038,125171,1495856972,322864055,0,61,294,171,128,154,100,50,47
2017/05/27/11:49:32.345719,125172,1495856972,345426082,0,62,275,174,137,186,98,58,46
2017/05/27/11:49:32.360524,125173,1495856972,360327005,0,61,272,168,142,178,95,56,44
2017/05/27/11:49:32.383081,125174,1495856972,382854938,0,63,292,187,148,177,90,53,46
2017/05/27/11:49:32.405564,125175,1495856972,405349969,0,60,320,187,141,171,86,48,42
2017/05/27/11:49:32.420684,125176,1495856972,420422077,0,53,242,192,124,181,89,48,38
2017/05/27/11:49:32.451291,125177,1495856972,451107978,0,46,241,176,117,139,81,42,40
2017/05/27/11:49:32.465551,125178,1495856972,465348958,0,46,234,180,118,128,75,43,40
2017/05/27/11:49:32.480661,125179,1495856972,480398893,0,47,226,174,112,138,76,46,40
2017/05/27/11:49:32.503276,125180,1495856972,502962112,0,44,204,171,106,154,78,45,38
2017/05/27/11:49:32.525563,125181,1495856972,525352001,0,44,208,140,106,161,75,47,41
2017/05/27/11:49:32.540592,125182,1495856972,540437936,0,53,225,146,104,161,72,43,36
2017/05/27/11:49:32.563078,125183,1495856972,562887907,0,54,231,195,133,158,71,43,37
2017/05/27/11:49:32.593928,125184,1495856972,593615055,0,52,224,207,144,154,69,45,34
2017/05/27/11:49:32.600508,125185,1495856972,600334882,0,54,222,208,151,185,73,48,36
2017/05/27/11:49:32.623211,125186,1495856972,622915983,0,60,221,210,150,176,74,46,36
2017/05/27/11:49:32.645623,125187,1495856972,645390987,0,54,203,206,149,178,76,47,37
2017/05/27/11:49:32.660675,125188,1495856972,660376071,0,53,191,155,122,180,88,50,39
2017/05/27/11:49:32.683037,125189,1495856972,682853937,0,52,168,118,97,175,89,46,37
2017/05/27/11:49:32.705780,125190,1495856972,705463886,0,53,204,129,85,124,88,46,37
2017/05/27/11:49:32.720723,125191,1495856972,720421075,0,45,208,124,87,136,93,47,36
2017/05/27/11:49:32.743017,125192,1495856972,742841005,0,48,210,139,93,138,97,49,40
2017/05/27/11:49:32.765528,125193,1495856972,765341997,0,49,211,169,121,132,91,48,39
2017/05/27/11:49:32.780433,125194,1495856972,780281066,0,52,233,176,128,138,91,53,41
2017/05/27/11:49:32.804628,125195,1495856972,804332017,0,57,242,180,134,164,86,53,43
2017/05/27/11:49:32.825555,125196,1495856972,825362920,0,55,240,187,136,139,80,51,43
2017/05/27/11:49:32.840730,125197,1495856972,840424060,0,53,240,259,162,135,73,49,44
2017/05/27/11:49:32.871267,125198,1495856972,871053934,0,54,243,251,140,142,72,53,45
2017/05/27/11:49:32.885836,125199,1495856972,885508060,0,50,246,254,142,159,64,49,44
2017/05/27/11:49:32.900681,125200,1495856972,900454044,0,45,204,245,137,131,64,46,42
2017/05/27/11:49:32.923201,125201,1495856972,922943115,0,45,189,246,134,132,60,46,40
2017/05/27/11:49:32.945529,125202,1495856972,945352077,0,46,181,198,153,139,62,46,40
2017/05/27/11:49:32.960584,125203,1495856972,960342884,0,44,174,197,161,160,77,41,40
2017/05/27/11:49:32.983018,125204,1495856972,982801914,0,43,151,188,158,156,80,41,43
2017/05/27/11:49:33.005985,125205,1495856973,5577087,0,43,155,198,161,164,83,44,49
2017/05/27/11:49:33.020767,125206,1495856973,20421028,0,43,161,197,161,165,84,44,47
2017/05/27/11:49:33.051189,125207,1495856973,51029920,0,42,156,166,118,169,81,50,49
2017/05/27/11:49:33.065695,125208,1495856973,65387964,0,39,160,142,98,142,63,48,46
2017/05/27/11:49:33.088125,125209,1495856973,87892055,0,39,160,141,96,133,59,47,46
2017/05/27/11:49:33.103141,125210,1495856973,102912902,0,38,136,125,89,125,57,46,41
2017/05/27/11:49:33.125475,125211,1495856973,125298976,0,56,292,186,110,123,57,48,48
2017/05/27/11:49:33.148749,125212,1495856973,148195028,0,64,339,222,132,121,56,40,44
2017/05/27/11:49:33.163145,125213,1495856973,162842988,0,74,357,233,143,166,63,38,43
2017/05/27/11:49:33.185757,125214,1495856973,185447931,0,74,356,241,161,166,61,38,46
2017/05/27/11:49:33.207994,125215,1495856973,207801103,0,74,364,252,167,161,59,38,46
2017/05/27/11:49:33.223316,125216,1495856973,222929000,0,76,367,282,270,174,68,43,50
2017/05/27/11:49:33.245673,125217,1495856973,245367050,0,71,337,268,286,174,71,43,50
2017/05/27/11:49:33.268013,125218,1495856973,267821073,0,76,334,284,307,142,65,45,55
2017/05/27/11:49:33.283057,125219,1495856973,282866001,0,91,367,306,341,138,63,50,76
2017/05/27/11:49:33.313648,125220,1495856973,313524007,0,122,429,345,371,151,66,62,107
2017/05/27/11:49:33.328056,125221,1495856973,327912092,0,122,372,308,321,142,60,59,106
2017/05/27/11:49:33.350512,125222,1495856973,350327014,0,124,374,297,299,128,54,59,108
2017/05/27/11:49:33.365533,125223,1495856973,365341901,0,117,366,273,276,114,49,58,108
2017/05/27/11:49:33.388728,125224,1495856973,388430118,0,110,340,246,219,102,48,54,91
2017/05/27/11:49:33.403012,125225,1495856973,402831077,0,73,262,176,167,85,45,38,52
2017/05/27/11:49:33.425571,125226,1495856973,425348997,0,57,216,132,110,73,37,35,45
2017/05/27/11:49:33.448159,125227,1495856973,447875022,0,52,199,109,97,70,37,31,40
2017/05/27/11:49:33.463049,125228,1495856973,462861061,0,48,223,105,84,63,35,29,34
2017/05/27/11:49:33.485608,125229,1495856973,485413074,0,38,236,94,93,63,35,26,35
2017/05/27/11:49:33.508064,125230,1495856973,507877111,0,38,211,76,89,56,32,25,36
2017/05/27/11:49:33.538750,125231,1495856973,538572072,0,35,207,73,87,50,30,53,43
2017/05/27/11:49:33.545543,125232,1495856973,545329093,0,36,210,73,88,46,28,60,43
2017/05/27/11:49:33.567975,125233,1495856973,567835092,0,36,207,79,91,47,32,62,43
2017/05/27/11:49:33.590857,125234,1495856973,590392112,0,37,180,72,80,45,31,63,41
2017/05/27/11:49:33.605532,125235,1495856973,605333089,0,37,189,71,64,37,29,63,40
2017/05/27/11:49:33.628250,125236,1495856973,628010034,0,39,189,69,64,42,37,68,75
2017/05/27/11:49:33.643082,125237,1495856973,642935991,0,40,214,72,62,43,38,72,77
2017/05/27/11:49:33.665558,125238,1495856973,665390014,0,40,192,66,55,41,36,72,80
2017/05/27/11:49:33.688090,125239,1495856973,687920093,0,45,207,71,52,40,35,71,83
2017/05/27/11:49:33.703006,125240,1495856973,702832937,0,46,205,70,46,38,35,83,87
2017/05/27/11:49:33.725830,125241,1495856973,725471973,0,44,207,77,41,30,25,67,55
2017/05/27/11:49:33.747955,125242,1495856973,747832059,0,41,169,71,36,28,21,57,52
2017/05/27/11:49:33.763134,125243,1495856973,762864112,0,39,143,65,32,25,22,57,47
2017/05/27/11:49:33.785441,125244,1495856973,785316944,0,31,110,59,33,22,22,63,43
2017/05/27/11:49:33.808356,125245,1495856973,807960987,0,29,106,95,49,24,22,48,35
2017/05/27/11:49:33.823148,125246,1495856973,822846889,0,33,118,99,52,23,22,43,36
2017/05/27/11:49:33.845674,125247,1495856973,845415115,0,35,135,111,62,28,25,41,37
2017/05/27/11:49:33.868051,125248,1495856973,867880105,0,35,138,127,76,31,23,38,35
2017/05/27/11:49:33.890645,125249,1495856973,890465021,0,34,154,244,133,42,28,29,32
2017/05/27/11:49:33.905658,125250,1495856973,905440092,0,34,163,243,136,42,29,26,31
2017/05/27/11:49:33.929586,125251,1495856973,929348945,0,36,152,252,141,44,30,27,31
2017/05/27/11:49:33.943019,125252,1495856973,942863941,0,33,137,255,144,43,28,26,27
2017/05/27/11:49:33.969377,125253,1495856973,969033002,0,38,134,254,144,43,28,26,29
2017/05/27/11:49:33.988049,125254,1495856973,987916946,0,72,140,169,104,33,23,24,31
2017/05/27/11:49:34.003024,125255,1495856974,2855062,0,79,119,159,97,34,23,23,29
2017/05/27/11:49:34.025515,125256,1495856974,25348901,0,84,134,147,96,39,24,24,29
2017/05/27/11:49:34.048002,125257,1495856974,47864913,0,96,148,143,88,36,24,26,30
2017/05/27/11:49:34.070607,125258,1495856974,70430040,0,103,168,142,94,40,24,25,29
2017/05/27/11:49:34.085687,125259,1495856974,85387945,0,86,164,146,110,47,27,25,26
2017/05/27/11:49:34.108217,125260,1495856974,107877969,0,82,168,146,111,45,26,27,28
2017/05/27/11:49:34.130477,125261,1495856974,130296945,0,79,160,160,120,49,29,27,28
2017/05/27/11:49:34.145689,125262,1495856974,145414113,0,67,167,173,125,49,29,25,28
2017/05/27/11:49:34.168007,125263,1495856974,167867898,0,54,143,166,122,51,30,26,29
2017/05/27/11:49:34.190823,125264,1495856974,190407991,0,55,131,168,113,48,27,24,28
2017/05/27/11:49:34.205534,125265,1495856974,205332994,0,51,130,245,121,49,27,24,31
2017/05/27/11:49:34.228023,125266,1495856974,227874040,0,46,132,250,112,40,23,24,32
2017/05/27/11:49:34.250572,125267,1495856974,250360965,0,45,129,247,108,40,23,26,33
2017/05/27/11:49:34.265572,125268,1495856974,265413999,0,45,139,270,135,42,25,26,33
2017/05/27/11:49:34.288101,125269,1495856974,287894964,0,41,138,290,151,49,28,27,36
2017/05/27/11:49:34.310503,125270,1495856974,310316085,0,43,144,229,143,47,26,26,33
2017/05/27/11:49:34.325713,125271,1495856974,325412034,0,41,128,212,141,49,27,24,30
2017/05/27/11:49:34.347978,125272,1495856974,347861051,0,39,108,211,146,51,26,23,28
2017/05/27/11:49:34.370549,125273,1495856974,370352029,0,44,172,217,160,49,27,36,29
2017/05/27/11:49:34.387040,125274,1495856974,386852979,0,48,192,199,159,52,64,85,36
2017/05/27/11:49:34.408201,125275,1495856974,407922029,0,66,193,213,167,55,68,88,40
2017/05/27/11:49:34.430538,125276,1495856974,430399894,0,70,217,214,169,55,71,92,42
2017/05/27/11:49:34.445563,125277,1495856974,445343971,0,75,221,216,167,54,71,94,42
2017/05/27/11:49:34.467991,125278,1495856974,467869997,0,72,184,187,135,53,70,90,41
2017/05/27/11:49:34.492219,125279,1495856974,492062091,0,67,161,156,109,45,40,51,35
2017/05/27/11:49:34.505441,125280,1495856974,505279064,0,52,158,133,99,41,34,45,31
2017/05/27/11:49:34.528163,125281,1495856974,527908086,0,52,139,126,101,46,29,39,29
2017/05/27/11:49:34.550536,125282,1495856974,550364971,0,47,151,156,116,49,29,36,31
2017/05/27/11:49:34.565627,125283,1495856974,565414905,0,50,161,261,156,60,35,36,36
2017/05/27/11:49:34.587984,125284,1495856974,587814092,0,59,168,273,162,60,32,32,34
2017/05/27/11:49:34.610690,125285,1495856974,610393047,0,56,170,276,161,59,32,30,34
2017/05/27/11:49:34.625504,125286,1495856974,625360965,0,51,174,276,158,55,29,28,33
2017/05/27/11:49:34.648082,125287,1495856974,647872924,0,51,161,267,163,58,29,26,32
2017/05/27/11:49:34.670447,125288,1495856974,670315980,0,49,152,201,131,51,26,26,31
2017/05/27/11:49:34.685461,125289,1495856974,685324907,0,40,149,181,132,54,28,25,31
2017/05/27/11:49:34.708014,125290,1495856974,707855939,0,43,158,181,131,53,29,27,31
2017/05/27/11:49:34.730557,125291,1495856974,730384111,0,43,155,199,132,53,29,30,34
2017/05/27/11:49:34.745734,125292,1495856974,745471954,0,40,154,202,125,48,28,29,33
2017/05/27/11:49:34.768008,125293,1495856974,767853975,0,38,139,177,120,49,27,27,28
2017/05/27/11:49:34.790755,125294,1495856974,790461063,0,36,148,190,121,48,26,29,31
2017/05/27/11:49:34.805818,125295,1495856974,805479049,0,39,150,204,136,55,29,31,32
2017/05/27/11:49:34.828178,125296,1495856974,827955961,0,39,145,191,136,56,32,30,30
2017/05/27/11:49:34.850510,125297,1495856974,850344896,0,39,148,167,122,55,33,31,31
2017/05/27/11:49:34.865557,125298,1495856974,865345001,0,39,151,164,110,49,30,30,33
2017/05/27/11:49:34.895828,125299,1495856974,895503997,0,41,150,164,114,50,31,28,29
2017/05/27/11:49:34.910714,125300,1495856974,910393953,0,36,132,160,106,45,30,25,26
2017/05/27/11:49:34.925863,125301,1495856974,925358057,0,36,158,170,108,43,26,21,24
2017/05/27/11:49:34.947985,125302,1495856974,947822093,0,38,163,172,111,42,27,20,23
2017/05/27/11:49:34.970582,125303,1495856974,970289945,0,39,158,163,112,41,26,19,25
2017/05/27/11:49:34.993070,125304,1495856974,992854118,0,37,176,197,114,44,28,21,30
2017/05/27/11:49:35.008051,125305,1495856975,7879972,0,37,182,188,108,44,28,21,31
2017/05/27/11:49:35.030413,125306,1495856975,30291080,0,38,172,188,112,47,28,23,32
2017/05/27/11:49:35.053160,125307,1495856975,52932024,0,35,160,185,112,47,27,24,32
2017/05/27/11:49:35.067999,125308,1495856975,67851066,0,34,173,186,116,46,27,23,31
2017/05/27/11:49:35.090437,125309,1495856975,90312957,0,35,166,126,93,37,23,22,26
2017/05/27/11:49:35.113041,125310,1495856975,112845897,0,39,166,122,86,38,22,21,26
2017/05/27/11:49:35.127901,125311,1495856975,127783060,0,40,152,117,76,34,22,20,26
2017/05/27/11:49:35.150755,125312,1495856975,150444030,0,42,157,131,72,36,23,20,28
2017/05/27/11:49:35.173100,125313,1495856975,172899961,0,46,163,126,65,36,24,20,28
2017/05/27/11:49:35.188093,125314,1495856975,187880992,0,44,147,128,70,39,24,21,29
2017/05/27/11:49:35.210480,125315,1495856975,210304975,0,43,145,138,83,41,26,21,27
2017/05/27/11:49:35.233017,125316,1495856975,232817888,0,42,155,148,100,51,29,21,28
2017/05/27/11:49:35.247982,125317,1495856975,247828006,0,41,151,136,101,50,31,21,27
2017/05/27/11:49:35.270578,125318,1495856975,270337104,0,36,141,138,100,52,30,21,25
2017/05/27/11:49:35.293044,125319,1495856975,292845964,0,36,137,138,95,51,31,23,25
2017/05/27/11:49:35.308176,125320,1495856975,307867050,0,34,145,152,106,56,31,24,24
2017/05/27/11:49:35.330540,125321,1495856975,330365896,0,42,154,142,102,51,31,26,26
2017/05/27/11:49:35.353265,125322,1495856975,352920055,0,45,191,139,102,51,29,25,24
2017/05/27/11:49:35.368058,125323,1495856975,367845058,0,46,189,161,116,54,32,26,24
2017/05/27/11:49:35.390637,125324,1495856975,390460968,0,46,199,182,127,58,33,25,24
2017/05/27/11:49:35.413049,125325,1495856975,412869930,0,46,196,160,113,51,33,23,26
2017/05/27/11:49:35.428130,125326,1495856975,427947998,0,40,180,175,122,56,33,21,23
2017/05/27/11:49:35.453182,125327,1495856975,452999114,0,38,147,184,128,58,34,23,24
2017/05/27/11:49:35.473071,125328,1495856975,472846031,0,36,142,182,124,57,30,23,23
2017/05/27/11:49:35.488036,125329,1495856975,487874031,0,35,121,163,115,55,28,22,24
2017/05/27/11:49:35.510470,125330,1495856975,510318040,0,33,125,178,119,56,26,24,24
2017/05/27/11:49:35.532999,125331,1495856975,532814025,0,28,125,155,106,53,27,23,25
2017/05/27/11:49:35.548189,125332,1495856975,547940969,0,25,115,145,101,50,26,21,25
2017/05/27/11:49:35.571961,125333,1495856975,571751117,0,26,119,139,97,48,27,21,26
2017/05/27/11:49:35.593058,125334,1495856975,592855930,0,25,120,138,94,45,26,20,25
2017/05/27/11:49:35.607985,125335,1495856975,607800960,0,26,100,116,84,40,28,21,25
2017/05/27/11:49:35.630478,125336,1495856975,630300045,0,27,92,118,83,37,27,21,24
2017/05/27/11:49:35.653045,125337,1495856975,652858972,0,29,97,126,90,37,27,24,26
2017/05/27/11:49:35.668018,125338,1495856975,667814970,0,30,82,114,92,40,27,23,25
2017/05/27/11:49:35.690492,125339,1495856975,690324068,0,30,78,112,92,40,27,23,25
2017/05/27/11:49:35.713090,125340,1495856975,712882995,0,30,87,107,92,40,24,21,24
2017/05/27/11:49:35.728304,125341,1495856975,727960109,0,36,102,106,85,40,22,21,24
2017/05/27/11:49:35.750534,125342,1495856975,750315904,0,35,101,99,74,39,22,18,22
2017/05/27/11:49:35.773062,125343,1495856975,772854089,0,33,109,78,58,34,21,19,21
2017/05/27/11:49:35.787997,125344,1495856975,787817001,0,33,109,75,54,35,22,22,23
2017/05/27/11:49:35.810655,125345,1495856975,810375928,0,32,95,81,52,35,23,23,26
2017/05/27/11:49:35.833006,125346,1495856975,832848072,0,26,81,95,68,33,23,22,26
2017/05/27/11:49:35.848120,125347,1495856975,847943067,0,25,85,89,66,32,24,23,25
2017/05/27/11:49:35.870512,125348,1495856975,870320081,0,26,78,88,64,31,25,22,25
2017/05/27/11:49:35.893014,125349,1495856975,892844915,0,26,77,89,63,28,24,19,23
2017/05/27/11:49:35.915723,125350,1495856975,915417909,0,25,90,80,61,33,26,19,20
2017/05/27/11:49:35.938667,125351,1495856975,938488960,0,25,93,47,39,31,27,19,20
2017/05/27/11:49:35.953042,125352,1495856975,952860116,0,24,86,41,33,34,27,19,21
2017/05/27/11:49:35.975567,125353,1495856975,975367069,0,21,90,42,32,34,27,20,22
2017/05/27/11:49:35.990515,125354,1495856975,990349054,0,21,91,37,31,35,27,18,23
2017/05/27/11:49:36.013191,125355,1495856976,12908935,0,22,79,37,32,30,28,20,23
2017/05/27/11:49:36.035532,125356,1495856976,35347938,0,20,82,43,26,29,28,21,23
2017/05/27/11:49:36.050453,125357,1495856976,50287008,0,21,80,43,26,26,28,19,21
2017/05/27/11:49:36.073001,125358,1495856976,72813034,0,20,70,41,27,25,28,19,19
2017/05/27/11:49:36.095560,125359,1495856976,95377922,0,21,72,41,30,23,29,21,17
2017/05/27/11:49:36.110747,125360,1495856976,110404968,0,22,76,43,31,23,28,19,17
2017/05/27/11:49:36.133010,125361,1495856976,132849931,0,23,55,33,28,27,33,27,23
2017/05/27/11:49:36.155930,125362,1495856976,155508041,0,24,54,35,29,29,33,29,36
2017/05/27/11:49:36.170686,125363,1495856976,170392036,0,26,55,36,27,29,35,29,38
2017/05/27/11:49:36.193105,125364,1495856976,192820072,0,27,53,36,25,28,35,29,40
2017/05/27/11:49:36.215602,125365,1495856976,215395927,0,26,45,33,22,30,34,28,39
2017/05/27/11:49:36.230494,125366,1495856976,230335950,0,27,42,32,24,27,28,24,37
2017/05/27/11:49:36.253103,125367,1495856976,252890110,0,26,43,27,23,26,25,29,25
2017/05/27/11:49:36.277197,125368,1495856976,276993036,0,24,43,27,26,26,25,29,24
2017/05/27/11:49:36.290498,125369,1495856976,290337085,0,26,85,27,28,31,31,31,22
2017/05/27/11:49:36.313171,125370,1495856976,312963008,0,25,89,27,29,30,33,32,38
2017/05/27/11:49:36.335689,125371,1495856976,335407018,0,25,90,26,33,29,32,30,40
2017/05/27/11:49:36.350615,125372,1495856976,350359916,0,30,100,33,32,31,34,32,41
2017/05/27/11:49:36.373030,125373,1495856976,372823953,0,31,99,32,30,31,32,33,42
2017/05/27/11:49:36.395596,125374,1495856976,395386934,0,28,63,31,28,29,25,32,42
2017/05/27/11:49:36.410733,125375,1495856976,410398960,0,29,56,32,28,30,25,32,28
2017/05/27/11:49:36.432953,125376,1495856976,432790994,0,35,104,42,21,30,30,32,26
2017/05/27/11:49:36.455481,125377,1495856976,455296039,0,30,99,38,25,29,29,24,23
2017/05/27/11:49:36.470608,125378,1495856976,470385074,0,29,98,39,24,28,28,22,21
2017/05/27/11:49:36.493169,125379,1495856976,492852926,0,30,99,41,28,26,28,23,23
2017/05/27/11:49:36.515516,125380,1495856976,515324115,0,31,102,42,27,27,28,22,22
2017/05/27/11:49:36.530552,125381,1495856976,530339956,0,22,55,34,31,26,25,28,22
2017/05/27/11:49:36.554468,125382,1495856976,554282903,0,22,50,34,29,26,26,30,33
2017/05/27/11:49:36.575518,125383,1495856976,575316905,0,26,69,38,30,26,27,30,35
2017/05/27/11:49:36.591955,125384,1495856976,591763973,0,26,79,38,26,30,29,29,36
2017/05/27/11:49:36.612956,125385,1495856976,612803936,0,25,79,37,25,27,27,30,37
2017/05/27/11:49:36.635595,125386,1495856976,635421991,0,28,83,36,23,28,30,25,37
2017/05/27/11:49:36.650632,125387,1495856976,650348901,0,28,86,36,21,28,31,23,29
2017/05/27/11:49:36.672975,125388,1495856976,672790050,0,27,77,37,25,28,29,23,29
2017/05/27/11:49:36.695546,125389,1495856976,695342063,0,28,84,37,27,23,27,22,28
2017/05/27/11:49:36.710537,125390,1495856976,710344076,0,28,87,38,28,25,28,20,30
2017/05/27/11:49:36.733079,125391,1495856976,732862949,0,26,86,37,26,23,26,22,42
2017/05/27/11:49:36.755517,125392,1495856976,755323886,0,26,85,36,27,22,24,20,42
2017/05/27/11:49:36.770563,125393,1495856976,770366907,0,27,92,33,27,23,25,24,45
2017/05/27/11:49:36.793007,125394,1495856976,792833089,0,25,78,29,27,23,24,27,45
2017/05/27/11:49:36.815836,125395,1495856976,815419912,0,27,77,27,27,23,23,28,43
2017/05/27/11:49:36.830541,125396,1495856976,830368995,0,29,71,28,27,25,21,27,31
2017/05/27/11:49:36.853092,125397,1495856976,852880001,0,28,68,29,26,26,19,28,30
2017/05/27/11:49:36.875633,125398,1495856976,875392913,0,26,66,29,25,27,22,28,21
2017/05/27/11:49:36.898010,125399,1495856976,897834062,0,27,82,34,24,28,24,30,20
2017/05/27/11:49:36.913096,125400,1495856976,912854909,0,26,80,34,24,27,25,31,21
2017/05/27/11:49:36.935606,125401,1495856976,935316085,0,23,81,32,26,27,26,31,34
2017/05/27/11:49:36.958197,125402,1495856976,957954883,0,22,82,34,25,28,32,31,37
2017/05/27/11:49:36.973078,125403,1495856976,972887992,0,21,78,31,24,29,30,28,39
2017/05/27/11:49:36.995548,125404,1495856976,995265960,0,19,65,30,26,28,30,27,39
2017/05/27/11:49:37.018081,125405,1495856977,17851114,0,19,61,31,26,28,30,27,39
2017/05/27/11:49:37.033016,125406,1495856977,32825946,0,19,64,33,26,29,30,26,28
2017/05/27/11:49:37.055598,125407,1495856977,55363893,0,21,70,31,27,26,27,28,39
2017/05/27/11:49:37.078122,125408,1495856977,77883958,0,20,60,31,27,24,29,27,40
2017/05/27/11:49:37.093155,125409,1495856977,92849016,0,20,56,32,25,25,32,29,40
2017/05/27/11:49:37.115624,125410,1495856977,115349054,0,18,56,31,26,25,31,31,41
2017/05/27/11:49:37.137988,125411,1495856977,137861967,0,19,54,32,26,24,32,31,40
2017/05/27/11:49:37.153131,125412,1495856977,152919054,0,18,44,33,28,23,29,29,26
2017/05/27/11:49:37.175517,125413,1495856977,175337076,0,18,43,33,26,26,30,29,23
2017/05/27/11:49:37.197967,125414,1495856977,197849988,0,19,77,31,26,26,27,25,24
2017/05/27/11:49:37.213057,125415,1495856977,212838888,0,23,91,39,26,27,29,20,22
2017/05/27/11:49:37.235708,125416,1495856977,235378980,0,25,92,38,23,26,28,32,24
2017/05/27/11:49:37.258325,125417,1495856977,257950067,0,24,95,37,22,27,29,33,24
2017/05/27/11:49:37.273206,125418,1495856977,273016929,0,25,96,37,21,24,25,34,24
2017/05/27/11:49:37.295496,125419,1495856977,295278072,0,26,79,38,23,22,24,36,23
2017/05/27/11:49:37.318200,125420,1495856977,317895889,0,25,72,34,24,23,20,36,24
2017/05/27/11:49:37.333142,125421,1495856977,332905054,0,23,73,31,23,24,20,27,22
2017/05/27/11:49:37.355914,125422,1495856977,355642080,0,24,73,34,24,23,20,24,21
2017/05/27/11:49:37.377980,125423,1495856977,377794027,0,23,76,36,26,25,21,23,20
2017/05/27/11:49:37.393005,125424,1495856977,392848014,0,23,71,33,25,26,21,18,19
2017/05/27/11:49:37.415727,125425,1495856977,415409088,0,22,62,30,22,24,23,16,18
2017/05/27/11:49:37.437984,125426,1495856977,437827110,0,22,57,33,24,24,22,17,20
2017/05/27/11:49:37.453090,125427,1495856977,452884912,0,22,64,32,22,25,21,17,19
2017/05/27/11:49:37.475538,125428,1495856977,475322008,0,21,64,31,22,21,21,16,20
2017/05/27/11:49:37.498083,125429,1495856977,497850894,0,21,70,34,31,23,21,18,21
2017/05/27/11:49:37.513018,125430,1495856977,512845039,0,21,71,76,54,28,21,19,21
2017/05/27/11:49:37.535514,125431,1495856977,535340070,0,23,88,81,56,29,22,18,23
2017/05/27/11:49:37.558060,125432,1495856977,557878017,0,25,90,82,57,29,21,21,22
2017/05/27/11:49:37.573338,125433,1495856977,572917938,0,25,88,82,58,31,21,22,24
2017/05/27/11:49:37.595727,125434,1495856977,595393896,0,24,88,84,54,30,21,21,23
2017/05/27/11:49:37.617993,125435,1495856977,617801904,0,23,87,52,35,25,18,21,22
2017/05/27/11:49:37.632998,125436,1495856977,632823944,0,21,71,54,32,25,21,20,19
2017/05/27/11:49:37.655554,125437,1495856977,655323028,0,21,84,58,32,27,20,19,20
2017/05/27/11:49:37.678014,125438,1495856977,677845001,0,25,83,58,33,26,21,19,18
2017/05/27/11:49:37.693114,125439,1495856977,692857027,0,26,78,59,32,27,20,19,20
2017/05/27/11:49:37.715497,125440,1495856977,715301990,0,27,77,59,31,28,23,20,20
2017/05/27/11:49:37.737980,125441,1495856977,737811088,0,27,81,50,29,26,20,19,20
2017/05/27/11:49:37.753150,125442,1495856977,752912998,0,25,71,49,28,25,23,19,19
2017/05/27/11:49:37.775518,125443,1495856977,775325059,0,24,76,50,29,23,21,18,20
2017/05/27/11:49:37.797977,125444,1495856977,797810077,0,25,78,49,30,20,21,21,19
2017/05/27/11:49:37.820468,125445,1495856977,820297002,0,27,85,62,41,23,21,22,19
2017/05/27/11:49:37.835783,125446,1495856977,835530042,0,26,79,71,48,23,21,23,20
2017/05/27/11:49:37.858136,125447,1495856977,857842922,0,27,64,73,51,22,19,23,21
2017/05/27/11:49:37.880556,125448,1495856977,880373001,0,26,67,75,51,23,19,23,21
2017/05/27/11:49:37.895466,125449,1495856977,895286083,0,25,82,84,55,25,20,21,22
2017/05/27/11:49:37.918342,125450,1495856977,917893886,0,23,80,94,61,24,20,19,22
2017/05/27/11:49:37.940642,125451,1495856977,940376996,0,24,86,88,57,26,21,19,22
2017/05/27/11:49:37.955503,125452,1495856977,955310106,0,24,88,85,58,29,22,20,22
2017/05/27/11:49:37.977997,125453,1495856977,977827072,0,32,100,82,57,30,22,19,19
2017/05/27/11:49:38.000856,125454,1495856978,464916,0,34,96,74,55,30,20,21,20
2017/05/27/11:49:38.015779,125455,1495856978,15378952,0,37,114,50,46,30,22,22,20
2017/05/27/11:49:38.037986,125456,1495856978,37822961,0,38,136,69,67,29,19,22,20
2017/05/27/11:49:38.068706,125457,1495856978,68501949,0,40,141,74,71,28,21,21,22
2017/05/27/11:49:38.075503,125458,1495856978,75303077,0,33,135,78,71,29,21,22,24
2017/05/27/11:49:38.098089,125459,1495856978,97826957,0,33,135,87,72,28,23,21,24
2017/05/27/11:49:38.120496,125460,1495856978,120292901,0,33,136,105,73,27,20,18,24
2017/05/27/11:49:38.135959,125461,1495856978,135526895,0,39,136,99,56,28,22,16,25
2017/05/27/11:49:38.158076,125462,1495856978,157799959,0,38,137,99,50,29,19,19,22
2017/05/27/11:49:38.180604,125463,1495856978,180341005,0,37,129,102,53,27,20,18,20
2017/05/27/11:49:38.195632,125464,1495856978,195322036,0,38,129,92,50,30,19,17,17
2017/05/27/11:49:38.218019,125465,1495856978,217819929,0,36,111,77,49,30,20,19,16
2017/05/27/11:49:38.240517,125466,1495856978,240326881,0,32,86,71,46,31,20,19,16
2017/05/27/11:49:38.255809,125467,1495856978,255486011,0,33,80,68,45,30,20,17,18
2017/05/27/11:49:38.278007,125468,1495856978,277842044,0,34,90,62,42,30,20,17,19
2017/05/27/11:49:38.300844,125469,1495856978,300426959,0,39,101,67,41,26,20,18,21
2017/05/27/11:49:38.315555,125470,1495856978,315372943,0,39,110,74,65,27,19,18,22
2017/05/27/11:49:38.338025,125471,1495856978,337874889,0,37,107,73,67,29,21,18,23
2017/05/27/11:49:38.360567,125472,1495856978,360369920,0,35,103,74,67,29,21,19,21
2017/05/27/11:49:38.375615,125473,1495856978,375313043,0,35,95,79,69,31,23,20,21
2017/05/27/11:49:38.398121,125474,1495856978,397840976,0,26,75,87,75,32,24,20,20
2017/05/27/11:49:38.420433,125475,1495856978,420272111,0,26,72,75,55,30,23,20,18
2017/05/27/11:49:38.435656,125476,1495856978,435430049,0,34,90,79,54,30,21,21,17
2017/05/27/11:49:38.458205,125477,1495856978,457897901,0,41,108,78,54,30,23,20,18
2017/05/27/11:49:38.480500,125478,1495856978,480330944,0,42,114,72,54,33,21,20,19
2017/05/27/11:49:38.497121,125479,1495856978,496860980,0,52,130,89,74,36,22,19,22
2017/05/27/11:49:38.517974,125480,1495856978,517791032,0,55,142,104,83,37,23,19,24
2017/05/27/11:49:38.540600,125481,1495856978,540345907,0,51,140,121,100,44,27,20,25
2017/05/27/11:49:38.555518,125482,1495856978,555320024,0,51,147,139,108,48,28,22,25
2017/05/27/11:49:38.577984,125483,1495856978,577804088,0,51,148,147,114,49,30,22,25
2017/05/27/11:49:38.600434,125484,1495856978,600281000,0,44,140,135,104,49,30,23,24
2017/05/27/11:49:38.615480,125485,1495856978,615323066,0,40,129,148,100,50,31,22,23
2017/05/27/11:49:38.637927,125486,1495856978,637814044,0,37,122,133,82,42,26,21,20
2017/05/27/11:49:38.660579,125487,1495856978,660361051,0,30,98,131,105,51,30,23,20
2017/05/27/11:49:38.675518,125488,1495856978,675338029,0,30,103,131,100,49,29,24,21
2017/05/27/11:49:38.698120,125489,1495856978,697886943,0,26,98,137,98,47,29,22,18
2017/05/27/11:49:38.720545,125490,1495856978,720315933,0,27,87,115,95,45,29,22,20
2017/05/27/11:49:38.735612,125491,1495856978,735424995,0,29,97,123,103,47,28,22,21
2017/05/27/11:49:38.758112,125492,1495856978,757893085,0,30,99,121,88,33,23,19,21
2017/05/27/11:49:38.780478,125493,1495856978,780354022,0,30,94,116,87,34,23,18,21
2017/05/27/11:49:38.803123,125494,1495856978,802891016,0,29,90,107,84,33,24,19,21
2017/05/27/11:49:38.817963,125495,1495856978,817761898,0,31,101,131,106,41,24,20,19
2017/05/27/11:49:38.840724,125496,1495856978,840445041,0,29,87,126,104,41,26,20,22
2017/05/27/11:49:38.863008,125497,1495856978,862818956,0,32,93,116,101,42,26,20,22
