time,.header.seq,.header.stamp.secs,.header.stamp.nsecs,.header.frame_id,.ch0,.ch1,.ch2,.ch3,.ch4,.ch5,.ch6,.ch7
2017/05/27/11:50:42.320751,128661,1495857042,320545911,0,244,455,295,228,113,85,64,69
2017/05/27/11:50:42.327466,128662,1495857042,327346086,0,245,434,287,234,120,89,64,68
2017/05/27/11:50:42.350347,128663,1495857042,349947929,0,235,458,289,235,122,91,65,68
2017/05/27/11:50:42.372699,128664,1495857042,372421026,0,258,541,290,238,114,69,57,64
2017/05/27/11:50:42.387621,128665,1495857042,387357950,0,232,536,266,235,112,69,53,50
2017/05/27/11:50:42.410059,128666,1495857042,409854888,0,190,514,180,163,99,75,57,47
2017/05/27/11:50:42.432527,128667,1495857042,432336091,0,186,546,168,143,99,76,55,43
2017/05/27/11:50:42.447651,128668,1495857042,447480916,0,308,514,173,159,106,75,54,60
2017/05/27/11:50:42.470034,128669,1495857042,469847917,0,303,459,238,182,119,80,57,66
2017/05/27/11:50:42.486542,128670,1495857042,486329078,0,311,458,309,201,123,82,57,68
2017/05/27/11:50:42.507605,128671,1495857042,507416963,0,335,514,310,185,116,74,54,70
2017/05/27/11:50:42.546488,128672,1495857042,546269893,0,336,496,315,200,119,78,56,72
2017/05/27/11:50:42.547940,128673,1495857042,547837018,0,392,550,311,188,111,77,57,64
2017/05/27/11:50:42.569068,128674,1495857042,568844079,0,401,540,276,172,105,71,52,62
2017/05/27/11:50:42.599087,128675,1495857042,598886013,0,415,608,202,141,107,71,51,61
2017/05/27/11:50:42.612910,128676,1495857042,612490892,0,423,571,211,164,117,80,53,69
2017/05/27/11:50:42.629076,128677,1495857042,628889083,0,481,543,252,181,130,81,56,90
2017/05/27/11:50:42.659259,128678,1495857042,658855915,0,481,548,329,212,144,101,62,124
2017/05/27/11:50:42.672528,128679,1495857042,672343969,0,510,559,388,235,137,105,62,127
2017/05/27/11:50:42.688945,128680,1495857042,688812971,0,546,502,421,262,133,104,63,129
2017/05/27/11:50:42.711488,128681,1495857042,711327075,0,534,499,418,255,129,101,62,128
2017/05/27/11:50:42.732525,128682,1495857042,732362031,0,513,531,408,249,111,94,58,120
2017/05/27/11:50:42.749022,128683,1495857042,748847007,0,424,522,366,226,112,88,53,83
2017/05/27/11:50:42.770105,128684,1495857042,769860982,0,401,474,305,219,136,110,66,83
2017/05/27/11:50:42.792587,128685,1495857042,792361021,0,371,424,254,198,134,112,66,79
2017/05/27/11:50:42.825021,128686,1495857042,824564933,0,438,472,256,197,129,111,66,77
2017/05/27/11:50:42.830049,128687,1495857042,829881906,0,424,490,227,176,126,109,65,71
2017/05/27/11:50:42.852493,128688,1495857042,852353096,0,415,479,208,179,108,96,65,72
2017/05/27/11:50:42.876601,128689,1495857042,876349925,0,407,530,193,156,102,87,63,66
2017/05/27/11:50:42.890000,128690,1495857042,889854907,0,397,570,229,159,98,84,62,66
2017/05/27/11:50:42.912832,128691,1495857042,912486076,0,387,518,252,173,101,81,62,76
2017/05/27/11:50:42.936533,128692,1495857042,936331987,0,402,493,266,185,108,89,65,72
2017/05/27/11:50:42.950172,128693,1495857042,949948072,0,479,508,266,185,112,94,64,76
2017/05/27/11:50:42.988888,128694,1495857042,988728046,0,479,486,262,177,90,79,60,76
2017/05/27/11:50:42.990380,128695,1495857042,990288972,0,488,480,248,163,92,76,61,82
2017/05/27/11:50:43.009997,128696,1495857043,9865045,0,465,516,210,137,93,77,63,74
2017/05/27/11:50:43.040454,128697,1495857043,40004968,0,433,491,219,156,104,81,68,82
2017/05/27/11:50:43.049217,128698,1495857043,48878908,0,432,468,230,159,103,84,71,94
2017/05/27/11:50:43.069994,128699,1495857043,69820880,0,487,474,301,230,105,81,66,96
2017/05/27/11:50:43.102890,128700,1495857043,102585077,0,482,481,288,239,103,84,65,90
2017/05/27/11:50:43.109023,128701,1495857043,108860969,0,474,501,314,245,98,95,68,88
2017/05/27/11:50:43.130212,128702,1495857043,129933118,0,482,514,306,227,79,87,60,85
2017/05/27/11:50:43.161488,128703,1495857043,161292076,0,463,545,299,222,78,87,56,75
2017/05/27/11:50:43.175039,128704,1495857043,174827098,0,396,565,259,187,85,101,62,72
2017/05/27/11:50:43.190157,128705,1495857043,189879894,0,364,575,262,171,84,100,63,70
2017/05/27/11:50:43.213980,128706,1495857043,213778972,0,345,528,255,175,87,93,58,70
2017/05/27/11:50:43.228978,128707,1495857043,228812932,0,391,529,259,187,84,103,60,71
2017/05/27/11:50:43.265738,128708,1495857043,265546083,0,441,472,282,205,86,101,55,73
2017/05/27/11:50:43.280343,128709,1495857043,279964923,0,461,495,345,206,82,88,49,81
2017/05/27/11:50:43.289124,128710,1495857043,288847923,0,469,444,362,220,89,89,49,87
2017/05/27/11:50:43.327398,128711,1495857043,327229022,0,463,486,400,232,86,83,50,87
2017/05/27/11:50:43.332725,128712,1495857043,332423925,0,429,576,415,230,93,84,47,84
2017/05/27/11:50:43.356804,128713,1495857043,356430053,0,338,640,462,242,95,81,48,75
2017/05/27/11:50:43.379420,128714,1495857043,379240989,0,299,611,415,216,89,75,46,65
2017/05/27/11:50:43.392769,128715,1495857043,392433881,0,292,618,409,207,81,73,42,58
2017/05/27/11:50:43.409026,128716,1495857043,408828020,0,278,644,491,278,93,73,40,55
2017/05/27/11:50:43.437556,128717,1495857043,437345981,0,266,586,485,284,93,54,41,57
2017/05/27/11:50:43.452547,128718,1495857043,452366113,0,207,586,440,269,101,57,45,48
2017/05/27/11:50:43.468994,128719,1495857043,468791007,0,201,627,472,282,107,68,59,57
2017/05/27/11:50:43.492220,128720,1495857043,491825103,0,183,625,496,299,110,71,62,59
2017/05/27/11:50:43.512724,128721,1495857043,512454032,0,179,603,438,238,110,77,64,59
2017/05/27/11:50:43.544124,128722,1495857043,543864011,0,157,582,445,234,106,79,65,61
2017/05/27/11:50:43.551583,128723,1495857043,551321029,0,127,518,447,233,95,76,63,62
2017/05/27/11:50:43.572710,128724,1495857043,572432041,0,275,434,401,224,98,67,52,53
2017/05/27/11:50:43.596476,128725,1495857043,596326112,0,331,477,353,198,98,68,51,53
2017/05/27/11:50:43.611498,128726,1495857043,611305952,0,387,494,362,226,121,71,52,56
2017/05/27/11:50:43.632748,128727,1495857043,632419109,0,400,531,431,257,137,75,56,52
2017/05/27/11:50:43.656471,128728,1495857043,656275987,0,408,523,447,268,140,72,58,50
2017/05/27/11:50:43.671479,128729,1495857043,671323060,0,332,520,482,292,160,120,168,78
2017/05/27/11:50:43.708217,128730,1495857043,708055019,0,283,527,527,326,172,126,175,81
2017/05/27/11:50:43.716743,128731,1495857043,716562986,0,211,546,510,317,169,137,182,87
2017/05/27/11:50:43.731483,128732,1495857043,731302022,0,179,496,453,302,179,154,191,99
2017/05/27/11:50:43.760065,128733,1495857043,759884119,0,156,535,440,288,178,160,191,99
2017/05/27/11:50:43.775058,128734,1495857043,774857044,0,135,537,406,273,167,142,114,82
2017/05/27/11:50:43.791440,128735,1495857043,791294097,0,136,646,468,306,190,149,104,82
2017/05/27/11:50:43.821597,128736,1495857043,821309089,0,119,641,453,298,187,141,96,78
2017/05/27/11:50:43.835186,128737,1495857043,834846973,0,117,681,479,326,185,128,75,62
2017/05/27/11:50:43.851534,128738,1495857043,851331949,0,112,645,465,326,187,137,74,63
2017/05/27/11:50:43.874000,128739,1495857043,873794078,0,117,657,474,328,180,139,86,60
2017/05/27/11:50:43.895179,128740,1495857043,894942045,0,92,537,369,282,150,128,84,56
2017/05/27/11:50:43.911513,128741,1495857043,911320924,0,79,457,343,272,157,124,80,49
2017/05/27/11:50:43.934066,128742,1495857043,933846950,0,84,421,306,232,147,131,83,51
2017/05/27/11:50:43.955042,128743,1495857043,954854965,0,94,451,316,235,159,152,87,61
2017/05/27/11:50:43.971592,128744,1495857043,971384048,0,100,491,458,288,168,141,74,64
2017/05/27/11:50:43.994039,128745,1495857043,993823051,0,107,544,484,305,178,143,83,65
2017/05/27/11:50:44.015183,128746,1495857044,14880895,0,106,542,465,299,182,172,100,73
2017/05/27/11:50:44.031469,128747,1495857044,31286954,0,120,625,480,312,226,199,96,79
2017/05/27/11:50:44.052540,128748,1495857044,52354097,0,117,662,579,354,235,177,94,75
2017/05/27/11:50:44.076508,128749,1495857044,76329946,0,126,750,506,299,228,180,95,73
2017/05/27/11:50:44.099124,128750,1495857044,98805904,0,125,762,497,263,226,180,94,75
2017/05/27/11:50:44.113976,128751,1495857044,113790035,0,129,780,521,264,208,161,80,70
2017/05/27/11:50:44.135132,128752,1495857044,134876966,0,112,703,506,251,158,115,77,61
2017/05/27/11:50:44.151517,128753,1495857044,151309967,0,117,695,378,194,136,118,76,57
2017/05/27/11:50:44.172782,128754,1495857044,172384977,0,110,653,325,211,155,116,69,55
2017/05/27/11:50:44.211516,128755,1495857044,211268901,0,125,696,341,230,167,135,79,64
2017/05/27/11:50:44.217233,128756,1495857044,217030048,0,136,737,357,238,188,132,83,66
2017/05/27/11:50:44.232545,128757,1495857044,232346057,0,153,814,391,225,193,136,92,71
2017/05/27/11:50:44.264006,128758,1495857044,263818979,0,159,843,424,220,186,129,92,74
2017/05/27/11:50:44.271553,128759,1495857044,271333932,0,152,762,425,214,172,124,92,73
2017/05/27/11:50:44.292670,128760,1495857044,292373895,0,143,724,413,213,179,125,87,69
2017/05/27/11:50:44.324025,128761,1495857044,323843955,0,140,674,395,210,188,122,88,78
2017/05/27/11:50:44.339023,128762,1495857044,338843107,0,123,620,364,214,195,120,83,73
2017/05/27/11:50:44.352467,128763,1495857044,352281093,0,110,564,356,223,216,138,83,75
2017/05/27/11:50:44.375162,128764,1495857044,374893903,0,120,620,353,225,214,145,96,80
2017/05/27/11:50:44.396060,128765,1495857044,395601987,0,112,529,362,203,201,147,91,80
2017/05/27/11:50:44.414147,128766,1495857044,413846015,0,104,515,378,198,175,145,90,70
2017/05/27/11:50:44.441458,128767,1495857044,441279888,0,106,547,414,229,158,141,86,71
2017/05/27/11:50:44.451439,128768,1495857044,451268911,0,113,521,417,228,168,127,84,69
2017/05/27/11:50:44.488182,128769,1495857044,488034963,0,117,479,439,215,177,132,74,66
2017/05/27/11:50:44.494972,128770,1495857044,494821071,0,149,621,418,231,191,111,73,65
2017/05/27/11:50:44.511499,128771,1495857044,511293888,0,153,650,387,225,195,108,61,62
2017/05/27/11:50:44.541533,128772,1495857044,541330099,0,159,634,322,181,195,110,64,65
2017/05/27/11:50:44.555092,128773,1495857044,554893970,0,152,623,281,159,167,110,71,64
2017/05/27/11:50:44.571457,128774,1495857044,571290016,0,144,650,286,179,170,107,68,63
2017/05/27/11:50:44.601509,128775,1495857044,601304054,0,111,517,297,163,149,104,62,60
2017/05/27/11:50:44.615185,128776,1495857044,614893913,0,103,481,336,196,161,114,64,58
2017/05/27/11:50:44.631491,128777,1495857044,631310939,0,90,418,346,199,169,117,67,57
2017/05/27/11:50:44.653954,128778,1495857044,653784036,0,90,414,379,221,174,114,63,56
2017/05/27/11:50:44.675059,128779,1495857044,674885988,0,89,380,385,214,174,100,59,59
2017/05/27/11:50:44.691622,128780,1495857044,691324949,0,104,413,376,202,178,99,64,64
2017/05/27/11:50:44.714037,128781,1495857044,713824987,0,115,430,385,185,165,97,67,69
2017/05/27/11:50:44.742582,128782,1495857044,742389917,0,120,438,397,215,180,112,65,70
2017/05/27/11:50:44.765674,128783,1495857044,765535116,0,129,440,363,196,181,109,62,69
2017/05/27/11:50:44.772494,128784,1495857044,772319078,0,130,449,323,199,172,115,64,66
2017/05/27/11:50:44.795021,128785,1495857044,794810056,0,116,412,305,209,170,110,60,62
2017/05/27/11:50:44.819162,128786,1495857044,818881988,0,110,449,239,204,164,102,60,63
2017/05/27/11:50:44.832575,128787,1495857044,832312107,0,107,481,240,207,144,80,58,56
2017/05/27/11:50:44.855130,128788,1495857044,854862928,0,104,537,244,206,142,84,61,58
2017/05/27/11:50:44.877497,128789,1495857044,877360105,0,109,520,236,200,142,83,58,54
2017/05/27/11:50:44.892931,128790,1495857044,892433881,0,118,553,245,203,136,88,57,51
2017/05/27/11:50:44.931586,128791,1495857044,931297063,0,122,534,259,218,155,94,57,55
2017/05/27/11:50:44.933091,128792,1495857044,932763099,0,121,534,230,193,153,99,65,55
2017/05/27/11:50:44.952549,128793,1495857044,952347993,0,114,495,235,201,149,99,64,56
2017/05/27/11:50:44.982517,128794,1495857044,982347965,0,129,528,292,228,151,101,68,59
2017/05/27/11:50:44.991488,128795,1495857044,991338014,0,127,590,313,228,147,99,69,59
2017/05/27/11:50:45.012573,128796,1495857045,12353897,0,123,577,300,200,168,119,71,54
2017/05/27/11:50:45.043971,128797,1495857045,43828964,0,125,582,331,209,175,119,65,54
2017/05/27/11:50:45.057490,128798,1495857045,57352066,0,126,592,355,213,179,120,67,50
2017/05/27/11:50:45.072796,128799,1495857045,72417020,0,107,582,320,182,181,121,66,52
2017/05/27/11:50:45.097035,128800,1495857045,96787929,0,109,578,296,168,181,117,67,60
2017/05/27/11:50:45.117575,128801,1495857045,117436885,0,119,585,303,187,154,91,59,56
2017/05/27/11:50:45.133963,128802,1495857045,133794069,0,118,563,300,219,168,111,58,60
2017/05/27/11:50:45.155016,128803,1495857045,154874086,0,120,565,277,221,176,107,54,63
2017/05/27/11:50:45.177504,128804,1495857045,177385091,0,120,558,265,215,168,102,48,60
2017/05/27/11:50:45.209651,128805,1495857045,209498882,0,150,535,302,240,181,106,54,62
2017/05/27/11:50:45.222573,128806,1495857045,222402095,0,143,514,306,241,207,109,55,61
2017/05/27/11:50:45.237634,128807,1495857045,237377882,0,147,587,298,204,189,83,52,56
2017/05/27/11:50:45.261497,128808,1495857045,261322975,0,142,550,298,194,180,79,53,54
2017/05/27/11:50:45.275165,128809,1495857045,274873971,0,141,554,344,194,179,77,55,56
2017/05/27/11:50:45.297499,128810,1495857045,297313928,0,119,518,334,168,175,78,59,50
2017/05/27/11:50:45.321752,128811,1495857045,321332931,0,125,575,349,171,134,65,56,53
2017/05/27/11:50:45.335355,128812,1495857045,334955930,0,138,582,341,160,127,61,55,55
2017/05/27/11:50:45.373930,128813,1495857045,373738050,0,147,608,363,167,127,69,55,56
2017/05/27/11:50:45.375413,128814,1495857045,375277996,0,149,610,352,193,129,70,55,53
2017/05/27/11:50:45.395075,128815,1495857045,394862890,0,141,587,393,204,153,79,53,55
2017/05/27/11:50:45.433928,128816,1495857045,433757066,0,132,535,378,194,147,84,57,55
2017/05/27/11:50:45.435416,128817,1495857045,435301065,0,106,451,361,193,141,88,55,57
2017/05/27/11:50:45.455124,128818,1495857045,454879045,0,102,476,335,177,141,89,62,59
2017/05/27/11:50:45.486406,128819,1495857045,486274957,0,123,473,300,144,150,100,65,64
2017/05/27/11:50:45.493903,128820,1495857045,493768930,0,122,497,230,136,118,93,58,58
2017/05/27/11:50:45.515247,128821,1495857045,514945983,0,124,501,244,180,134,93,56,60
2017/05/27/11:50:45.538930,128822,1495857045,538753032,0,122,463,249,190,142,90,59,57
2017/05/27/11:50:45.554116,128823,1495857045,553879022,0,116,415,247,196,140,85,54,55
2017/05/27/11:50:45.575123,128824,1495857045,574911117,0,95,432,261,203,133,73,54,57
2017/05/27/11:50:45.597506,128825,1495857045,597331047,0,80,366,246,205,129,74,54,60
2017/05/27/11:50:45.614013,128826,1495857045,613815069,0,86,360,282,179,118,74,56,61
2017/05/27/11:50:45.650815,128827,1495857045,650619029,0,87,392,282,167,115,90,63,64
2017/05/27/11:50:45.657545,128828,1495857045,657407999,0,88,371,281,161,107,89,62,62
2017/05/27/11:50:45.674028,128829,1495857045,673832893,0,76,309,279,178,106,89,59,55
2017/05/27/11:50:45.710783,128830,1495857045,710580110,0,84,365,282,162,103,81,58,54
2017/05/27/11:50:45.717710,128831,1495857045,717411041,0,80,384,237,146,96,82,61,55
2017/05/27/11:50:45.733889,128832,1495857045,733748912,0,87,383,231,163,94,73,66,56
2017/05/27/11:50:45.764004,128833,1495857045,763861894,0,95,484,320,223,134,83,68,57
2017/05/27/11:50:45.777536,128834,1495857045,777373075,0,98,499,309,210,129,82,67,56
2017/05/27/11:50:45.793972,128835,1495857045,793780088,0,98,477,297,212,129,82,63,51
2017/05/27/11:50:45.816462,128836,1495857045,816297054,0,98,492,302,212,131,81,61,46
2017/05/27/11:50:45.841436,128837,1495857045,841118097,0,94,498,311,207,135,88,49,41
2017/05/27/11:50:45.854031,128838,1495857045,853846073,0,88,443,210,139,95,78,55,38
2017/05/27/11:50:45.877002,128839,1495857045,876780986,0,100,512,223,132,94,77,58,41
2017/05/27/11:50:45.900879,128840,1495857045,900696992,0,101,538,230,140,91,79,59,43
2017/05/27/11:50:45.929659,128841,1495857045,929507970,0,96,515,199,140,87,77,60,45
2017/05/27/11:50:45.935114,128842,1495857045,934817075,0,102,521,179,128,83,63,61,47
2017/05/27/11:50:45.957566,128843,1495857045,957428932,0,103,490,179,130,81,66,52,45
2017/05/27/11:50:45.989615,128844,1495857045,989485025,0,90,395,156,130,87,75,51,47
2017/05/27/11:50:45.994895,128845,1495857045,994769096,0,82,336,147,118,91,80,60,48
2017/05/27/11:50:46.017488,128846,1495857046,17363071,0,81,391,147,121,89,81,58,49
2017/05/27/11:50:46.041467,128847,1495857046,41304111,0,67,366,151,123,83,81,56,54
2017/05/27/11:50:46.055038,128848,1495857046,54872989,0,64,408,189,148,90,82,65,80
2017/05/27/11:50:46.077512,128849,1495857046,77357053,0,64,422,198,154,88,82,68,82
2017/05/27/11:50:46.101459,128850,1495857046,101311922,0,70,436,223,165,79,75,64,84
2017/05/27/11:50:46.114987,128851,1495857046,114847898,0,103,454,243,176,98,97,68,86
2017/05/27/11:50:46.153222,128852,1495857046,153064966,0,119,509,280,196,113,103,81,89
2017/05/27/11:50:46.160011,128853,1495857046,159856081,0,119,478,269,182,110,107,77,68
2017/05/27/11:50:46.175132,128854,1495857046,174865007,0,119,486,283,198,111,106,77,64
2017/05/27/11:50:46.213175,128855,1495857046,213021993,0,121,502,295,192,113,105,74,60
2017/05/27/11:50:46.220070,128856,1495857046,219871997,0,104,471,298,181,97,83,68,53
2017/05/27/11:50:46.235250,128857,1495857046,234837055,0,88,403,265,154,82,73,52,39
2017/05/27/11:50:46.266813,128858,1495857046,266380071,0,85,406,249,154,88,73,52,40
2017/05/27/11:50:46.280149,128859,1495857046,279953956,0,83,378,229,152,90,68,46,41
2017/05/27/11:50:46.294962,128860,1495857046,294809103,0,74,367,210,150,101,81,45,41
2017/05/27/11:50:46.318996,128861,1495857046,318818092,0,75,332,192,149,104,80,44,40
2017/05/27/11:50:46.339991,128862,1495857046,339843988,0,73,339,237,187,114,82,44,42
2017/05/27/11:50:46.355233,128863,1495857046,354952096,0,71,358,232,178,109,84,50,42
2017/05/27/11:50:46.377554,128864,1495857046,377381086,0,69,385,225,164,111,89,55,43
2017/05/27/11:50:46.400014,128865,1495857046,399835109,0,75,382,214,160,100,77,58,42
2017/05/27/11:50:46.432256,128866,1495857046,432046890,0,63,396,222,168,97,79,60,44
2017/05/27/11:50:46.438639,128867,1495857046,438441038,0,65,397,191,132,87,81,63,47
2017/05/27/11:50:46.459986,128868,1495857046,459808111,0,62,372,195,136,94,73,54,45
2017/05/27/11:50:46.482558,128869,1495857046,482359886,0,63,338,195,125,83,67,44,40
2017/05/27/11:50:46.497477,128870,1495857046,497301101,0,55,324,234,146,85,67,43,41
2017/05/27/11:50:46.520161,128871,1495857046,519895076,0,60,336,215,140,91,69,45,41
2017/05/27/11:50:46.544058,128872,1495857046,543792009,0,71,353,214,146,92,64,43,35
2017/05/27/11:50:46.557461,128873,1495857046,557305097,0,75,344,222,142,84,66,44,36
2017/05/27/11:50:46.587529,128874,1495857046,587340116,0,76,346,231,154,86,68,46,42
2017/05/27/11:50:46.596511,128875,1495857046,596323013,0,83,348,194,139,88,68,47,43
2017/05/27/11:50:46.617523,128876,1495857046,617307901,0,79,297,213,167,89,67,45,45
2017/05/27/11:50:46.647499,128877,1495857046,647336959,0,73,301,240,187,100,72,49,49
2017/05/27/11:50:46.656433,128878,1495857046,656246900,0,78,333,255,192,99,66,48,47
2017/05/27/11:50:46.677571,128879,1495857046,677405118,0,81,344,250,187,103,86,56,46
2017/05/27/11:50:46.708981,128880,1495857046,708808898,0,76,359,294,226,117,87,55,46
2017/05/27/11:50:46.722472,128881,1495857046,722287893,0,77,364,313,215,114,83,53,43
2017/05/27/11:50:46.737675,128882,1495857046,737366914,0,75,377,288,189,102,83,47,40
2017/05/27/11:50:46.761447,128883,1495857046,761276960,0,74,350,271,187,96,82,46,43
2017/05/27/11:50:46.776484,128884,1495857046,776289939,0,72,352,297,198,95,61,39,44
2017/05/27/11:50:46.797505,128885,1495857046,797314882,0,71,352,270,148,75,61,40,45
2017/05/27/11:50:46.821854,128886,1495857046,821329116,0,70,353,236,122,74,72,45,48
2017/05/27/11:50:46.836503,128887,1495857046,836302042,0,71,295,228,127,70,62,45,48
2017/05/27/11:50:46.873394,128888,1495857046,873178005,0,68,325,247,131,79,66,47,47
2017/05/27/11:50:46.880133,128889,1495857046,879889965,0,67,330,249,117,71,64,44,45
2017/05/27/11:50:46.896484,128890,1495857046,896311044,0,74,341,243,120,79,68,49,47
2017/05/27/11:50:46.917597,128891,1495857046,917368888,0,77,405,239,130,81,59,44,41
2017/05/27/11:50:46.940038,128892,1495857046,939847946,0,76,445,277,175,86,65,44,40
2017/05/27/11:50:46.962540,128893,1495857046,962354898,0,84,448,264,180,89,64,46,40
2017/05/27/11:50:46.977468,128894,1495857046,977303028,0,83,431,229,177,93,62,52,39
2017/05/27/11:50:46.999996,128895,1495857046,999826908,0,76,447,222,180,93,55,46,33
2017/05/27/11:50:47.022600,128896,1495857047,22320985,0,76,427,232,183,90,53,48,36
2017/05/27/11:50:47.037699,128897,1495857047,37381887,0,88,474,226,152,90,48,47,34
2017/05/27/11:50:47.060005,128898,1495857047,59830904,0,80,495,235,156,93,43,46,32
2017/05/27/11:50:47.082477,128899,1495857047,82290887,0,84,504,231,163,92,42,42,34
2017/05/27/11:50:47.097605,128900,1495857047,97387075,0,88,502,231,162,95,57,45,35
2017/05/27/11:50:47.121441,128901,1495857047,119905948,0,89,532,251,166,96,66,54,39
2017/05/27/11:50:47.142491,128902,1495857047,142306089,0,79,472,223,180,113,81,63,51
2017/05/27/11:50:47.165168,128903,1495857047,164833068,0,80,448,213,173,110,83,65,52
2017/05/27/11:50:47.180035,128904,1495857047,179872035,0,84,457,217,171,111,88,68,55
2017/05/27/11:50:47.202688,128905,1495857047,202387094,0,80,428,219,176,106,79,64,53
2017/05/27/11:50:47.217513,128906,1495857047,217346906,0,77,351,193,172,119,87,64,53
2017/05/27/11:50:47.240043,128907,1495857047,239840984,0,76,359,182,142,102,72,54,44
2017/05/27/11:50:47.262462,128908,1495857047,262335062,0,75,360,172,134,112,83,49,44
2017/05/27/11:50:47.277482,128909,1495857047,277299880,0,73,351,185,151,140,83,44,41
2017/05/27/11:50:47.317229,128910,1495857047,317056894,0,75,387,188,158,148,86,44,40
2017/05/27/11:50:47.322484,128911,1495857047,322319984,0,74,384,178,154,159,84,38,37
2017/05/27/11:50:47.337567,128912,1495857047,337351083,0,75,353,180,156,177,91,39,37
2017/05/27/11:50:47.367530,128913,1495857047,367331027,0,72,333,195,152,168,83,40,35
2017/05/27/11:50:47.382638,128914,1495857047,382405996,0,69,346,203,127,144,79,39,35
2017/05/27/11:50:47.397557,128915,1495857047,397341012,0,69,288,212,134,145,79,41,40
2017/05/27/11:50:47.420213,128916,1495857047,419909000,0,70,301,211,126,145,65,34,36
2017/05/27/11:50:47.442538,128917,1495857047,442323923,0,75,374,211,135,123,57,36,37
2017/05/27/11:50:47.458707,128918,1495857047,457418918,0,81,395,218,139,125,56,35,38
2017/05/27/11:50:47.480045,128919,1495857047,479855060,0,80,373,209,140,137,63,35,38
2017/05/27/11:50:47.502670,128920,1495857047,502376079,0,75,360,176,107,130,59,32,33
2017/05/27/11:50:47.517452,128921,1495857047,517275094,0,78,337,171,115,140,68,40,39
2017/05/27/11:50:47.540006,128922,1495857047,539804935,0,72,258,162,109,145,68,39,37
2017/05/27/11:50:47.562576,128923,1495857047,562333106,0,69,225,137,105,156,69,40,36
2017/05/27/11:50:47.585153,128924,1495857047,584872961,0,96,382,238,141,155,63,43,48
2017/05/27/11:50:47.600179,128925,1495857047,599864959,0,119,471,275,150,157,69,47,64
2017/05/27/11:50:47.622519,128926,1495857047,622328042,0,127,525,303,172,126,61,42,65
2017/05/27/11:50:47.637668,128927,1495857047,637403964,0,139,572,333,188,137,60,42,70
2017/05/27/11:50:47.660039,128928,1495857047,659857988,0,140,595,336,193,123,55,40,70
2017/05/27/11:50:47.682638,128929,1495857047,682348966,0,121,508,266,169,115,60,39,62
2017/05/27/11:50:47.699007,128930,1495857047,698796033,0,106,461,251,188,120,63,44,55
2017/05/27/11:50:47.719972,128931,1495857047,719793081,0,92,400,227,171,115,62,49,54
2017/05/27/11:50:47.742600,128932,1495857047,742347002,0,75,347,181,149,90,60,52,47
2017/05/27/11:50:47.759044,128933,1495857047,758795976,0,70,296,165,140,84,58,73,52
2017/05/27/11:50:47.779975,128934,1495857047,779771089,0,67,291,158,137,76,51,73,53
2017/05/27/11:50:47.810248,128935,1495857047,809971094,0,60,238,112,101,71,66,98,95
2017/05/27/11:50:47.818972,128936,1495857047,818773984,0,58,240,93,87,72,67,99,98
2017/05/27/11:50:47.864057,128937,1495857047,863789081,0,56,216,89,77,69,67,100,100
2017/05/27/11:50:47.865447,128938,1495857047,865258932,0,55,218,86,75,69,66,87,99
2017/05/27/11:50:47.878949,128939,1495857047,878762960,0,57,203,91,69,70,67,86,98
2017/05/27/11:50:47.900100,128940,1495857047,899858951,0,55,197,94,55,58,39,53,51
2017/05/27/11:50:47.923994,128941,1495857047,923804998,0,55,183,101,65,56,36,138,88
2017/05/27/11:50:47.945084,128942,1495857047,944866895,0,49,163,98,66,56,35,139,89
2017/05/27/11:50:47.960381,128943,1495857047,960068941,0,46,141,97,62,56,35,143,91
2017/05/27/11:50:47.983965,128944,1495857047,983767986,0,43,135,84,64,56,46,172,107
2017/05/27/11:50:48.005049,128945,1495857048,4815101,0,39,155,77,65,40,58,176,113
2017/05/27/11:50:48.021547,128946,1495857048,21286010,0,35,149,66,51,34,58,123,87
2017/05/27/11:50:48.042650,128947,1495857048,42331933,0,40,156,59,45,35,58,120,87
2017/05/27/11:50:48.064979,128948,1495857048,64779996,0,43,167,58,45,32,59,136,98
2017/05/27/11:50:48.095964,128949,1495857048,95602035,0,47,164,53,43,30,50,106,85
2017/05/27/11:50:48.102863,128950,1495857048,102464914,0,45,141,46,39,27,33,100,77
2017/05/27/11:50:48.124997,128951,1495857048,124820947,0,44,135,39,37,26,30,97,75
2017/05/27/11:50:48.149031,128952,1495857048,148816108,0,41,118,38,38,26,29,95,71
2017/05/27/11:50:48.162580,128953,1495857048,162352085,0,47,152,61,44,27,29,60,52
2017/05/27/11:50:48.185117,128954,1495857048,184873104,0,46,149,69,44,25,28,41,41
2017/05/27/11:50:48.209061,128955,1495857048,208820104,0,49,156,84,50,24,25,35,38
2017/05/27/11:50:48.222799,128956,1495857048,222445011,0,49,160,92,58,24,26,28,32
2017/05/27/11:50:48.244982,128957,1495857048,244788885,0,48,175,208,128,56,32,27,29
2017/05/27/11:50:48.261511,128958,1495857048,261271953,0,43,179,224,150,56,29,28,28
2017/05/27/11:50:48.282537,128959,1495857048,282345056,0,46,181,223,150,58,30,29,29
2017/05/27/11:50:48.305258,128960,1495857048,304974079,0,44,180,223,152,59,30,28,28
2017/05/27/11:50:48.320028,128961,1495857048,319835901,0,46,181,235,156,65,29,29,30
2017/05/27/11:50:48.342667,128962,1495857048,342369079,0,58,169,182,132,45,28,29,33
2017/05/27/11:50:48.365208,128963,1495857048,364998102,0,72,130,197,128,54,31,27,30
2017/05/27/11:50:48.380124,128964,1495857048,379873991,0,72,130,212,149,61,33,28,29
2017/05/27/11:50:48.402783,128965,1495857048,402484893,0,71,118,208,147,60,33,30,27
2017/05/27/11:50:48.425068,128966,1495857048,424839973,0,94,155,258,184,72,36,30,33
2017/05/27/11:50:48.440248,128967,1495857048,439920902,0,118,182,262,190,77,38,32,37
2017/05/27/11:50:48.463996,128968,1495857048,463790893,0,217,211,318,236,89,41,36,51
2017/05/27/11:50:48.485234,128969,1495857048,484939098,0,228,204,320,238,89,41,38,56
2017/05/27/11:50:48.501506,128970,1495857048,501298904,0,233,217,351,255,94,42,37,58
2017/05/27/11:50:48.522649,128971,1495857048,522352933,0,245,196,318,232,83,39,35,56
2017/05/27/11:50:48.545058,128972,1495857048,544851064,0,263,212,301,219,77,35,37,61
2017/05/27/11:50:48.561630,128973,1495857048,561362028,0,195,179,230,166,57,29,34,53
2017/05/27/11:50:48.590012,128974,1495857048,589819908,0,212,190,225,155,55,30,33,57
2017/05/27/11:50:48.605177,128975,1495857048,604890108,0,224,212,192,136,48,29,31,59
2017/05/27/11:50:48.621460,128976,1495857048,621270895,0,214,221,187,139,48,30,31,58
2017/05/27/11:50:48.651521,128977,1495857048,651273012,0,208,183,198,140,47,28,26,52
2017/05/27/11:50:48.665171,128978,1495857048,664902925,0,355,226,187,130,51,27,23,63
2017/05/27/11:50:48.681529,128979,1495857048,681322097,0,354,247,174,120,44,23,24,57
2017/05/27/11:50:48.704040,128980,1495857048,703814029,0,356,218,164,113,43,24,24,59
2017/05/27/11:50:48.724979,128981,1495857048,724822044,0,389,205,160,102,42,23,24,61
2017/05/27/11:50:48.765368,128982,1495857048,765151977,0,385,235,170,114,42,22,27,60
2017/05/27/11:50:48.766873,128983,1495857048,766731977,0,268,204,174,107,35,22,27,48
2017/05/27/11:50:48.785135,128984,1495857048,784854888,0,280,164,184,130,42,24,24,50
2017/05/27/11:50:48.815851,128985,1495857048,815602064,0,291,174,213,154,47,25,25,47
2017/05/27/11:50:48.822896,128986,1495857048,822468996,0,245,188,206,151,46,26,25,44
2017/05/27/11:50:48.845228,128987,1495857048,844886064,0,275,167,185,140,47,28,25,49
2017/05/27/11:50:48.868914,128988,1495857048,868747949,0,270,181,197,150,51,29,25,50
2017/05/27/11:50:48.882552,128989,1495857048,882332086,0,276,194,191,128,43,27,25,53
2017/05/27/11:50:48.905330,128990,1495857048,904906034,0,255,190,156,100,41,25,27,53
2017/05/27/11:50:48.927451,128991,1495857048,927264928,0,257,173,155,102,39,24,28,53
2017/05/27/11:50:48.942551,128992,1495857048,942303895,0,217,174,176,119,47,24,26,51
2017/05/27/11:50:48.964993,128993,1495857048,964828968,0,219,150,165,113,44,22,26,50
2017/05/27/11:50:48.987537,128994,1495857048,987317085,0,178,139,176,117,47,24,27,43
2017/05/27/11:50:49.002746,128995,1495857049,2418994,0,196,138,178,114,48,26,26,39
2017/05/27/11:50:49.026475,128996,1495857049,26268959,0,221,148,178,111,49,26,25,39
2017/05/27/11:50:49.047594,128997,1495857049,47336101,0,219,123,156,107,44,24,22,35
2017/05/27/11:50:49.062503,128998,1495857049,62300920,0,209,138,164,117,46,26,23,36
2017/05/27/11:50:49.084958,128999,1495857049,84786891,0,203,193,162,128,45,27,23,35
2017/05/27/11:50:49.108909,129000,1495857049,108778953,0,215,197,165,130,42,25,20,36
2017/05/27/11:50:49.122433,129001,1495857049,122296094,0,196,215,188,140,45,25,21,36
2017/05/27/11:50:49.145153,129002,1495857049,144901990,0,195,230,187,124,41,26,21,35
2017/05/27/11:50:49.167577,129003,1495857049,167303085,0,198,224,166,113,43,25,21,34
2017/05/27/11:50:49.182678,129004,1495857049,182423114,0,197,179,163,110,45,23,19,37
2017/05/27/11:50:49.205028,129005,1495857049,204816102,0,193,200,183,126,46,24,24,42
2017/05/27/11:50:49.227494,129006,1495857049,227313995,0,181,224,162,120,48,26,24,43
2017/05/27/11:50:49.242470,129007,1495857049,242305994,0,194,225,172,124,48,26,25,45
2017/05/27/11:50:49.265064,129008,1495857049,264867067,0,183,226,172,128,49,27,24,44
2017/05/27/11:50:49.287586,129009,1495857049,287332057,0,182,236,229,167,62,33,26,45
2017/05/27/11:50:49.309986,129010,1495857049,309804916,0,161,231,229,161,63,35,25,45
2017/05/27/11:50:49.324987,129011,1495857049,324842929,0,164,206,230,164,63,35,26,45
2017/05/27/11:50:49.349026,129012,1495857049,348814010,0,143,217,219,161,64,36,26,43
2017/05/27/11:50:49.373152,129013,1495857049,372999906,0,141,217,222,160,62,36,27,43
2017/05/27/11:50:49.385036,129014,1495857049,384831905,0,138,203,162,114,49,31,28,40
2017/05/27/11:50:49.407502,129015,1495857049,407311916,0,118,187,147,110,54,31,26,36
2017/05/27/11:50:49.422635,129016,1495857049,422346115,0,106,183,148,104,54,32,27,34
2017/05/27/11:50:49.445160,129017,1495857049,444930076,0,96,154,165,111,54,32,25,30
2017/05/27/11:50:49.483834,129018,1495857049,483668088,0,97,147,171,120,58,33,25,31
2017/05/27/11:50:49.485374,129019,1495857049,485236883,0,96,161,176,122,58,35,23,30
2017/05/27/11:50:49.505211,129020,1495857049,504940032,0,102,257,189,120,53,32,23,31
2017/05/27/11:50:49.537102,129021,1495857049,536955118,0,93,251,187,121,48,31,25,33
2017/05/27/11:50:49.542426,129022,1495857049,542298078,0,87,254,192,142,52,31,26,34
2017/05/27/11:50:49.565184,129023,1495857049,564966917,0,84,262,190,134,49,32,27,32
2017/05/27/11:50:49.588963,129024,1495857049,588794946,0,80,255,185,132,49,28,28,31
2017/05/27/11:50:49.602500,129025,1495857049,602310895,0,65,180,158,122,46,27,29,29
2017/05/27/11:50:49.625233,129026,1495857049,624938011,0,59,183,162,126,47,26,27,27
2017/05/27/11:50:49.649003,129027,1495857049,648792028,0,57,172,138,96,40,25,25,26
2017/05/27/11:50:49.669985,129028,1495857049,669820070,0,54,157,132,96,38,25,24,27
2017/05/27/11:50:49.685090,129029,1495857049,684858083,0,53,162,130,89,36,24,21,28
2017/05/27/11:50:49.707467,129030,1495857049,707298994,0,49,135,132,92,43,26,20,27
2017/05/27/11:50:49.722593,129031,1495857049,722357034,0,40,107,126,83,43,28,23,25
2017/05/27/11:50:49.744975,129032,1495857049,744829893,0,40,122,133,82,47,28,25,26
2017/05/27/11:50:49.767583,129033,1495857049,767388105,0,41,118,126,96,51,28,27,27
2017/05/27/11:50:49.790163,129034,1495857049,789864063,0,40,115,120,94,51,31,27,28
2017/05/27/11:50:49.812570,129035,1495857049,812345027,0,34,124,125,99,47,29,26,27
2017/05/27/11:50:49.827645,129036,1495857049,827414035,0,34,135,119,99,47,29,25,26
2017/05/27/11:50:49.850088,129037,1495857049,849808931,0,31,122,112,94,42,27,24,25
2017/05/27/11:50:49.872551,129038,1495857049,872365951,0,31,129,114,79,39,24,22,23
2017/05/27/11:50:49.887460,129039,1495857049,887276887,0,35,125,120,87,37,22,22,21
2017/05/27/11:50:49.926366,129040,1495857049,926172971,0,36,116,121,85,37,23,22,21
2017/05/27/11:50:49.927895,129041,1495857049,927764892,0,34,100,121,83,37,22,18,23
2017/05/27/11:50:49.947695,129042,1495857049,947410106,0,34,96,115,81,35,22,16,22
2017/05/27/11:50:49.970131,129043,1495857049,969927072,0,32,90,116,82,37,24,16,22
2017/05/27/11:50:49.985056,129044,1495857049,984850883,0,26,83,129,89,39,21,16,22
2017/05/27/11:50:50.007549,129045,1495857050,7383108,0,22,65,112,85,39,20,17,22
2017/05/27/11:50:50.039632,129046,1495857050,39453029,0,24,65,108,89,37,20,18,21
2017/05/27/11:50:50.044950,129047,1495857050,44800996,0,23,64,107,89,40,24,19,20
2017/05/27/11:50:50.067607,129048,1495857050,67367076,0,23,63,113,84,35,21,20,20
2017/05/27/11:50:50.089980,129049,1495857050,89787960,0,23,59,92,73,33,22,20,21
2017/05/27/11:50:50.104976,129050,1495857050,104779958,0,22,56,93,73,31,24,19,19
2017/05/27/11:50:50.127562,129051,1495857050,127361059,0,20,67,95,68,31,26,20,19
2017/05/27/11:50:50.150169,129052,1495857050,149890899,0,20,69,95,67,25,22,19,19
2017/05/27/11:50:50.165015,129053,1495857050,164813995,0,18,63,75,56,24,24,19,18
2017/05/27/11:50:50.187548,129054,1495857050,187313079,0,21,61,58,45,21,25,19,16
2017/05/27/11:50:50.210000,129055,1495857050,209862947,0,22,60,46,39,22,25,19,17
2017/05/27/11:50:50.224970,129056,1495857050,224817037,0,21,40,41,34,20,25,18,17
2017/05/27/11:50:50.247570,129057,1495857050,247311115,0,20,35,33,31,20,25,18,18
2017/05/27/11:50:50.269969,129058,1495857050,269787073,0,22,37,27,26,20,24,17,18
2017/05/27/11:50:50.285187,129059,1495857050,284853935,0,19,47,26,23,20,23,18,18
2017/05/27/11:50:50.307487,129060,1495857050,307333946,0,19,47,25,20,20,23,19,17
2017/05/27/11:50:50.330017,129061,1495857050,329838037,0,21,47,27,22,19,21,20,18
2017/05/27/11:50:50.345079,129062,1495857050,344839096,0,21,55,26,20,20,21,18,18
2017/05/27/11:50:50.369200,129063,1495857050,368787050,0,20,53,26,21,21,21,20,18
2017/05/27/11:50:50.389988,129064,1495857050,389796018,0,21,42,22,22,21,21,19,17
2017/05/27/11:50:50.404959,129065,1495857050,404789924,0,20,40,22,23,19,19,19,18
2017/05/27/11:50:50.428509,129066,1495857050,428237915,0,20,41,19,20,20,19,18,16
2017/05/27/11:50:50.450020,129067,1495857050,449773073,0,20,31,19,20,21,18,19,16
2017/05/27/11:50:50.464999,129068,1495857050,464802026,0,21,31,18,19,18,18,19,17
2017/05/27/11:50:50.487390,129069,1495857050,487256050,0,21,27,19,17,23,18,18,18
2017/05/27/11:50:50.509973,129070,1495857050,509793043,0,21,27,20,19,24,19,17,19
2017/05/27/11:50:50.524951,129071,1495857050,524796009,0,19,30,20,19,24,19,19,20
2017/05/27/11:50:50.547637,129072,1495857050,547379016,0,21,36,21,20,23,21,19,21
2017/05/27/11:50:50.569897,129073,1495857050,569763898,0,21,36,22,20,24,21,20,20
2017/05/27/11:50:50.585034,129074,1495857050,584837913,0,20,37,22,19,21,22,21,19
2017/05/27/11:50:50.607580,129075,1495857050,607343912,0,19,37,19,19,21,22,21,19
2017/05/27/11:50:50.630134,129076,1495857050,629851102,0,22,33,20,20,19,22,19,18
2017/05/27/11:50:50.645005,129077,1495857050,644798994,0,20,27,23,24,19,20,17,17
2017/05/27/11:50:50.667474,129078,1495857050,667292118,0,21,38,23,24,19,18,16,17
2017/05/27/11:50:50.690058,129079,1495857050,689835071,0,22,38,24,24,17,20,15,17
2017/05/27/11:50:50.704981,129080,1495857050,704797983,0,23,39,24,23,17,21,15,17
2017/05/27/11:50:50.727623,129081,1495857050,727360010,0,21,40,24,24,19,20,17,17
2017/05/27/11:50:50.749996,129082,1495857050,749816894,0,21,40,21,20,19,21,18,17
2017/05/27/11:50:50.772686,129083,1495857050,772449016,0,20,43,21,21,18,21,19,16
2017/05/27/11:50:50.787503,129084,1495857050,787292957,0,20,50,21,21,20,19,19,17
2017/05/27/11:50:50.810025,129085,1495857050,809822082,0,20,51,22,21,20,19,19,19
2017/05/27/11:50:50.832477,129086,1495857050,832264900,0,21,50,23,20,21,20,18,19
2017/05/27/11:50:50.852902,129087,1495857050,847362995,0,22,50,22,22,23,20,17,19
2017/05/27/11:50:50.870020,129088,1495857050,869795083,0,22,39,22,21,23,21,18,21
2017/05/27/11:50:50.892508,129089,1495857050,892309904,0,22,48,21,21,24,20,17,21
2017/05/27/11:50:50.907542,129090,1495857050,907334089,0,22,59,22,21,25,20,16,20
2017/05/27/11:50:50.929977,129091,1495857050,929800033,0,23,60,20,20,23,20,17,19
2017/05/27/11:50:50.952662,129092,1495857050,952337026,0,24,61,21,17,22,21,19,19
2017/05/27/11:50:50.967502,129093,1495857050,967324972,0,24,61,21,19,23,21,20,17
2017/05/27/11:50:50.990032,129094,1495857050,989837884,0,25,52,22,19,22,22,21,17
2017/05/27/11:50:51.012539,129095,1495857051,12329101,0,24,38,23,19,21,22,23,17
2017/05/27/11:50:51.027505,129096,1495857051,27345895,0,23,38,23,20,20,22,22,19
2017/05/27/11:50:51.049959,129097,1495857051,49803972,0,25,51,23,21,19,21,20,19
2017/05/27/11:50:51.072535,129098,1495857051,72341918,0,25,52,22,20,20,21,19,20
2017/05/27/11:50:51.088953,129099,1495857051,88752031,0,25,50,21,23,19,21,17,21
2017/05/27/11:50:51.109993,129100,1495857051,109817028,0,24,51,21,22,19,21,15,20
2017/05/27/11:50:51.132722,129101,1495857051,132419109,0,24,49,21,21,19,22,17,20
2017/05/27/11:50:51.147467,129102,1495857051,147258996,0,20,34,21,22,21,21,18,20
2017/05/27/11:50:51.170013,129103,1495857051,169814109,0,20,51,24,23,21,20,18,20
2017/05/27/11:50:51.192588,129104,1495857051,192368984,0,17,51,24,22,22,21,20,19
2017/05/27/11:50:51.207809,129105,1495857051,207324981,0,20,51,23,24,23,19,20,19
2017/05/27/11:50:51.229955,129106,1495857051,229764938,0,22,58,25,24,22,18,19,19
2017/05/27/11:50:51.252445,129107,1495857051,252279996,0,22,58,26,24,21,19,19,19
2017/05/27/11:50:51.267449,129108,1495857051,267288923,0,22,42,26,26,21,21,23,19
2017/05/27/11:50:51.290035,129109,1495857051,289829969,0,25,42,25,25,19,20,22,20
2017/05/27/11:50:51.312610,129110,1495857051,312315940,0,23,42,26,24,21,21,23,21
2017/05/27/11:50:51.327457,129111,1495857051,327280044,0,21,34,25,24,22,25,22,20
2017/05/27/11:50:51.350048,129112,1495857051,349827051,0,21,41,23,22,21,24,22,21
2017/05/27/11:50:51.372478,129113,1495857051,372304916,0,23,41,23,19,23,24,20,23
2017/05/27/11:50:51.389284,129114,1495857051,388989925,0,22,39,22,19,23,24,19,22
2017/05/27/11:50:51.409976,129115,1495857051,409813880,0,22,38,23,18,21,24,19,22
2017/05/27/11:50:51.432517,129116,1495857051,432323932,0,22,37,23,21,19,22,20,22
2017/05/27/11:50:51.447524,129117,1495857051,447277069,0,20,26,21,22,22,22,22,21
2017/05/27/11:50:51.470038,129118,1495857051,469826936,0,19,25,20,21,20,21,22,20
2017/05/27/11:50:51.492779,129119,1495857051,492434024,0,18,23,19,22,19,20,23,19
2017/05/27/11:50:51.507551,129120,1495857051,507292985,0,19,22,17,22,18,20,25,19
2017/05/27/11:50:51.530067,129121,1495857051,529802083,0,19,20,20,20,18,21,25,19
2017/05/27/11:50:51.552438,129122,1495857051,552257061,0,19,18,20,19,15,22,23,21
2017/05/27/11:50:51.567486,129123,1495857051,567325115,0,24,17,20,20,17,24,23,20
2017/05/27/11:50:51.591431,129124,1495857051,591224908,0,24,20,21,22,19,24,23,20
2017/05/27/11:50:51.612513,129125,1495857051,612319946,0,23,20,20,24,19,24,20,20
2017/05/27/11:50:51.627429,129126,1495857051,627265930,0,23,20,18,23,22,24,21,18
2017/05/27/11:50:51.649889,129127,1495857051,649744987,0,25,20,18,24,22,23,20,19
2017/05/27/11:50:51.672455,129128,1495857051,672247886,0,20,21,18,24,20,20,18,19
2017/05/27/11:50:51.703233,129129,1495857051,702985048,0,20,20,19,22,20,21,21,19
2017/05/27/11:50:51.709978,129130,1495857051,709800958,0,21,20,21,20,21,21,20,20
2017/05/27/11:50:51.732607,129131,1495857051,732403993,0,20,20,20,19,18,20,19,21
2017/05/27/11:50:51.755080,129132,1495857051,754833936,0,18,19,20,19,20,19,20,20
2017/05/27/11:50:51.769972,129133,1495857051,769776105,0,18,18,21,17,19,18,21,19
2017/05/27/11:50:51.792482,129134,1495857051,792280912,0,15,19,20,18,20,17,20,19
2017/05/27/11:50:51.814936,129135,1495857051,814790010,0,16,18,18,16,18,17,19,19
2017/05/27/11:50:51.829998,129136,1495857051,829791069,0,16,18,18,16,20,18,18,17
2017/05/27/11:50:51.852471,129137,1495857051,852273941,0,15,18,18,17,20,18,17,17
2017/05/27/11:50:51.875010,129138,1495857051,874809980,0,14,19,19,17,20,18,18,18
2017/05/27/11:50:51.890091,129139,1495857051,889848947,0,15,17,20,17,20,20,16,19
2017/05/27/11:50:51.912541,129140,1495857051,912378072,0,16,18,20,18,22,22,18,20
2017/05/27/11:50:51.935026,129141,1495857051,934799909,0,17,18,19,21,20,21,19,21
2017/05/27/11:50:51.949991,129142,1495857051,949810028,0,17,20,20,21,19,21,20,22
2017/05/27/11:50:51.972506,129143,1495857051,972322940,0,17,20,21,22,23,22,18,21
2017/05/27/11:50:51.997248,129144,1495857051,997018098,0,19,20,20,22,22,22,19,23
2017/05/27/11:50:52.011432,129145,1495857052,11271953,0,20,21,19,23,21,21,19,23
2017/05/27/11:50:52.032502,129146,1495857052,32336950,0,20,21,20,21,24,23,19,23
2017/05/27/11:50:52.055169,129147,1495857052,54888010,0,20,19,21,21,23,22,22,23
2017/05/27/11:50:52.070006,129148,1495857052,69823980,0,21,19,18,21,19,23,23,24
2017/05/27/11:50:52.097158,129149,1495857052,97012042,0,20,21,21,21,20,22,23,21
2017/05/27/11:50:52.116115,129150,1495857052,114852905,0,18,20,22,19,20,22,24,21
2017/05/27/11:50:52.130188,129151,1495857052,129868030,0,19,20,23,18,19,21,24,20
2017/05/27/11:50:52.152533,129152,1495857052,152311086,0,19,19,22,19,18,21,21,21
2017/05/27/11:50:52.175129,129153,1495857052,174892902,0,19,18,21,20,19,22,21,22
2017/05/27/11:50:52.189933,129154,1495857052,189754962,0,19,17,19,18,21,22,24,23
2017/05/27/11:50:52.212461,129155,1495857052,212271928,0,20,17,18,20,23,22,25,22
2017/05/27/11:50:52.234963,129156,1495857052,234759092,0,22,18,17,21,22,24,25,23
2017/05/27/11:50:52.257660,129157,1495857052,257400989,0,21,19,17,19,23,24,25,24
2017/05/27/11:50:52.272439,129158,1495857052,272249937,0,20,21,19,19,25,24,25,25
2017/05/27/11:50:52.295150,129159,1495857052,294877052,0,19,20,20,20,25,21,21,23
2017/05/27/11:50:52.310113,129160,1495857052,309873104,0,19,21,21,22,23,22,22,23
2017/05/27/11:50:52.337401,129161,1495857052,337095022,0,16,19,21,21,22,20,21,22
2017/05/27/11:50:52.354981,129162,1495857052,354770898,0,17,19,21,20,23,20,23,21
2017/05/27/11:50:52.369969,129163,1495857052,369801044,0,19,19,21,20,20,19,25,19
2017/05/27/11:50:52.392539,129164,1495857052,392308950,0,20,18,20,20,19,22,26,20
2017/05/27/11:50:52.415095,129165,1495857052,414850950,0,19,17,20,17,20,22,26,20
2017/05/27/11:50:52.430129,129166,1495857052,429889917,0,19,18,19,18,21,22,25,19
2017/05/27/11:50:52.452516,129167,1495857052,452305078,0,18,21,20,18,19,23,24,18
2017/05/27/11:50:52.475137,129168,1495857052,474867105,0,18,22,20,17,20,24,22,18
2017/05/27/11:50:52.489964,129169,1495857052,489753961,0,16,22,20,18,19,24,28,17
2017/05/27/11:50:52.512494,129170,1495857052,512268066,0,16,23,21,18,18,23,28,18
2017/05/27/11:50:52.535000,129171,1495857052,534796953,0,17,23,20,19,18,23,30,18
2017/05/27/11:50:52.550173,129172,1495857052,549891948,0,19,21,20,19,18,23,30,19
2017/05/27/11:50:52.572514,129173,1495857052,572297096,0,18,21,21,21,17,23,31,19
2017/05/27/11:50:52.595181,129174,1495857052,594940900,0,19,21,20,22,19,22,26,21
2017/05/27/11:50:52.609934,129175,1495857052,609760046,0,20,20,18,22,19,21,26,20
2017/05/27/11:50:52.632753,129176,1495857052,632432937,0,21,19,20,22,22,22,23,21
2017/05/27/11:50:52.655112,129177,1495857052,654822111,0,20,17,19,23,22,22,24,20
2017/05/27/11:50:52.677426,129178,1495857052,677248954,0,20,16,17,24,23,21,22,20
2017/05/27/11:50:52.692717,129179,1495857052,692424058,0,21,17,19,23,22,19,22,17
2017/05/27/11:50:52.715008,129180,1495857052,714782953,0,19,17,17,22,23,21,20,18
2017/05/27/11:50:52.737528,129181,1495857052,737303018,0,18,19,21,22,21,20,19,17
2017/05/27/11:50:52.752598,129182,1495857052,752357959,0,19,23,28,20,20,20,18,17
2017/05/27/11:50:52.774994,129183,1495857052,774796962,0,18,26,32,19,19,21,19,18
