time,.header.seq,.header.stamp.secs,.header.stamp.nsecs,.header.frame_id,.ch0,.ch1,.ch2,.ch3,.ch4,.ch5,.ch6,.ch7
2017/05/27/11:52:23.471876,133706,1495857143,471689939,0,42,204,118,92,61,46,60,65
2017/05/27/11:52:23.494492,133707,1495857143,494245052,0,45,275,238,201,121,93,77,72
2017/05/27/11:52:23.509349,133708,1495857143,509176015,0,49,327,252,209,126,102,87,71
2017/05/27/11:52:23.531867,133709,1495857143,531677007,0,65,372,301,252,152,114,84,63
2017/05/27/11:52:23.555882,133710,1495857143,555700063,0,82,422,326,292,180,145,104,79
2017/05/27/11:52:23.576804,133711,1495857143,576628923,0,89,465,400,366,203,163,108,84
2017/05/27/11:52:23.591991,133712,1495857143,591730117,0,111,514,406,376,203,176,114,91
2017/05/27/11:52:23.616151,133713,1495857143,615962982,0,116,527,435,386,218,182,111,91
2017/05/27/11:52:23.636869,133714,1495857143,636673927,0,120,572,437,383,213,186,114,91
2017/05/27/11:52:23.659538,133715,1495857143,659234046,0,116,556,442,364,197,169,99,83
2017/05/27/11:52:23.674546,133716,1495857143,674182891,0,119,594,413,306,171,153,90,75
2017/05/27/11:52:23.696854,133717,1495857143,696692943,0,101,549,364,247,147,117,72,62
2017/05/27/11:52:23.720826,133718,1495857143,720602035,0,106,547,365,255,134,105,71,64
2017/05/27/11:52:23.736036,133719,1495857143,735845088,0,110,480,386,247,137,97,71,68
2017/05/27/11:52:23.756947,133720,1495857143,756696939,0,113,512,371,243,135,92,65,62
2017/05/27/11:52:23.773383,133721,1495857143,773135900,0,171,516,370,236,132,89,66,70
2017/05/27/11:52:23.794348,133722,1495857143,794137954,0,181,513,392,246,140,98,70,77
2017/05/27/11:52:23.825495,133723,1495857143,825117111,0,182,502,370,254,157,105,73,82
2017/05/27/11:52:23.833313,133724,1495857143,833107948,0,177,521,375,246,154,107,69,83
2017/05/27/11:52:23.854428,133725,1495857143,854188919,0,199,544,385,248,162,115,74,88
2017/05/27/11:52:23.885525,133726,1495857143,885302066,0,160,502,353,246,181,125,80,87
2017/05/27/11:52:23.891929,133727,1495857143,891688108,0,160,492,347,238,175,118,74,79
2017/05/27/11:52:23.914413,133728,1495857143,914184093,0,154,466,400,274,158,107,68,71
2017/05/27/11:52:23.945167,133729,1495857143,944895029,0,159,501,411,314,161,101,65,75
2017/05/27/11:52:23.952037,133730,1495857143,951751947,0,163,419,424,320,167,109,75,82
2017/05/27/11:52:23.974339,133731,1495857143,974134922,0,208,375,423,310,149,109,72,87
2017/05/27/11:52:23.996860,133732,1495857143,996681928,0,219,396,414,312,145,106,71,90
2017/05/27/11:52:24.011989,133733,1495857144,11750936,0,221,405,375,258,134,110,69,95
2017/05/27/11:52:24.034438,133734,1495857144,34169912,0,245,327,323,203,115,107,67,89
2017/05/27/11:52:24.056835,133735,1495857144,56660890,0,248,327,297,184,91,115,58,86
2017/05/27/11:52:24.071852,133736,1495857144,71655035,0,217,342,306,212,100,169,74,86
2017/05/27/11:52:24.094706,133737,1495857144,94289064,0,207,305,361,241,130,182,77,91
2017/05/27/11:52:24.117090,133738,1495857144,116810083,0,240,334,337,243,162,217,81,86
2017/05/27/11:52:24.131963,133739,1495857144,131717920,0,217,320,319,244,198,240,91,88
2017/05/27/11:52:24.154402,133740,1495857144,154165983,0,226,355,332,258,207,235,91,86
2017/05/27/11:52:24.176828,133741,1495857144,176614999,0,258,502,365,324,238,214,91,90
2017/05/27/11:52:24.191980,133742,1495857144,191668987,0,254,535,301,303,228,205,89,83
2017/05/27/11:52:24.222740,133743,1495857144,222436904,0,222,532,329,316,215,177,90,86
2017/05/27/11:52:24.237077,133744,1495857144,236778020,0,265,546,330,310,200,181,103,94
2017/05/27/11:52:24.251923,133745,1495857144,251651048,0,299,533,324,305,196,179,102,94
2017/05/27/11:52:24.275942,133746,1495857144,275717020,0,266,472,338,239,154,157,89,85
2017/05/27/11:52:24.297215,133747,1495857144,296869993,0,267,463,393,255,154,185,100,92
2017/05/27/11:52:24.313325,133748,1495857144,313126087,0,279,500,394,237,148,178,98,91
2017/05/27/11:52:24.334515,133749,1495857144,334191083,0,325,485,389,231,127,144,74,84
2017/05/27/11:52:24.356824,133750,1495857144,356637954,0,271,486,409,242,117,133,70,77
2017/05/27/11:52:24.387583,133751,1495857144,387360095,0,279,493,373,209,109,132,66,76
2017/05/27/11:52:24.394450,133752,1495857144,394238948,0,306,495,323,175,104,106,61,78
2017/05/27/11:52:24.416996,133753,1495857144,416639089,0,298,450,309,177,96,107,60,75
2017/05/27/11:52:24.439358,133754,1495857144,439145088,0,320,457,360,241,126,105,62,76
2017/05/27/11:52:24.454293,133755,1495857144,454097986,0,316,457,325,222,139,118,63,75
2017/05/27/11:52:24.476823,133756,1495857144,476645946,0,329,486,308,226,146,129,67,78
2017/05/27/11:52:24.503593,133757,1495857144,503247976,0,303,486,321,247,148,117,56,66
2017/05/27/11:52:24.514760,133758,1495857144,514302015,0,301,499,316,255,157,112,54,66
2017/05/27/11:52:24.536823,133759,1495857144,536636114,0,208,497,271,226,146,146,59,56
2017/05/27/11:52:24.567656,133760,1495857144,567385911,0,278,601,299,254,164,159,72,65
2017/05/27/11:52:24.575565,133761,1495857144,575299024,0,259,518,294,253,163,151,70,60
2017/05/27/11:52:24.605206,133762,1495857144,604909896,0,276,516,321,273,171,152,75,74
2017/05/27/11:52:24.619608,133763,1495857144,619159936,0,272,504,366,289,173,157,81,77
2017/05/27/11:52:24.634420,133764,1495857144,634131908,0,262,594,406,282,167,128,80,80
2017/05/27/11:52:24.665113,133765,1495857144,664931058,0,212,501,412,274,151,110,77,75
2017/05/27/11:52:24.679372,133766,1495857144,679187059,0,215,518,421,265,146,113,77,75
2017/05/27/11:52:24.695869,133767,1495857144,695688962,0,208,510,411,234,133,118,80,67
2017/05/27/11:52:24.716827,133768,1495857144,716666936,0,217,524,374,202,142,133,83,73
2017/05/27/11:52:24.739587,133769,1495857144,739249944,0,228,483,362,198,162,150,83,72
2017/05/27/11:52:24.754381,133770,1495857144,754132986,0,225,470,337,192,149,144,74,71
2017/05/27/11:52:24.776849,133771,1495857144,776645898,0,210,467,365,206,147,143,80,76
2017/05/27/11:52:24.799360,133772,1495857144,799165010,0,192,452,353,196,140,139,71,70
2017/05/27/11:52:24.821965,133773,1495857144,821655988,0,184,453,353,215,136,117,58,62
2017/05/27/11:52:24.845176,133774,1495857144,844959020,0,131,405,350,210,108,90,51,57
2017/05/27/11:52:24.868151,133775,1495857144,867873907,0,84,424,357,206,125,97,50,54
2017/05/27/11:52:24.874492,133776,1495857144,874227046,0,76,405,331,213,175,137,46,46
2017/05/27/11:52:24.896839,133777,1495857144,896646976,0,72,399,331,245,189,142,52,45
2017/05/27/11:52:24.919294,133778,1495857144,919112920,0,59,370,370,269,186,148,57,44
2017/05/27/11:52:24.942027,133779,1495857144,941706895,0,54,382,340,269,189,150,58,42
2017/05/27/11:52:24.956819,133780,1495857144,956640005,0,51,344,325,261,178,148,58,41
2017/05/27/11:52:24.996413,133781,1495857144,996196985,0,53,325,372,269,141,121,52,39
2017/05/27/11:52:24.997955,133782,1495857144,997775077,0,69,353,356,241,140,128,55,49
2017/05/27/11:52:25.016831,133783,1495857145,16647100,0,71,362,300,187,137,146,56,51
2017/05/27/11:52:25.055727,133784,1495857145,55515050,0,75,366,287,182,133,140,54,49
2017/05/27/11:52:25.057197,133785,1495857145,57061910,0,81,379,364,222,138,138,55,53
2017/05/27/11:52:25.076906,133786,1495857145,76669931,0,86,410,308,203,134,147,67,59
2017/05/27/11:52:25.107989,133787,1495857145,107816934,0,82,400,314,214,139,143,66,56
2017/05/27/11:52:25.114262,133788,1495857145,114106893,0,82,403,335,229,136,134,61,51
2017/05/27/11:52:25.136794,133789,1495857145,136630058,0,88,437,363,229,143,137,65,59
2017/05/27/11:52:25.159435,133790,1495857145,159173965,0,88,441,319,198,140,133,66,59
2017/05/27/11:52:25.174408,133791,1495857145,174201965,0,83,420,309,198,148,128,57,53
2017/05/27/11:52:25.196831,133792,1495857145,196660995,0,80,443,293,190,138,117,55,54
2017/05/27/11:52:25.219355,133793,1495857145,219157934,0,84,474,332,205,144,113,64,63
2017/05/27/11:52:25.235638,133794,1495857145,235447883,0,99,474,367,223,190,138,82,79
2017/05/27/11:52:25.264945,133795,1495857145,264717102,0,98,497,352,234,199,142,83,83
2017/05/27/11:52:25.279362,133796,1495857145,279189109,0,103,562,392,264,203,142,89,91
2017/05/27/11:52:25.294345,133797,1495857145,294199943,0,109,625,428,276,205,151,90,92
2017/05/27/11:52:25.332524,133798,1495857145,332317113,0,111,636,496,312,206,146,88,92
2017/05/27/11:52:25.339413,133799,1495857145,339164018,0,89,615,489,325,190,143,85,80
2017/05/27/11:52:25.356004,133800,1495857145,355843067,0,97,652,503,317,210,145,86,77
2017/05/27/11:52:25.386050,133801,1495857145,385710954,0,109,677,536,301,208,136,81,77
2017/05/27/11:52:25.400903,133802,1495857145,400712013,0,113,669,524,293,212,141,79,71
2017/05/27/11:52:25.415853,133803,1495857145,415611982,0,108,634,424,246,220,144,80,66
2017/05/27/11:52:25.445760,133804,1495857145,445600986,0,121,654,427,266,221,130,69,64
2017/05/27/11:52:25.459338,133805,1495857145,459151029,0,140,714,512,300,214,140,74,69
2017/05/27/11:52:25.498862,133806,1495857145,498673915,0,135,708,479,301,218,147,75,66
2017/05/27/11:52:25.500385,133807,1495857145,500257015,0,127,662,462,303,228,139,83,68
2017/05/27/11:52:25.519362,133808,1495857145,519165992,0,127,688,481,306,221,130,83,72
2017/05/27/11:52:25.550880,133809,1495857145,550569057,0,120,657,469,273,205,133,81,76
2017/05/27/11:52:25.557122,133810,1495857145,556838989,0,107,631,392,269,217,129,86,76
2017/05/27/11:52:25.579397,133811,1495857145,579200029,0,97,550,353,252,203,122,85,76
2017/05/27/11:52:25.610045,133812,1495857145,609859943,0,94,612,366,240,190,120,80,77
2017/05/27/11:52:25.616881,133813,1495857145,616641044,0,101,573,413,249,190,123,82,84
2017/05/27/11:52:25.639623,133814,1495857145,639173984,0,101,613,413,248,189,119,87,83
2017/05/27/11:52:25.663279,133815,1495857145,663070917,0,84,499,395,239,166,106,81,78
2017/05/27/11:52:25.676879,133816,1495857145,676676034,0,106,564,455,264,175,114,89,83
2017/05/27/11:52:25.699357,133817,1495857145,699143886,0,108,514,451,276,178,122,93,86
2017/05/27/11:52:25.723321,133818,1495857145,723138093,0,117,611,412,273,192,124,90,81
2017/05/27/11:52:25.744385,133819,1495857145,744178056,0,122,610,402,273,196,123,84,78
2017/05/27/11:52:25.775051,133820,1495857145,774868965,0,121,634,379,268,192,129,87,78
2017/05/27/11:52:25.781830,133821,1495857145,781647920,0,116,657,317,259,189,124,89,75
2017/05/27/11:52:25.796827,133822,1495857145,796638011,0,113,621,318,261,184,117,82,72
2017/05/27/11:52:25.835201,133823,1495857145,834872961,0,96,545,326,261,160,121,85,69
2017/05/27/11:52:25.841883,133824,1495857145,841667890,0,85,523,367,293,157,120,82,66
2017/05/27/11:52:25.857066,133825,1495857145,856761932,0,94,531,375,267,149,113,79,65
2017/05/27/11:52:25.889070,133826,1495857145,888780117,0,83,497,393,267,151,108,65,58
2017/05/27/11:52:25.901999,133827,1495857145,901716947,0,90,524,406,286,159,121,78,69
2017/05/27/11:52:25.916812,133828,1495857145,916620016,0,108,587,426,289,182,128,77,72
2017/05/27/11:52:25.940946,133829,1495857145,940648078,0,110,636,398,281,189,136,89,73
2017/05/27/11:52:25.970148,133830,1495857145,969811916,0,106,620,400,297,200,136,89,75
2017/05/27/11:52:25.977239,133831,1495857145,976810932,0,110,595,415,305,198,136,90,79
2017/05/27/11:52:26.000810,133832,1495857146,600099,0,119,663,428,289,201,126,82,72
2017/05/27/11:52:26.021903,133833,1495857146,21661043,0,104,596,381,278,180,116,84,71
2017/05/27/11:52:26.052562,133834,1495857146,52381038,0,99,522,410,257,167,105,71,68
2017/05/27/11:52:26.059310,133835,1495857146,59149980,0,106,556,409,258,167,105,73,64
2017/05/27/11:52:26.081996,133836,1495857146,81729888,0,111,577,430,301,178,115,74,60
2017/05/27/11:52:26.105779,133837,1495857146,105654954,0,109,524,441,311,172,111,74,64
2017/05/27/11:52:26.119337,133838,1495857146,119136095,0,114,531,465,320,184,127,77,64
2017/05/27/11:52:26.141834,133839,1495857146,141633033,0,116,544,432,323,180,126,79,65
2017/05/27/11:52:26.158495,133840,1495857146,158144950,0,108,480,422,309,163,123,73,61
2017/05/27/11:52:26.179271,133841,1495857146,179124116,0,95,427,379,271,147,115,67,59
2017/05/27/11:52:26.218642,133842,1495857146,218437910,0,92,424,404,282,145,109,59,47
2017/05/27/11:52:26.233972,133843,1495857146,233810901,0,84,411,372,267,134,81,48,40
2017/05/27/11:52:26.239480,133844,1495857146,239207029,0,82,442,369,255,135,85,54,38
2017/05/27/11:52:26.278238,133845,1495857146,278039932,0,82,464,374,254,140,100,61,40
2017/05/27/11:52:26.279767,133846,1495857146,279581069,0,88,496,353,234,144,110,66,44
2017/05/27/11:52:26.299348,133847,1495857146,299120903,0,77,451,332,224,140,113,80,55
2017/05/27/11:52:26.330022,133848,1495857146,329818964,0,93,480,333,221,138,119,85,62
2017/05/27/11:52:26.337382,133849,1495857146,336672067,0,92,417,319,217,148,121,88,70
2017/05/27/11:52:26.359463,133850,1495857146,359196901,0,90,428,324,216,184,112,83,70
2017/05/27/11:52:26.383242,133851,1495857146,383100032,0,88,423,363,243,220,105,85,71
2017/05/27/11:52:26.404459,133852,1495857146,404180049,0,87,458,302,210,250,118,81,66
2017/05/27/11:52:26.419367,133853,1495857146,419150114,0,76,471,298,202,260,121,73,61
2017/05/27/11:52:26.441823,133854,1495857146,441618919,0,87,515,297,204,262,125,65,54
2017/05/27/11:52:26.464670,133855,1495857146,464253902,0,88,579,308,209,242,123,66,53
2017/05/27/11:52:26.495040,133856,1495857146,494847059,0,86,561,296,175,212,123,64,54
2017/05/27/11:52:26.502543,133857,1495857146,501732110,0,98,600,336,205,180,111,58,52
2017/05/27/11:52:26.524353,133858,1495857146,524142026,0,105,635,353,203,181,107,64,52
2017/05/27/11:52:26.547672,133859,1495857146,547405004,0,94,618,353,191,169,92,64,52
2017/05/27/11:52:26.561932,133860,1495857146,561666011,0,98,586,366,215,168,95,66,69
2017/05/27/11:52:26.584316,133861,1495857146,584182024,0,93,584,340,218,195,99,68,80
2017/05/27/11:52:26.607449,133862,1495857146,607311010,0,89,533,342,202,194,102,72,90
2017/05/27/11:52:26.621783,133863,1495857146,621623039,0,87,516,404,227,190,95,69,94
2017/05/27/11:52:26.652912,133864,1495857146,652723073,0,92,576,424,239,202,96,68,93
2017/05/27/11:52:26.660731,133865,1495857146,660574913,0,96,608,417,221,209,103,72,87
2017/05/27/11:52:26.682226,133866,1495857146,681801080,0,99,622,432,217,177,90,68,80
2017/05/27/11:52:26.720696,133867,1495857146,720509052,0,98,621,413,212,171,79,63,76
2017/05/27/11:52:26.722228,133868,1495857146,722095966,0,102,698,332,194,193,77,63,88
2017/05/27/11:52:26.741961,133869,1495857146,741722106,0,99,655,310,195,178,85,66,95
2017/05/27/11:52:26.772592,133870,1495857146,772320985,0,101,702,297,215,180,71,60,97
2017/05/27/11:52:26.779331,133871,1495857146,779166936,0,104,749,289,226,199,78,58,91
2017/05/27/11:52:26.801866,133872,1495857146,801645040,0,97,750,266,223,199,91,62,90
2017/05/27/11:52:26.824341,133873,1495857146,824136972,0,86,635,279,227,172,104,66,74
2017/05/27/11:52:26.839372,133874,1495857146,839184999,0,92,652,296,249,180,104,63,66
2017/05/27/11:52:26.861809,133875,1495857146,861618995,0,80,512,299,236,182,106,59,58
2017/05/27/11:52:26.885824,133876,1495857146,885617971,0,75,404,287,220,162,105,62,59
2017/05/27/11:52:26.899323,133877,1495857146,899115085,0,74,371,304,226,159,97,58,52
2017/05/27/11:52:26.921950,133878,1495857146,921602010,0,87,437,299,220,198,108,57,51
2017/05/27/11:52:26.944292,133879,1495857146,944104909,0,99,485,279,182,198,116,58,62
2017/05/27/11:52:26.959404,133880,1495857146,959157943,0,100,540,251,162,194,117,60,62
2017/05/27/11:52:26.997325,133881,1495857146,997091054,0,101,582,281,162,194,116,58,61
2017/05/27/11:52:27.005822,133882,1495857147,5639076,0,101,583,284,148,200,119,60,64
2017/05/27/11:52:27.019334,133883,1495857147,19109010,0,88,545,313,170,163,101,55,63
2017/05/27/11:52:27.051470,133884,1495857147,51291942,0,66,471,304,166,152,88,51,54
2017/05/27/11:52:27.064434,133885,1495857147,64161062,0,71,433,305,176,161,110,64,60
2017/05/27/11:52:27.079564,133886,1495857147,79265117,0,74,401,281,196,180,114,67,64
2017/05/27/11:52:27.103235,133887,1495857147,103059053,0,80,477,285,198,173,114,64,63
2017/05/27/11:52:27.124421,133888,1495857147,124186992,0,85,478,249,174,167,112,64,69
2017/05/27/11:52:27.139260,133889,1495857147,139101982,0,99,585,259,184,188,112,64,69
2017/05/27/11:52:27.163318,133890,1495857147,163070917,0,103,631,301,182,182,91,55,67
2017/05/27/11:52:27.184473,133891,1495857147,184252977,0,114,681,402,209,173,85,53,77
2017/05/27/11:52:27.215040,133892,1495857147,214839935,0,113,670,431,253,176,85,60,88
2017/05/27/11:52:27.221978,133893,1495857147,221651077,0,111,673,424,248,169,83,62,87
2017/05/27/11:52:27.244515,133894,1495857147,244175910,0,103,577,421,254,157,81,62,85
2017/05/27/11:52:27.275072,133895,1495857147,274857044,0,96,542,399,250,139,74,58,81
2017/05/27/11:52:27.282052,133896,1495857147,281681060,0,80,509,309,221,114,74,60,70
2017/05/27/11:52:27.304311,133897,1495857147,304169893,0,80,472,304,193,104,66,55,58
2017/05/27/11:52:27.328376,133898,1495857147,328098058,0,82,465,317,195,116,71,57,58
2017/05/27/11:52:27.341790,133899,1495857147,341605901,0,75,462,337,183,107,75,59,59
2017/05/27/11:52:27.364368,133900,1495857147,364165067,0,77,447,334,188,111,90,66,64
2017/05/27/11:52:27.386915,133901,1495857147,386696100,0,88,459,319,176,124,92,63,65
2017/05/27/11:52:27.401931,133902,1495857147,401719093,0,99,527,293,140,162,97,62,62
2017/05/27/11:52:27.424275,133903,1495857147,424108982,0,95,538,336,179,165,96,60,55
2017/05/27/11:52:27.446757,133904,1495857147,446614027,0,101,571,324,171,160,91,57,59
2017/05/27/11:52:27.461777,133905,1495857147,461626052,0,100,587,320,176,167,75,48,52
2017/05/27/11:52:27.492460,133906,1495857147,492331027,0,88,537,316,183,160,74,50,50
2017/05/27/11:52:27.506863,133907,1495857147,506679058,0,73,460,314,184,121,70,50,52
2017/05/27/11:52:27.521757,133908,1495857147,521578073,0,75,457,293,147,110,63,51,52
2017/05/27/11:52:27.552594,133909,1495857147,552426099,0,67,404,274,148,113,69,56,59
2017/05/27/11:52:27.566915,133910,1495857147,566688060,0,64,354,291,169,103,79,61,66
2017/05/27/11:52:27.581809,133911,1495857147,581645011,0,72,456,310,167,111,73,61,66
2017/05/27/11:52:27.606273,133912,1495857147,606100082,0,68,453,297,175,106,69,58,62
2017/05/27/11:52:27.627062,133913,1495857147,626764059,0,74,454,312,201,106,76,59,65
2017/05/27/11:52:27.641986,133914,1495857147,641699075,0,80,487,333,222,116,79,54,60
2017/05/27/11:52:27.664281,133915,1495857147,664140939,0,86,537,318,204,112,76,54,55
2017/05/27/11:52:27.686761,133916,1495857147,686639070,0,80,518,310,200,110,79,57,55
2017/05/27/11:52:27.717842,133917,1495857147,717433929,0,91,559,412,275,129,91,57,57
2017/05/27/11:52:27.724704,133918,1495857147,724212884,0,88,577,394,257,128,88,61,57
2017/05/27/11:52:27.746808,133919,1495857147,746642112,0,89,610,383,240,116,82,56,55
2017/05/27/11:52:27.765450,133920,1495857147,765098094,0,90,625,423,293,127,89,58,53
2017/05/27/11:52:27.784334,133921,1495857147,784132957,0,92,594,418,293,127,86,54,52
2017/05/27/11:52:27.806848,133922,1495857147,806654930,0,90,584,298,217,110,76,53,50
2017/05/27/11:52:27.830780,133923,1495857147,830578088,0,84,566,271,218,109,75,46,43
2017/05/27/11:52:27.844302,133924,1495857147,844152927,0,85,538,327,243,116,81,49,45
2017/05/27/11:52:27.883162,133925,1495857147,882977962,0,86,500,305,187,105,75,46,46
2017/05/27/11:52:27.884731,133926,1495857147,884597063,0,87,494,308,191,105,86,54,50
2017/05/27/11:52:27.904298,133927,1495857147,904150962,0,95,540,332,209,110,87,55,54
2017/05/27/11:52:27.935436,133928,1495857147,934873104,0,97,525,346,215,118,88,55,59
2017/05/27/11:52:27.941922,133929,1495857147,941662073,0,93,525,284,187,110,84,54,54
2017/05/27/11:52:27.972704,133930,1495857147,972389936,0,86,500,254,173,113,85,54,55
2017/05/27/11:52:27.995681,133931,1495857147,995318889,0,86,491,292,199,105,74,50,56
2017/05/27/11:52:28.002044,133932,1495857148,1776933,0,71,418,282,185,107,75,58,57
2017/05/27/11:52:28.024567,133933,1495857148,24214982,0,75,452,277,180,112,84,67,65
2017/05/27/11:52:28.048231,133934,1495857148,48053979,0,73,448,277,178,113,83,70,66
2017/05/27/11:52:28.061936,133935,1495857148,61651945,0,82,470,299,193,111,77,67,64
2017/05/27/11:52:28.084402,133936,1495857148,84103107,0,90,510,248,157,120,77,66,61
2017/05/27/11:52:28.108340,133937,1495857148,108093976,0,94,518,276,185,126,74,60,58
2017/05/27/11:52:28.125364,133938,1495857148,125073909,0,92,491,279,186,119,60,50,46
2017/05/27/11:52:28.160111,133939,1495857148,159856081,0,93,472,290,189,121,60,47,44
2017/05/27/11:52:28.166866,133940,1495857148,166668891,0,87,473,277,171,119,65,54,50
2017/05/27/11:52:28.182065,133941,1495857148,181715011,0,92,488,342,188,120,68,54,50
2017/05/27/11:52:28.212550,133942,1495857148,212362051,0,84,464,325,177,109,68,52,47
2017/05/27/11:52:28.226786,133943,1495857148,226602077,0,86,457,322,173,107,73,55,47
2017/05/27/11:52:28.249296,133944,1495857148,249111890,0,95,496,328,173,101,75,55,49
2017/05/27/11:52:28.273972,133945,1495857148,273776054,0,107,523,331,211,116,75,49,43
2017/05/27/11:52:28.286800,133946,1495857148,286628007,0,100,498,275,232,118,74,48,46
2017/05/27/11:52:28.309357,133947,1495857148,309165000,0,100,489,252,218,117,72,50,47
2017/05/27/11:52:28.324388,133948,1495857148,324172019,0,98,482,253,220,121,73,52,53
2017/05/27/11:52:28.348772,133949,1495857148,346719980,0,86,425,244,227,131,79,54,54
2017/05/27/11:52:28.385790,133950,1495857148,385566949,0,82,438,248,201,124,76,56,58
2017/05/27/11:52:28.387204,133951,1495857148,387047052,0,78,415,228,170,123,75,58,58
2017/05/27/11:52:28.406894,133952,1495857148,406682968,0,83,464,246,178,124,92,63,60
2017/05/27/11:52:28.437644,133953,1495857148,437390089,0,80,466,232,179,124,88,59,55
2017/05/27/11:52:28.444292,133954,1495857148,444106101,0,84,471,228,176,143,96,58,53
2017/05/27/11:52:28.466822,133955,1495857148,466635942,0,70,402,219,163,138,108,64,54
2017/05/27/11:52:28.489738,133956,1495857148,489553928,0,68,423,267,198,141,107,61,49
2017/05/27/11:52:28.504364,133957,1495857148,504138946,0,68,443,293,197,144,98,56,47
2017/05/27/11:52:28.526789,133958,1495857148,526601076,0,75,498,298,189,138,97,55,48
2017/05/27/11:52:28.550750,133959,1495857148,550549030,0,70,486,291,185,115,90,54,48
2017/05/27/11:52:28.564416,133960,1495857148,564166069,0,80,572,389,226,113,77,45,45
2017/05/27/11:52:28.602559,133961,1495857148,602355957,0,85,566,384,215,109,83,53,53
2017/05/27/11:52:28.609323,133962,1495857148,609129905,0,98,617,352,212,127,95,61,56
2017/05/27/11:52:28.631827,133963,1495857148,631624937,0,97,611,345,211,132,97,60,59
2017/05/27/11:52:28.646896,133964,1495857148,646697044,0,110,692,364,218,136,95,59,56
2017/05/27/11:52:28.669322,133965,1495857148,669131994,0,106,639,248,178,133,98,61,54
2017/05/27/11:52:28.684314,133966,1495857148,684123992,0,106,669,209,149,140,97,64,53
2017/05/27/11:52:28.716482,133967,1495857148,716329097,0,93,580,249,161,132,103,66,59
2017/05/27/11:52:28.729465,133968,1495857148,729140043,0,98,558,396,287,152,104,70,61
2017/05/27/11:52:28.751831,133969,1495857148,751625061,0,92,527,390,285,149,101,70,62
2017/05/27/11:52:28.774996,133970,1495857148,774849891,0,91,523,395,289,168,100,72,67
2017/05/27/11:52:28.789323,133971,1495857148,789128065,0,92,499,439,312,168,101,71,68
2017/05/27/11:52:28.804518,133972,1495857148,804188013,0,95,518,428,306,161,81,65,61
2017/05/27/11:52:28.828337,133973,1495857148,828073978,0,90,532,303,201,150,91,66,59
2017/05/27/11:52:28.849323,133974,1495857148,849137067,0,86,482,287,193,145,91,65,58
2017/05/27/11:52:28.880002,133975,1495857148,879859924,0,94,581,311,191,124,87,59,52
2017/05/27/11:52:28.886745,133976,1495857148,886594057,0,101,586,260,160,123,84,56,51
2017/05/27/11:52:28.917536,133977,1495857148,917327880,0,98,581,238,160,123,97,61,51
2017/05/27/11:52:28.939975,133978,1495857148,939795017,0,98,591,242,160,110,82,58,51
2017/05/27/11:52:28.946764,133979,1495857148,946579933,0,96,591,254,160,108,87,61,54
2017/05/27/11:52:28.969330,133980,1495857148,969127893,0,88,490,230,171,115,91,63,58
2017/05/27/11:52:29.008273,133981,1495857149,8068084,0,73,461,246,170,109,91,59,53
2017/05/27/11:52:29.009766,133982,1495857149,9563922,0,67,432,260,164,106,75,50,48
2017/05/27/11:52:29.029540,133983,1495857149,29119014,0,64,368,311,218,128,77,51,52
2017/05/27/11:52:29.053259,133984,1495857149,53071022,0,68,388,339,244,138,82,56,54
2017/05/27/11:52:29.066825,133985,1495857149,66667079,0,71,438,331,236,139,85,61,56
2017/05/27/11:52:29.105829,133986,1495857149,105552911,0,68,441,313,235,134,82,62,57
2017/05/27/11:52:29.107156,133987,1495857149,107063055,0,71,456,313,235,143,84,63,59
2017/05/27/11:52:29.126798,133988,1495857149,126633882,0,68,468,297,210,130,82,62,55
2017/05/27/11:52:29.157846,133989,1495857149,157465934,0,61,460,253,179,116,70,54,51
2017/05/27/11:52:29.164337,133990,1495857149,164158105,0,50,410,242,182,120,63,46,46
2017/05/27/11:52:29.186719,133991,1495857149,186575889,0,64,391,287,206,129,77,58,52
2017/05/27/11:52:29.218163,133992,1495857149,217432022,0,71,440,294,218,125,80,63,59
2017/05/27/11:52:29.231792,133993,1495857149,231586933,0,70,427,247,194,126,84,68,59
2017/05/27/11:52:29.246892,133994,1495857149,246671915,0,76,410,292,200,130,87,68,58
2017/05/27/11:52:29.270703,133995,1495857149,270555019,0,86,445,336,226,128,88,69,59
2017/05/27/11:52:29.292153,133996,1495857149,291697025,0,78,427,295,200,118,78,56,52
2017/05/27/11:52:29.306926,133997,1495857149,306721925,0,76,410,288,188,118,70,48,43
2017/05/27/11:52:29.329395,133998,1495857149,329117059,0,77,398,305,194,108,67,44,43
2017/05/27/11:52:29.351755,133999,1495857149,351572990,0,83,430,306,201,115,69,47,46
2017/05/27/11:52:29.382660,134000,1495857149,382330894,0,80,427,263,176,122,65,49,48
2017/05/27/11:52:29.389402,134001,1495857149,389192104,0,81,432,260,173,117,67,53,50
2017/05/27/11:52:29.411821,134002,1495857149,411652088,0,76,386,266,173,110,71,59,56
2017/05/27/11:52:29.434990,134003,1495857149,434844017,0,75,396,274,195,123,69,56,54
2017/05/27/11:52:29.449286,134004,1495857149,449147939,0,67,440,250,192,113,62,54,56
2017/05/27/11:52:29.471839,134005,1495857149,471626996,0,62,390,247,177,98,62,51,51
2017/05/27/11:52:29.495873,134006,1495857149,495583057,0,60,420,263,188,106,55,44,48
2017/05/27/11:52:29.509516,134007,1495857149,509135007,0,67,447,247,187,113,54,42,44
2017/05/27/11:52:29.548099,134008,1495857149,547925949,0,72,489,227,161,113,58,49,53
2017/05/27/11:52:29.549623,134009,1495857149,549505949,0,81,460,254,173,123,65,49,51
2017/05/27/11:52:29.569555,134010,1495857149,569231986,0,89,470,348,223,135,71,56,58
2017/05/27/11:52:29.600022,134011,1495857149,599853038,0,98,505,358,218,131,70,60,64
2017/05/27/11:52:29.606792,134012,1495857149,606632947,0,92,477,367,218,127,67,56,62
2017/05/27/11:52:29.629307,134013,1495857149,629153966,0,87,450,369,217,125,67,50,56
2017/05/27/11:52:29.651806,134014,1495857149,651635885,0,80,441,352,200,131,76,57,59
2017/05/27/11:52:29.666897,134015,1495857149,666717052,0,85,538,274,160,118,73,52,54
2017/05/27/11:52:29.689291,134016,1495857149,689115047,0,76,516,274,177,121,77,51,47
2017/05/27/11:52:29.712344,134017,1495857149,712136983,0,77,508,273,172,131,81,55,49
2017/05/27/11:52:29.726790,134018,1495857149,726577997,0,88,552,269,176,124,79,58,50
2017/05/27/11:52:29.749472,134019,1495857149,749180078,0,84,528,263,175,111,66,53,49
2017/05/27/11:52:29.772325,134020,1495857149,772109031,0,81,480,256,181,141,64,52,51
2017/05/27/11:52:29.786850,134021,1495857149,786662101,0,86,493,221,155,140,59,50,50
2017/05/27/11:52:29.824983,134022,1495857149,824785947,0,94,534,247,177,138,58,49,51
2017/05/27/11:52:29.831906,134023,1495857149,831649065,0,88,481,255,208,149,66,48,50
2017/05/27/11:52:29.846962,134024,1495857149,846661090,0,89,480,249,223,148,65,45,48
2017/05/27/11:52:29.869262,134025,1495857149,869093894,0,88,445,255,233,124,70,56,50
2017/05/27/11:52:29.891783,134026,1495857149,891587018,0,83,389,255,235,123,70,56,49
2017/05/27/11:52:29.907057,134027,1495857149,906691074,0,83,434,240,237,118,78,58,45
2017/05/27/11:52:29.939073,134028,1495857149,938807010,0,95,491,233,209,101,81,59,43
2017/05/27/11:52:29.951873,134029,1495857149,951714038,0,93,506,233,190,102,83,62,43
2017/05/27/11:52:29.966989,134030,1495857149,966741085,0,88,492,254,172,103,82,52,40
2017/05/27/11:52:29.989271,134031,1495857149,989140033,0,87,489,266,177,97,82,52,39
2017/05/27/11:52:30.011968,134032,1495857150,11681079,0,78,404,273,158,98,70,46,40
2017/05/27/11:52:30.026715,134033,1495857150,26573896,0,56,325,288,167,100,60,44,40
2017/05/27/11:52:30.049249,134034,1495857150,49099922,0,59,325,293,186,111,73,53,42
2017/05/27/11:52:30.071734,134035,1495857150,71595907,0,57,391,269,188,107,71,56,42
2017/05/27/11:52:30.102440,134036,1495857150,102256059,0,66,488,263,191,114,72,53,42
2017/05/27/11:52:30.109435,134037,1495857150,109214067,0,67,518,241,185,108,75,54,42
2017/05/27/11:52:30.131826,134038,1495857150,131643056,0,70,523,208,170,109,74,52,41
2017/05/27/11:52:30.154750,134039,1495857150,154212951,0,66,489,202,156,102,65,44,42
2017/05/27/11:52:30.169837,134040,1495857150,169279098,0,67,494,202,152,102,69,45,44
2017/05/27/11:52:30.192053,134041,1495857150,191682100,0,56,401,222,157,96,68,45,44
2017/05/27/11:52:30.214387,134042,1495857150,214157104,0,58,384,226,165,98,72,51,54
2017/05/27/11:52:30.229277,134043,1495857150,229109048,0,55,375,240,163,104,74,52,54
2017/05/27/11:52:30.267567,134044,1495857150,267396926,0,61,432,269,184,105,71,50,53
2017/05/27/11:52:30.274243,134045,1495857150,274112939,0,71,476,279,186,99,65,45,51
2017/05/27/11:52:30.289409,134046,1495857150,289222002,0,79,516,296,189,110,68,48,52
2017/05/27/11:52:30.311875,134047,1495857150,311676025,0,78,505,313,200,113,65,45,48
2017/05/27/11:52:30.334393,134048,1495857150,334198951,0,91,574,324,209,109,65,47,48
2017/05/27/11:52:30.349461,134049,1495857150,349180936,0,88,589,288,188,107,66,50,45
2017/05/27/11:52:30.387331,134050,1495857150,387181997,0,83,520,275,174,107,67,49,44
2017/05/27/11:52:30.395767,134051,1495857150,395648002,0,77,491,247,163,94,64,48,44
2017/05/27/11:52:30.409274,134052,1495857150,409109115,0,76,501,239,160,108,69,49,42
2017/05/27/11:52:30.433531,134053,1495857150,433094024,0,74,426,217,158,105,78,51,49
2017/05/27/11:52:30.454489,134054,1495857150,454245090,0,74,342,228,162,110,76,50,49
2017/05/27/11:52:30.469543,134055,1495857150,469214916,0,80,396,252,171,110,77,51,48
2017/05/27/11:52:30.502084,134056,1495857150,501903057,0,85,446,257,166,109,75,52,52
2017/05/27/11:52:30.514422,134057,1495857150,514173984,0,85,426,230,145,93,80,52,52
2017/05/27/11:52:30.529488,134058,1495857150,529252052,0,79,436,226,137,89,70,48,48
2017/05/27/11:52:30.562975,134059,1495857150,561222076,0,92,512,245,139,88,67,46,48
2017/05/27/11:52:30.574528,134060,1495857150,574268102,0,87,472,251,151,91,65,47,48
2017/05/27/11:52:30.596811,134061,1495857150,596611976,0,83,411,229,146,99,73,47,43
2017/05/27/11:52:30.611843,134062,1495857150,611658096,0,83,474,229,148,98,67,48,43
2017/05/27/11:52:30.634546,134063,1495857150,634238958,0,83,490,278,160,96,64,48,38
2017/05/27/11:52:30.658263,134064,1495857150,658050060,0,71,432,272,153,90,64,48,38
2017/05/27/11:52:30.673313,134065,1495857150,673063993,0,65,426,236,132,103,66,44,38
2017/05/27/11:52:30.694333,134066,1495857150,694144010,0,61,408,240,134,120,60,43,41
2017/05/27/11:52:30.711493,134067,1495857150,711308956,0,61,337,237,130,150,58,34,38
2017/05/27/11:52:30.731742,134068,1495857150,731596946,0,55,287,172,113,152,65,35,44
2017/05/27/11:52:30.786350,134069,1495857150,786176919,0,50,318,142,105,154,68,35,45
2017/05/27/11:52:30.787933,134070,1495857150,787775039,0,51,325,182,110,158,75,41,50
2017/05/27/11:52:30.791876,134071,1495857150,791652917,0,57,348,181,110,145,77,44,47
2017/05/27/11:52:30.822457,134072,1495857150,822305917,0,59,362,180,110,133,78,47,49
2017/05/27/11:52:30.829282,134073,1495857150,829135894,0,61,367,202,156,136,73,48,47
2017/05/27/11:52:30.860033,134074,1495857150,859853982,0,59,334,235,177,140,74,50,50
2017/05/27/11:52:30.882677,134075,1495857150,882411003,0,58,295,212,170,129,65,46,45
2017/05/27/11:52:30.889372,134076,1495857150,889178037,0,64,353,210,169,137,60,45,47
2017/05/27/11:52:30.911839,134077,1495857150,911575078,0,61,331,209,175,116,51,41,45
2017/05/27/11:52:30.936025,134078,1495857150,935633897,0,58,336,196,137,107,48,39,41
2017/05/27/11:52:30.949271,134079,1495857150,949111938,0,59,335,154,109,94,38,35,34
2017/05/27/11:52:30.971844,134080,1495857150,971568107,0,57,327,138,108,85,35,38,34
2017/05/27/11:52:30.994468,134081,1495857150,994158983,0,49,240,138,105,63,34,38,32
2017/05/27/11:52:31.009476,134082,1495857151,9192943,0,53,310,167,108,65,31,38,29
2017/05/27/11:52:31.047450,134083,1495857151,47278881,0,58,314,224,136,82,40,43,35
2017/05/27/11:52:31.054307,134084,1495857151,54117918,0,61,307,222,140,86,43,41,36
2017/05/27/11:52:31.069280,134085,1495857151,69077014,0,60,319,222,136,81,43,36,33
2017/05/27/11:52:31.099983,134086,1495857151,99772930,0,54,317,222,138,82,43,38,36
2017/05/27/11:52:31.114317,134087,1495857151,114108085,0,61,298,216,132,78,46,36,42
2017/05/27/11:52:31.136801,134088,1495857151,136611938,0,59,283,143,103,68,37,33,41
2017/05/27/11:52:31.161544,134089,1495857151,161323070,0,56,311,150,109,64,37,34,41
2017/05/27/11:52:31.174533,134090,1495857151,174246072,0,62,345,194,124,71,38,35,43
2017/05/27/11:52:31.213221,134091,1495857151,213000059,0,74,363,213,136,70,36,34,49
2017/05/27/11:52:31.214733,134092,1495857151,214556932,0,70,352,208,147,72,34,31,45
2017/05/27/11:52:31.234486,134093,1495857151,234200954,0,70,373,216,141,64,34,29,42
2017/05/27/11:52:31.265018,134094,1495857151,264817953,0,74,350,217,134,58,31,28,43
2017/05/27/11:52:31.271863,134095,1495857151,271637916,0,79,417,195,129,56,28,29,46
2017/05/27/11:52:31.294395,134096,1495857151,294152975,0,69,407,171,113,53,29,27,37
2017/05/27/11:52:31.316985,134097,1495857151,316688060,0,70,396,156,95,47,30,26,36
2017/05/27/11:52:31.331986,134098,1495857151,331666946,0,69,408,143,94,48,28,23,38
2017/05/27/11:52:31.354418,134099,1495857151,354115962,0,64,399,136,99,50,31,25,41
2017/05/27/11:52:31.378385,134100,1495857151,378068923,0,50,284,103,89,45,31,26,37
2017/05/27/11:52:31.391751,134101,1495857151,391561031,0,52,330,107,87,42,30,24,36
2017/05/27/11:52:31.414321,134102,1495857151,414100885,0,48,349,113,82,39,28,27,36
2017/05/27/11:52:31.438288,134103,1495857151,438114881,0,44,305,111,81,39,28,27,32
2017/05/27/11:52:31.451971,134104,1495857151,451648950,0,44,294,102,66,33,24,26,28
2017/05/27/11:52:31.489982,134105,1495857151,489800930,0,45,284,94,60,30,24,24,26
2017/05/27/11:52:31.496986,134106,1495857151,496730089,0,48,221,81,56,29,24,26,27
2017/05/27/11:52:31.511941,134107,1495857151,511641025,0,53,242,103,69,32,22,24,25
2017/05/27/11:52:31.550028,134108,1495857151,549813985,0,53,249,103,65,32,24,23,26
2017/05/27/11:52:31.556878,134109,1495857151,556689023,0,51,250,102,60,32,29,22,22
2017/05/27/11:52:31.571798,134110,1495857151,571589946,0,54,313,115,68,34,28,22,23
2017/05/27/11:52:31.603975,134111,1495857151,603755950,0,53,339,116,67,32,28,20,24
2017/05/27/11:52:31.616892,134112,1495857151,616647005,0,50,312,90,51,28,27,21,26
2017/05/27/11:52:31.632137,134113,1495857151,631762981,0,50,310,88,50,27,32,22,27
2017/05/27/11:52:31.655710,134114,1495857151,655520915,0,50,312,89,50,29,30,23,27
2017/05/27/11:52:31.678141,134115,1495857151,677926063,0,47,249,77,38,25,30,21,27
2017/05/27/11:52:31.691931,134116,1495857151,691741943,0,41,207,73,35,26,29,20,26
2017/05/27/11:52:31.715853,134117,1495857151,715584039,0,36,158,71,33,26,30,18,25
2017/05/27/11:52:31.736793,134118,1495857151,736598014,0,41,185,79,32,26,23,19,24
2017/05/27/11:52:31.767865,134119,1495857151,767482995,0,45,213,82,36,23,18,19,24
2017/05/27/11:52:31.774554,134120,1495857151,774183988,0,44,212,75,35,26,21,21,24
2017/05/27/11:52:31.796769,134121,1495857151,796588897,0,44,208,78,39,26,21,24,24
2017/05/27/11:52:31.812050,134122,1495857151,811741113,0,42,200,78,41,29,21,24,24
2017/05/27/11:52:31.834376,134123,1495857151,834115028,0,38,167,72,41,29,22,25,21
2017/05/27/11:52:31.857124,134124,1495857151,856772899,0,34,141,68,37,27,23,23,21
2017/05/27/11:52:31.871897,134125,1495857151,871645927,0,39,182,83,41,27,22,22,22
2017/05/27/11:52:31.894366,134126,1495857151,894190073,0,38,188,97,50,29,23,20,20
2017/05/27/11:52:31.916775,134127,1495857151,916589975,0,40,197,107,51,26,24,19,22
2017/05/27/11:52:31.933259,134128,1495857151,933051109,0,44,227,108,49,26,27,19,21
2017/05/27/11:52:31.954393,134129,1495857151,954179048,0,45,216,107,50,27,26,18,21
2017/05/27/11:52:31.993140,134130,1495857151,992964029,0,39,182,96,46,26,26,17,22
2017/05/27/11:52:31.994640,134131,1495857151,994508981,0,45,216,86,43,25,27,17,22
2017/05/27/11:52:32.014322,134132,1495857152,14113903,0,45,232,78,41,26,26,18,23
2017/05/27/11:52:32.046630,134133,1495857152,46312093,0,44,201,120,67,35,27,18,26
2017/05/27/11:52:32.051944,134134,1495857152,51647901,0,44,205,120,68,37,29,22,25
2017/05/27/11:52:32.074410,134135,1495857152,74111938,0,46,224,125,71,37,29,21,24
2017/05/27/11:52:32.098890,134136,1495857152,98709106,0,40,187,121,69,37,28,22,25
2017/05/27/11:52:32.119303,134137,1495857152,119106054,0,40,170,133,73,38,30,22,24
2017/05/27/11:52:32.134310,134138,1495857152,134128093,0,38,194,98,64,34,27,22,21
2017/05/27/11:52:32.158320,134139,1495857152,158086061,0,37,183,97,65,33,26,20,19
2017/05/27/11:52:32.179377,134140,1495857152,179115056,0,35,149,93,68,31,24,19,18
2017/05/27/11:52:32.209987,134141,1495857152,209772109,0,35,146,101,74,33,23,20,19
2017/05/27/11:52:32.216870,134142,1495857152,216624021,0,37,156,91,73,31,19,20,17
2017/05/27/11:52:32.239287,134143,1495857152,239111900,0,41,155,86,68,28,18,19,18
2017/05/27/11:52:32.270180,134144,1495857152,269840002,0,40,159,87,69,27,18,18,20
2017/05/27/11:52:32.277026,134145,1495857152,276670932,0,48,188,104,85,33,20,19,20
2017/05/27/11:52:32.299274,134146,1495857152,299108028,0,50,200,107,80,33,21,20,20
2017/05/27/11:52:32.323387,134147,1495857152,323159933,0,48,182,111,83,35,21,19,19
2017/05/27/11:52:32.336944,134148,1495857152,336683988,0,44,150,119,81,34,21,21,20
2017/05/27/11:52:32.359287,134149,1495857152,359138011,0,48,199,126,87,35,26,21,20
2017/05/27/11:52:32.376398,134150,1495857152,376209020,0,41,179,114,68,29,31,22,20
2017/05/27/11:52:32.396782,134151,1495857152,396610021,0,38,168,114,69,30,33,20,22
2017/05/27/11:52:32.435781,134152,1495857152,435554981,0,42,199,109,71,30,33,21,24
2017/05/27/11:52:32.437208,134153,1495857152,437063932,0,40,210,126,87,31,33,20,22
2017/05/27/11:52:32.456803,134154,1495857152,456619024,0,35,167,125,82,32,30,22,21
2017/05/27/11:52:32.479862,134155,1495857152,479629993,0,35,164,130,90,34,21,22,23
2017/05/27/11:52:32.494277,134156,1495857152,494115114,0,42,221,135,103,36,21,21,21
2017/05/27/11:52:32.516790,134157,1495857152,516578912,0,37,196,138,104,41,25,21,22
2017/05/27/11:52:32.547534,134158,1495857152,547331094,0,36,188,148,113,49,27,22,23
2017/05/27/11:52:32.554297,134159,1495857152,554104089,0,35,184,153,129,51,29,22,24
2017/05/27/11:52:32.578282,134160,1495857152,578064918,0,36,184,154,128,52,30,22,23
2017/05/27/11:52:32.600785,134161,1495857152,600600004,0,31,128,142,120,50,29,22,24
2017/05/27/11:52:32.614384,134162,1495857152,614142894,0,33,149,185,169,62,31,25,24
2017/05/27/11:52:32.636894,134163,1495857152,636674880,0,36,151,174,169,58,31,26,24
2017/05/27/11:52:32.659451,134164,1495857152,659209966,0,34,146,167,157,57,29,25,25
2017/05/27/11:52:32.674326,134165,1495857152,674103975,0,33,152,175,157,56,30,24,24
2017/05/27/11:52:32.697136,134166,1495857152,696685075,0,32,131,192,175,62,31,26,24
2017/05/27/11:52:32.720766,134167,1495857152,720561027,0,31,104,168,158,54,27,23,23
2017/05/27/11:52:32.734366,134168,1495857152,734157085,0,28,100,178,149,51,23,20,22
2017/05/27/11:52:32.758211,134169,1495857152,758049011,0,29,102,191,150,50,23,19,20
2017/05/27/11:52:32.779364,134170,1495857152,779139995,0,28,101,193,152,50,21,19,22
2017/05/27/11:52:32.794639,134171,1495857152,794239044,0,28,108,219,174,60,24,19,23
2017/05/27/11:52:32.825214,134172,1495857152,824904918,0,30,114,221,151,55,25,20,22
2017/05/27/11:52:32.839610,134173,1495857152,839153051,0,33,126,218,155,54,26,20,23
2017/05/27/11:52:32.854245,134174,1495857152,854077100,0,35,132,208,153,54,27,21,25
2017/05/27/11:52:32.878280,134175,1495857152,878073930,0,34,122,205,166,57,27,22,25
2017/05/27/11:52:32.907602,134176,1495857152,907356977,0,34,119,180,120,39,25,21,23
2017/05/27/11:52:32.914501,134177,1495857152,914201974,0,32,123,176,117,36,23,19,22
2017/05/27/11:52:32.936731,134178,1495857152,936564922,0,32,114,161,109,37,23,19,21
2017/05/27/11:52:32.959363,134179,1495857152,959135055,0,31,108,171,121,41,25,19,21
2017/05/27/11:52:32.981803,134180,1495857152,981594085,0,30,108,164,102,38,25,19,19
2017/05/27/11:52:32.996929,134181,1495857152,996648073,0,30,125,149,102,36,24,18,19
2017/05/27/11:52:33.019405,134182,1495857153,19191980,0,28,117,133,96,35,24,19,21
2017/05/27/11:52:33.042331,134183,1495857153,42125940,0,24,102,131,96,35,23,19,22
2017/05/27/11:52:33.056932,134184,1495857153,56642055,0,28,121,118,87,36,23,20,21
2017/05/27/11:52:33.079544,134185,1495857153,79204082,0,30,136,116,95,37,23,20,23
2017/05/27/11:52:33.101926,134186,1495857153,101636886,0,32,137,109,92,37,23,19,23
2017/05/27/11:52:33.117105,134187,1495857153,116707086,0,31,135,109,92,37,22,19,23
2017/05/27/11:52:33.147560,134188,1495857153,147296905,0,31,140,101,84,37,23,21,24
2017/05/27/11:52:33.161874,134189,1495857153,161601066,0,28,124,94,77,32,21,20,24
2017/05/27/11:52:33.176992,134190,1495857153,176690101,0,37,143,131,76,31,20,19,22
2017/05/27/11:52:33.199570,134191,1495857153,199224948,0,41,134,139,77,31,21,19,22
2017/05/27/11:52:33.221854,134192,1495857153,221656084,0,44,151,140,80,30,22,20,24
2017/05/27/11:52:33.236921,134193,1495857153,236725091,0,45,153,140,81,27,22,19,21
2017/05/27/11:52:33.267558,134194,1495857153,267271041,0,47,161,153,86,30,22,20,23
2017/05/27/11:52:33.282127,134195,1495857153,281723976,0,40,134,122,74,32,23,20,24
2017/05/27/11:52:33.296800,134196,1495857153,296619892,0,40,137,112,81,32,20,19,25
2017/05/27/11:52:33.320796,134197,1495857153,320621967,0,38,124,127,87,37,24,18,24
2017/05/27/11:52:33.341913,134198,1495857153,341675043,0,41,125,145,105,43,24,18,24
2017/05/27/11:52:33.356802,134199,1495857153,356616020,0,39,119,130,101,41,25,17,23
2017/05/27/11:52:33.381038,134200,1495857153,380597114,0,40,117,125,97,39,26,18,23
2017/05/27/11:52:33.401786,134201,1495857153,401607990,0,33,100,120,89,38,26,18,21
2017/05/27/11:52:33.416818,134202,1495857153,416614055,0,34,97,92,74,37,32,19,21
2017/05/27/11:52:33.439322,134203,1495857153,439126968,0,33,107,63,46,34,34,20,23
2017/05/27/11:52:33.461883,134204,1495857153,461621999,0,32,104,63,44,37,33,20,21
2017/05/27/11:52:33.484316,134205,1495857153,484116077,0,31,106,63,41,38,34,21,23
2017/05/27/11:52:33.499280,134206,1495857153,499108076,0,34,102,60,39,40,36,23,23
2017/05/27/11:52:33.521954,134207,1495857153,521658897,0,30,90,54,37,38,29,23,22
2017/05/27/11:52:33.536760,134208,1495857153,536590099,0,25,63,42,33,45,29,21,22
2017/05/27/11:52:33.559667,134209,1495857153,559155941,0,26,69,41,32,43,27,24,22
2017/05/27/11:52:33.581750,134210,1495857153,581557989,0,25,64,34,30,42,25,23,22
2017/05/27/11:52:33.596820,134211,1495857153,596623897,0,20,63,32,27,42,25,23,22
2017/05/27/11:52:33.619400,134212,1495857153,619158029,0,21,63,34,28,44,23,22,21
2017/05/27/11:52:33.642118,134213,1495857153,641647100,0,22,61,34,26,38,23,23,21
2017/05/27/11:52:33.656904,134214,1495857153,656635999,0,19,38,29,23,39,24,19,19
2017/05/27/11:52:33.679304,134215,1495857153,679121017,0,20,28,27,24,38,24,21,20
2017/05/27/11:52:33.702029,134216,1495857153,701767921,0,20,24,24,22,37,22,19,20
2017/05/27/11:52:33.716719,134217,1495857153,716583967,0,20,25,19,21,33,22,19,21
2017/05/27/11:52:33.739645,134218,1495857153,739206075,0,19,21,20,21,28,22,19,20
2017/05/27/11:52:33.761780,134219,1495857153,761609077,0,22,20,20,22,29,25,20,21
2017/05/27/11:52:33.776981,134220,1495857153,776736021,0,20,19,21,21,30,24,18,18
2017/05/27/11:52:33.799242,134221,1495857153,799109935,0,19,17,22,22,31,25,18,18
2017/05/27/11:52:33.821846,134222,1495857153,821645975,0,20,19,23,22,30,26,18,19
2017/05/27/11:52:33.836897,134223,1495857153,836623907,0,19,20,21,22,30,24,17,20
2017/05/27/11:52:33.859273,134224,1495857153,859106063,0,16,19,19,22,35,22,16,21
2017/05/27/11:52:33.881902,134225,1495857153,881620883,0,19,21,20,23,35,22,16,22
2017/05/27/11:52:33.896752,134226,1495857153,896579980,0,20,22,19,23,37,22,16,25
2017/05/27/11:52:33.919344,134227,1495857153,919164896,0,19,20,19,22,37,21,16,23
2017/05/27/11:52:33.941797,134228,1495857153,941574096,0,19,21,17,22,43,22,17,21
2017/05/27/11:52:33.964411,134229,1495857153,964189052,0,19,22,19,22,36,21,19,21
2017/05/27/11:52:33.979318,134230,1495857153,979119062,0,19,22,19,23,35,21,19,20
2017/05/27/11:52:34.001841,134231,1495857154,1593112,0,20,22,20,22,31,21,21,18
2017/05/27/11:52:34.024311,134232,1495857154,24120092,0,21,21,20,23,36,22,23,18
2017/05/27/11:52:34.039283,134233,1495857154,39103031,0,21,21,20,22,30,20,22,19
2017/05/27/11:52:34.061803,134234,1495857154,61605930,0,22,22,21,23,31,22,21,20
2017/05/27/11:52:34.084427,134235,1495857154,84150075,0,19,23,20,22,33,21,21,20
2017/05/27/11:52:34.099337,134236,1495857154,99142074,0,18,23,21,22,33,21,23,20
2017/05/27/11:52:34.121775,134237,1495857154,121606111,0,19,23,20,22,28,21,20,21
2017/05/27/11:52:34.144367,134238,1495857154,144149065,0,19,22,21,24,32,23,20,21
2017/05/27/11:52:34.159362,134239,1495857154,159159898,0,18,19,20,22,32,21,22,21
2017/05/27/11:52:34.181804,134240,1495857154,181590080,0,19,18,21,22,31,22,22,20
2017/05/27/11:52:34.204366,134241,1495857154,204154014,0,18,18,20,22,30,22,20,21
2017/05/27/11:52:34.219280,134242,1495857154,219110965,0,16,18,21,24,31,21,20,19
2017/05/27/11:52:34.242061,134243,1495857154,241673946,0,15,18,22,23,26,20,22,19
2017/05/27/11:52:34.264313,134244,1495857154,264117002,0,18,19,21,23,26,20,21,19
2017/05/27/11:52:34.280758,134245,1495857154,280543088,0,17,19,22,22,26,22,20,20
2017/05/27/11:52:34.301851,134246,1495857154,301632881,0,17,21,23,24,26,21,21,22
2017/05/27/11:52:34.324253,134247,1495857154,324089050,0,20,39,25,23,23,24,20,23
2017/05/27/11:52:34.339392,134248,1495857154,339153051,0,20,43,24,22,22,25,18,22
2017/05/27/11:52:34.361763,134249,1495857154,361567974,0,21,47,26,22,22,25,18,22
2017/05/27/11:52:34.384367,134250,1495857154,384121894,0,24,78,26,23,21,24,19,21
2017/05/27/11:52:34.399610,134251,1495857154,399162054,0,24,81,26,21,22,24,17,18
2017/05/27/11:52:34.421736,134252,1495857154,421587944,0,22,77,26,22,27,23,18,17
2017/05/27/11:52:34.444503,134253,1495857154,444186925,0,24,77,26,22,29,22,19,18
2017/05/27/11:52:34.459243,134254,1495857154,459095954,0,22,76,24,22,30,23,19,19
2017/05/27/11:52:34.481750,134255,1495857154,481602907,0,19,46,22,21,31,24,18,20
2017/05/27/11:52:34.504493,134256,1495857154,504228115,0,19,40,27,22,32,22,18,21
2017/05/27/11:52:34.519772,134257,1495857154,519330024,0,18,36,31,23,33,21,20,21
2017/05/27/11:52:34.541730,134258,1495857154,541574001,0,16,32,32,23,31,20,19,22
2017/05/27/11:52:34.572860,134259,1495857154,572438001,0,17,29,33,24,30,19,19,22
2017/05/27/11:52:34.580801,134260,1495857154,579155921,0,18,24,33,24,30,22,20,20
2017/05/27/11:52:34.601924,134261,1495857154,601648092,0,18,25,29,24,35,23,21,22
2017/05/27/11:52:34.624490,134262,1495857154,624161958,0,20,25,24,25,32,24,19,22
2017/05/27/11:52:34.643763,134263,1495857154,643546104,0,24,57,23,26,34,24,21,21
2017/05/27/11:52:34.661804,134264,1495857154,661598920,0,22,59,23,29,34,24,20,19
2017/05/27/11:52:34.684439,134265,1495857154,684140920,0,24,68,26,28,35,22,20,19
2017/05/27/11:52:34.699421,134266,1495857154,699176073,0,23,68,26,27,34,22,19,20
2017/05/27/11:52:34.721959,134267,1495857154,721678018,0,22,71,27,25,32,22,22,19
2017/05/27/11:52:34.744310,134268,1495857154,744113922,0,22,58,30,25,32,22,22,20
2017/05/27/11:52:34.759441,134269,1495857154,759182929,0,21,62,31,22,33,23,22,21
2017/05/27/11:52:34.781739,134270,1495857154,781547069,0,20,54,29,23,31,22,22,21
2017/05/27/11:52:34.804334,134271,1495857154,804132938,0,20,56,29,24,31,22,22,20
2017/05/27/11:52:34.820708,134272,1495857154,820518970,0,21,54,28,23,33,24,21,19
2017/05/27/11:52:34.842038,134273,1495857154,841676950,0,21,82,28,22,32,25,19,21
2017/05/27/11:52:34.864475,134274,1495857154,864144086,0,22,84,27,21,33,23,19,20
2017/05/27/11:52:34.879398,134275,1495857154,879172086,0,23,85,28,21,33,22,20,21
2017/05/27/11:52:34.901724,134276,1495857154,901541948,0,24,87,29,20,26,22,19,21
2017/05/27/11:52:34.924507,134277,1495857154,924221992,0,26,96,29,23,31,23,19,21
2017/05/27/11:52:34.947071,134278,1495857154,946674108,0,23,68,27,24,33,22,21,19
2017/05/27/11:52:34.961912,134279,1495857154,961673974,0,23,63,28,25,33,21,21,20
2017/05/27/11:52:34.984292,134280,1495857154,984101057,0,22,61,27,25,33,22,20,18
2017/05/27/11:52:35.006788,134281,1495857155,6592035,0,21,57,29,25,34,24,22,18
2017/05/27/11:52:35.021752,134282,1495857155,21568059,0,19,39,26,24,36,24,21,19
2017/05/27/11:52:35.044410,134283,1495857155,44158935,0,21,52,26,23,36,26,20,19
2017/05/27/11:52:35.066890,134284,1495857155,66656112,0,22,54,25,23,34,27,19,17
2017/05/27/11:52:35.081821,134285,1495857155,81603050,0,22,54,23,23,35,26,19,20
2017/05/27/11:52:35.104397,134286,1495857155,104176998,0,23,57,21,25,37,28,18,21
2017/05/27/11:52:35.127042,134287,1495857155,126718044,0,23,68,23,24,27,28,18,20
2017/05/27/11:52:35.141695,134288,1495857155,141524076,0,21,62,23,26,27,28,18,21
2017/05/27/11:52:35.164337,134289,1495857155,164113044,0,20,61,23,24,27,27,19,23
2017/05/27/11:52:35.186734,134290,1495857155,186577081,0,19,63,23,27,29,30,19,22
2017/05/27/11:52:35.201751,134291,1495857155,201596021,0,19,74,25,26,31,27,20,20
2017/05/27/11:52:35.224327,134292,1495857155,224175930,0,19,68,25,25,33,24,21,19
2017/05/27/11:52:35.247033,134293,1495857155,246612071,0,21,74,26,23,32,24,20,19
2017/05/27/11:52:35.261705,134294,1495857155,261559963,0,23,76,26,24,32,24,20,18
2017/05/27/11:52:35.284485,134295,1495857155,284259080,0,25,85,28,22,30,20,20,17
2017/05/27/11:52:35.306700,134296,1495857155,306576013,0,24,78,26,21,30,20,19,17
2017/05/27/11:52:35.321726,134297,1495857155,321578025,0,25,74,26,23,29,23,19,23
2017/05/27/11:52:35.344271,134298,1495857155,344125986,0,24,70,27,24,29,24,19,23
2017/05/27/11:52:35.366810,134299,1495857155,366596937,0,22,84,29,23,29,24,19,24
2017/05/27/11:52:35.382089,134300,1495857155,381661891,0,20,74,29,22,29,23,19,23
2017/05/27/11:52:35.404248,134301,1495857155,404100894,0,20,75,29,21,23,23,19,23
2017/05/27/11:52:35.426763,134302,1495857155,426595926,0,19,75,29,22,28,21,20,18
2017/05/27/11:52:35.441788,134303,1495857155,441622018,0,19,80,26,21,28,20,20,18
2017/05/27/11:52:35.465759,134304,1495857155,465548038,0,19,59,24,22,29,23,21,17
2017/05/27/11:52:35.486815,134305,1495857155,486567020,0,19,64,23,25,29,24,22,17
2017/05/27/11:52:35.501829,134306,1495857155,501662015,0,20,60,23,23,30,24,21,16
2017/05/27/11:52:35.524310,134307,1495857155,524122953,0,23,76,24,23,24,25,20,16
2017/05/27/11:52:35.546747,134308,1495857155,546581983,0,23,68,25,23,23,24,20,17
2017/05/27/11:52:35.561983,134309,1495857155,561747074,0,24,81,26,26,22,21,19,17
2017/05/27/11:52:35.584537,134310,1495857155,584194898,0,25,77,26,23,22,19,18,18
2017/05/27/11:52:35.606730,134311,1495857155,606578111,0,25,75,24,26,27,18,17,19
2017/05/27/11:52:35.621843,134312,1495857155,621622085,0,25,79,24,27,27,17,17,19
2017/05/27/11:52:35.644337,134313,1495857155,644154071,0,27,81,29,29,27,18,19,19
2017/05/27/11:52:35.666911,134314,1495857155,666656017,0,27,70,27,25,27,20,19,18
2017/05/27/11:52:35.681686,134315,1495857155,681539058,0,29,87,32,26,26,21,18,18
2017/05/27/11:52:35.704315,134316,1495857155,704143047,0,28,90,32,24,20,20,19,19
2017/05/27/11:52:35.726918,134317,1495857155,726651906,0,26,77,32,22,18,21,20,17
2017/05/27/11:52:35.741731,134318,1495857155,741596937,0,24,75,27,20,19,19,18,17
2017/05/27/11:52:35.764336,134319,1495857155,764147043,0,24,90,28,21,21,18,18,18
2017/05/27/11:52:35.786819,134320,1495857155,786613941,0,23,72,22,22,20,17,18,18
2017/05/27/11:52:35.802293,134321,1495857155,801873922,0,25,72,23,23,20,17,17,18
2017/05/27/11:52:35.824361,134322,1495857155,824111938,0,24,69,23,22,21,17,19,20
2017/05/27/11:52:35.847023,134323,1495857155,846735954,0,26,73,23,21,19,17,18,21
2017/05/27/11:52:35.869501,134324,1495857155,869194984,0,28,70,28,24,19,16,19,20
2017/05/27/11:52:35.884286,134325,1495857155,884098052,0,25,75,31,24,20,17,19,22
2017/05/27/11:52:35.907148,134326,1495857155,906779050,0,25,78,34,25,21,18,20,23
2017/05/27/11:52:35.929375,134327,1495857155,929121017,0,27,83,34,26,21,17,20,22
2017/05/27/11:52:35.945010,134328,1495857155,944740056,0,26,79,41,26,23,19,20,22
2017/05/27/11:52:35.967317,134329,1495857155,966650009,0,22,100,41,25,21,22,18,21
2017/05/27/11:52:35.989284,134330,1495857155,989065885,0,22,103,41,30,21,20,19,21
2017/05/27/11:52:36.004314,134331,1495857156,4132986,0,23,106,40,29,21,20,18,20
2017/05/27/11:52:36.026775,134332,1495857156,26561021,0,22,102,43,29,20,21,19,21
2017/05/27/11:52:36.049536,134333,1495857156,49200057,0,23,106,40,29,19,21,17,19
2017/05/27/11:52:36.064309,134334,1495857156,64104080,0,24,86,38,29,19,19,18,19
2017/05/27/11:52:36.086766,134335,1495857156,86580991,0,25,87,41,25,18,20,16,16
2017/05/27/11:52:36.109614,134336,1495857156,109294891,0,23,78,48,31,18,20,18,16
2017/05/27/11:52:36.124344,134337,1495857156,124125003,0,22,80,50,30,19,20,18,16
2017/05/27/11:52:36.148293,134338,1495857156,148071050,0,22,74,51,33,20,19,20,16
2017/05/27/11:52:36.169430,134339,1495857156,169158935,0,20,62,50,32,21,18,21,18
2017/05/27/11:52:36.184272,134340,1495857156,184077024,0,18,70,53,31,21,19,21,19
2017/05/27/11:52:36.206745,134341,1495857156,206576108,0,18,70,71,34,26,19,20,20
2017/05/27/11:52:36.229306,134342,1495857156,229119062,0,18,74,73,43,26,21,20,20
2017/05/27/11:52:36.244297,134343,1495857156,244119882,0,19,75,72,54,27,22,20,20
2017/05/27/11:52:36.266790,134344,1495857156,266587018,0,20,85,74,56,27,23,19,20
2017/05/27/11:52:36.289375,134345,1495857156,289165019,0,21,68,73,57,27,22,19,19
2017/05/27/11:52:36.304383,134346,1495857156,304160118,0,22,69,52,55,22,24,19,18
2017/05/27/11:52:36.326773,134347,1495857156,326586961,0,23,76,54,60,25,23,19,17
2017/05/27/11:52:36.349353,134348,1495857156,349124908,0,21,72,71,60,26,22,18,22
2017/05/27/11:52:36.364219,134349,1495857156,364020109,0,20,58,72,62,28,23,17,20
2017/05/27/11:52:36.386803,134350,1495857156,386610984,0,23,63,73,72,32,24,19,20
2017/05/27/11:52:36.409210,134351,1495857156,409039974,0,21,70,89,81,38,21,21,20
2017/05/27/11:52:36.424568,134352,1495857156,424226999,0,22,59,90,82,39,20,21,21
2017/05/27/11:52:36.446751,134353,1495857156,446571111,0,23,62,86,88,39,20,23,18
2017/05/27/11:52:36.469464,134354,1495857156,469132900,0,23,64,86,87,37,20,23,20
2017/05/27/11:52:36.484400,134355,1495857156,484173059,0,21,59,83,80,36,19,21,21
2017/05/27/11:52:36.506715,134356,1495857156,506546974,0,21,50,68,72,31,19,19,22
2017/05/27/11:52:36.537452,134357,1495857156,537277936,0,20,50,65,72,31,21,18,22
2017/05/27/11:52:36.544277,134358,1495857156,544094085,0,23,65,70,78,35,21,15,23
2017/05/27/11:52:36.567106,134359,1495857156,566898107,0,25,68,69,84,35,20,16,24
2017/05/27/11:52:36.589273,134360,1495857156,589101076,0,26,72,74,85,34,20,16,23
2017/05/27/11:52:36.604360,134361,1495857156,604168891,0,26,73,71,84,33,21,16,24
2017/05/27/11:52:36.626854,134362,1495857156,626579999,0,25,68,65,75,31,20,15,25
2017/05/27/11:52:36.649576,134363,1495857156,649230957,0,24,57,70,89,39,22,18,24
2017/05/27/11:52:36.664270,134364,1495857156,664093971,0,23,53,70,87,39,22,19,23
2017/05/27/11:52:36.686968,134365,1495857156,686698913,0,22,47,69,84,39,23,21,24
2017/05/27/11:52:36.709475,134366,1495857156,709192991,0,23,57,73,86,41,24,21,23
2017/05/27/11:52:36.724411,134367,1495857156,724160909,0,23,55,75,90,41,24,23,23
2017/05/27/11:52:36.748225,134368,1495857156,748060941,0,21,49,66,63,28,24,21,21
2017/05/27/11:52:36.769301,134369,1495857156,769062042,0,21,55,68,61,27,23,21,21
2017/05/27/11:52:36.791928,134370,1495857156,791619062,0,21,55,68,61,26,22,20,22
2017/05/27/11:52:36.808280,134371,1495857156,808052062,0,20,40,64,57,24,21,20,20
2017/05/27/11:52:36.829381,134372,1495857156,829164981,0,22,43,75,64,24,21,20,21
2017/05/27/11:52:36.851758,134373,1495857156,851588010,0,20,43,73,59,23,20,21,23
2017/05/27/11:52:36.868292,134374,1495857156,868069887,0,22,45,78,65,28,23,22,23
2017/05/27/11:52:36.889326,134375,1495857156,889141082,0,22,48,102,72,29,24,22,22
2017/05/27/11:52:36.911817,134376,1495857156,911603927,0,23,50,103,73,33,26,20,21
2017/05/27/11:52:36.928242,134377,1495857156,928045988,0,21,49,106,76,36,28,22,23
2017/05/27/11:52:36.949388,134378,1495857156,949136972,0,22,48,102,71,36,27,21,22
2017/05/27/11:52:36.971823,134379,1495857156,971594095,0,18,37,99,65,31,25,20,21
2017/05/27/11:52:36.988388,134380,1495857156,988115072,0,19,33,94,71,35,26,19,23
2017/05/27/11:52:37.009276,134381,1495857157,9099960,0,18,32,113,95,39,25,21,25
2017/05/27/11:52:37.031994,134382,1495857157,31662940,0,20,31,107,95,39,23,20,24
2017/05/27/11:52:37.048252,134383,1495857157,48058986,0,20,32,109,98,38,22,20,26
2017/05/27/11:52:37.069535,134384,1495857157,69199085,0,20,32,113,99,39,23,20,26
2017/05/27/11:52:37.091762,134385,1495857157,91572046,0,21,34,103,95,37,21,20,24
2017/05/27/11:52:37.108230,134386,1495857157,108050107,0,21,37,102,94,34,20,18,22
2017/05/27/11:52:37.129418,134387,1495857157,129115104,0,21,44,100,84,32,23,19,20
