time,.header.seq,.header.stamp.secs,.header.stamp.nsecs,.header.frame_id,.ch0,.ch1,.ch2,.ch3,.ch4,.ch5,.ch6,.ch7
2017/05/27/11:55:21.003244,142559,1495857321,3021001,0,615,605,584,439,275,173,141,168
2017/05/27/11:55:21.018202,142560,1495857321,17952919,0,630,665,635,476,279,174,132,166
2017/05/27/11:55:21.040711,142561,1495857321,40484905,0,661,679,661,475,282,179,124,165
2017/05/27/11:55:21.063318,142562,1495857321,63008069,0,628,677,614,445,278,181,124,146
2017/05/27/11:55:21.078381,142563,1495857321,77933073,0,537,631,506,363,219,155,103,110
2017/05/27/11:55:21.100865,142564,1495857321,100569963,0,528,637,614,421,221,121,80,89
2017/05/27/11:55:21.123101,142565,1495857321,122926950,0,525,671,622,385,199,119,75,78
2017/05/27/11:55:21.138196,142566,1495857321,138004064,0,483,758,621,375,191,120,75,80
2017/05/27/11:55:21.164305,142567,1495857321,164118051,0,449,687,642,379,182,111,72,88
2017/05/27/11:55:21.183182,142568,1495857321,182945013,0,477,668,693,459,206,118,70,98
2017/05/27/11:55:21.198321,142569,1495857321,198050022,0,459,681,631,417,199,120,68,104
2017/05/27/11:55:21.224831,142570,1495857321,220453977,0,422,636,601,418,202,113,69,105
2017/05/27/11:55:21.243192,142571,1495857321,242989063,0,408,503,562,409,178,92,58,97
2017/05/27/11:55:21.258168,142572,1495857321,257963895,0,511,560,539,410,196,95,60,115
2017/05/27/11:55:21.280697,142573,1495857321,280438899,0,456,541,475,317,186,93,61,108
2017/05/27/11:55:21.311450,142574,1495857321,311228036,0,494,513,425,292,183,90,63,104
2017/05/27/11:55:21.318353,142575,1495857321,318002939,0,541,504,424,304,190,93,62,104
2017/05/27/11:55:21.340671,142576,1495857321,340472936,0,544,495,445,333,202,99,68,113
2017/05/27/11:55:21.363095,142577,1495857321,362967014,0,470,539,477,338,183,95,62,84
2017/05/27/11:55:21.378363,142578,1495857321,377943992,0,530,572,506,373,187,97,67,94
2017/05/27/11:55:21.400777,142579,1495857321,400497913,0,507,617,534,372,188,99,67,93
2017/05/27/11:55:21.423059,142580,1495857321,422904968,0,504,633,533,343,174,104,68,94
2017/05/27/11:55:21.438063,142581,1495857321,437928915,0,549,678,525,321,170,104,68,92
2017/05/27/11:55:21.460666,142582,1495857321,460505962,0,518,578,485,310,169,100,75,97
2017/05/27/11:55:21.483139,142583,1495857321,482945919,0,513,541,449,260,148,98,91,91
2017/05/27/11:55:21.498265,142584,1495857321,497977972,0,517,470,434,273,139,97,91,93
2017/05/27/11:55:21.520574,142585,1495857321,520431041,0,510,395,379,289,169,101,90,102
2017/05/27/11:55:21.543301,142586,1495857321,542984962,0,460,308,337,260,160,100,87,91
2017/05/27/11:55:21.558114,142587,1495857321,557935953,0,465,342,354,256,163,100,81,88
2017/05/27/11:55:21.580663,142588,1495857321,580502033,0,454,378,409,268,162,90,156,108
2017/05/27/11:55:21.603182,142589,1495857321,602974891,0,456,379,392,257,161,91,163,108
2017/05/27/11:55:21.625787,142590,1495857321,625528097,0,407,442,384,222,124,74,171,118
2017/05/27/11:55:21.640850,142591,1495857321,640500068,0,388,540,494,277,142,79,183,138
2017/05/27/11:55:21.663074,142592,1495857321,662952899,0,409,524,465,263,135,103,206,145
2017/05/27/11:55:21.685570,142593,1495857321,685437917,0,443,535,424,258,133,106,156,148
2017/05/27/11:55:21.700548,142594,1495857321,700407028,0,403,592,440,257,132,113,163,168
2017/05/27/11:55:21.723140,142595,1495857321,722946882,0,395,539,472,267,133,113,167,160
2017/05/27/11:55:21.745555,142596,1495857321,745407104,0,393,483,372,217,111,109,187,149
2017/05/27/11:55:21.760787,142597,1495857321,760499000,0,376,485,383,222,107,86,179,146
2017/05/27/11:55:21.783098,142598,1495857321,782939910,0,264,446,368,221,128,109,181,132
2017/05/27/11:55:21.814393,142599,1495857321,814111948,0,267,402,341,231,137,109,169,102
2017/05/27/11:55:21.829738,142600,1495857321,829482078,0,271,414,301,219,149,119,177,123
2017/05/27/11:55:21.851650,142601,1495857321,851247072,0,285,362,323,249,166,121,156,125
2017/05/27/11:55:21.871061,142602,1495857321,870733976,0,272,380,351,269,186,130,147,123
2017/05/27/11:55:21.880700,142603,1495857321,880454063,0,281,424,454,279,169,106,134,115
2017/05/27/11:55:21.911367,142604,1495857321,911154031,0,277,448,500,283,183,113,134,119
2017/05/27/11:55:21.925748,142605,1495857321,925473928,0,290,443,517,287,174,111,131,97
2017/05/27/11:55:21.940963,142606,1495857321,940599918,0,266,459,511,300,177,122,117,114
2017/05/27/11:55:21.963410,142607,1495857321,963071107,0,277,482,528,318,171,125,108,120
2017/05/27/11:55:21.985606,142608,1495857321,985423088,0,336,508,482,337,187,130,115,131
2017/05/27/11:55:22.000638,142609,1495857322,451087,0,392,521,535,359,177,127,116,140
2017/05/27/11:55:22.038996,142610,1495857322,38728952,0,395,509,548,367,181,125,85,136
2017/05/27/11:55:22.045612,142611,1495857322,45442104,0,386,541,531,336,174,112,82,114
2017/05/27/11:55:22.060723,142612,1495857322,60480117,0,375,500,496,307,167,104,137,114
2017/05/27/11:55:22.083105,142613,1495857322,82937955,0,307,518,489,307,200,162,142,105
2017/05/27/11:55:22.105894,142614,1495857322,105576038,0,255,471,389,274,200,169,144,90
2017/05/27/11:55:22.120740,142615,1495857322,120518922,0,223,503,347,258,201,168,146,88
2017/05/27/11:55:22.143229,142616,1495857322,142987012,0,427,506,418,316,229,188,148,87
2017/05/27/11:55:22.165694,142617,1495857322,165493011,0,709,588,512,345,232,184,97,77
2017/05/27/11:55:22.180568,142618,1495857322,180425882,0,884,645,494,315,197,144,76,68
2017/05/27/11:55:22.203365,142619,1495857322,203010082,0,982,641,471,303,204,138,66,60
2017/05/27/11:55:22.225598,142620,1495857322,225404977,0,1065,664,520,320,199,141,74,65
2017/05/27/11:55:22.248143,142621,1495857322,247950077,0,1024,624,546,305,170,115,70,62
2017/05/27/11:55:22.263160,142622,1495857322,262968063,0,857,544,452,263,168,113,64,54
2017/05/27/11:55:22.285579,142623,1495857322,285423040,0,682,457,439,257,164,97,61,55
2017/05/27/11:55:22.300688,142624,1495857322,300479888,0,526,445,445,259,144,84,62,55
2017/05/27/11:55:22.323118,142625,1495857322,322976112,0,328,384,391,238,144,76,44,45
2017/05/27/11:55:22.345623,142626,1495857322,345467090,0,241,377,274,207,140,72,43,47
2017/05/27/11:55:22.360992,142627,1495857322,360641956,0,214,374,267,203,126,69,43,50
2017/05/27/11:55:22.383422,142628,1495857322,383121967,0,157,354,254,199,128,68,46,51
2017/05/27/11:55:22.405604,142629,1495857322,405425071,0,112,366,290,206,158,69,47,53
2017/05/27/11:55:22.421407,142630,1495857322,421183109,0,98,482,375,246,178,89,63,70
2017/05/27/11:55:22.443263,142631,1495857322,442965030,0,104,541,439,246,171,90,62,70
2017/05/27/11:55:22.465679,142632,1495857322,465447902,0,102,541,443,243,173,98,60,68
2017/05/27/11:55:22.480616,142633,1495857322,480421066,0,100,504,465,258,183,100,61,67
2017/05/27/11:55:22.503171,142634,1495857322,502914905,0,96,509,454,249,157,100,58,63
2017/05/27/11:55:22.525655,142635,1495857322,525456905,0,76,423,383,223,135,81,37,42
2017/05/27/11:55:22.548180,142636,1495857322,547977924,0,65,366,334,223,147,94,43,50
2017/05/27/11:55:22.563231,142637,1495857322,562993049,0,62,369,329,224,147,97,51,57
2017/05/27/11:55:22.585597,142638,1495857322,585393905,0,64,415,299,218,126,94,53,60
2017/05/27/11:55:22.608202,142639,1495857322,607949018,0,74,425,306,233,131,89,55,63
2017/05/27/11:55:22.623192,142640,1495857322,622942924,0,76,394,291,223,136,89,58,65
2017/05/27/11:55:22.645654,142641,1495857322,645447969,0,78,401,245,198,151,88,59,60
2017/05/27/11:55:22.668067,142642,1495857322,667897939,0,85,451,294,218,159,79,56,58
2017/05/27/11:55:22.690629,142643,1495857322,690422058,0,95,461,325,231,165,80,59,65
2017/05/27/11:55:22.705893,142644,1495857322,705497980,0,96,498,312,226,163,80,60,70
2017/05/27/11:55:22.728058,142645,1495857322,727875947,0,95,515,329,257,177,92,67,73
2017/05/27/11:55:22.752166,142646,1495857322,751871109,0,92,491,368,302,177,90,73,73
2017/05/27/11:55:22.774611,142647,1495857322,773850917,0,90,484,382,305,184,95,76,72
2017/05/27/11:55:22.804453,142648,1495857322,804305076,0,82,537,406,315,186,95,71,62
2017/05/27/11:55:22.805920,142649,1495857322,805835008,0,86,537,407,308,189,109,75,66
2017/05/27/11:55:22.833781,142650,1495857322,833609104,0,91,528,414,287,180,137,81,66
2017/05/27/11:55:22.848147,142651,1495857322,847945928,0,91,570,389,239,153,136,78,78
2017/05/27/11:55:22.863152,142652,1495857322,862934112,0,88,553,341,225,160,141,74,83
2017/05/27/11:55:22.885862,142653,1495857322,885528087,0,93,481,318,204,156,151,83,94
2017/05/27/11:55:22.908071,142654,1495857322,907916069,0,86,439,326,209,157,151,86,90
2017/05/27/11:55:22.923174,142655,1495857322,922965049,0,99,499,316,202,142,119,75,88
2017/05/27/11:55:22.945670,142656,1495857322,945405006,0,104,520,318,212,142,115,71,75
2017/05/27/11:55:22.968156,142657,1495857322,967937946,0,106,523,340,210,127,120,74,74
2017/05/27/11:55:22.984702,142658,1495857322,984428882,0,104,518,345,222,159,122,65,68
2017/05/27/11:55:23.005561,142659,1495857323,5403995,0,101,526,358,251,171,118,60,66
2017/05/27/11:55:23.036475,142660,1495857323,36196947,0,92,486,353,262,178,130,69,76
2017/05/27/11:55:23.043074,142661,1495857323,42905092,0,90,479,345,253,176,126,70,83
2017/05/27/11:55:23.065722,142662,1495857323,65438985,0,97,482,355,282,169,114,68,83
2017/05/27/11:55:23.088291,142663,1495857323,88030099,0,102,480,312,253,144,101,72,79
2017/05/27/11:55:23.103650,142664,1495857323,103210926,0,107,445,292,220,123,90,67,88
2017/05/27/11:55:23.125563,142665,1495857323,125416040,0,105,439,298,229,131,77,62,84
2017/05/27/11:55:23.148197,142666,1495857323,147943973,0,106,416,340,264,150,77,58,77
2017/05/27/11:55:23.163099,142667,1495857323,162906885,0,106,463,329,235,152,80,58,82
2017/05/27/11:55:23.209233,142668,1495857323,209043979,0,129,558,366,250,161,83,60,83
2017/05/27/11:55:23.215925,142669,1495857323,215792894,0,140,630,358,252,179,94,62,75
2017/05/27/11:55:23.224678,142670,1495857323,224436998,0,145,653,454,280,183,88,57,71
2017/05/27/11:55:23.245644,142671,1495857323,245445013,0,143,640,421,243,180,96,58,74
2017/05/27/11:55:23.268410,142672,1495857323,267977952,0,143,630,408,241,180,92,52,64
2017/05/27/11:55:23.290892,142673,1495857323,290549993,0,125,535,378,234,184,92,46,69
2017/05/27/11:55:23.305571,142674,1495857323,305403947,0,119,524,397,242,165,84,47,69
2017/05/27/11:55:23.328229,142675,1495857323,327985048,0,112,489,290,189,164,86,50,68
2017/05/27/11:55:23.343206,142676,1495857323,342931985,0,111,468,302,216,171,89,51,63
2017/05/27/11:55:23.369193,142677,1495857323,368997097,0,103,426,327,216,190,106,52,68
2017/05/27/11:55:23.388388,142678,1495857323,388114929,0,101,527,378,243,174,119,52,60
2017/05/27/11:55:23.403127,142679,1495857323,402940034,0,96,485,367,257,190,124,56,82
2017/05/27/11:55:23.425641,142680,1495857323,425451993,0,97,491,380,271,183,121,55,85
2017/05/27/11:55:23.448152,142681,1495857323,447937965,0,93,494,381,261,165,115,55,87
2017/05/27/11:55:23.463178,142682,1495857323,462910890,0,99,554,372,250,148,103,59,86
2017/05/27/11:55:23.485814,142683,1495857323,485486984,0,112,528,446,345,207,96,64,90
2017/05/27/11:55:23.508167,142684,1495857323,507962942,0,108,515,437,338,205,99,60,68
2017/05/27/11:55:23.530699,142685,1495857323,530487060,0,118,535,432,331,204,99,60,66
2017/05/27/11:55:23.545688,142686,1495857323,545484066,0,124,551,455,338,211,101,58,70
2017/05/27/11:55:23.568407,142687,1495857323,568017959,0,142,551,480,348,213,104,55,62
2017/05/27/11:55:23.590698,142688,1495857323,590472936,0,146,500,364,245,202,94,50,53
2017/05/27/11:55:23.605565,142689,1495857323,605376005,0,186,593,403,234,238,123,57,61
2017/05/27/11:55:23.628391,142690,1495857323,628036975,0,184,612,390,236,269,167,58,57
2017/05/27/11:55:23.650861,142691,1495857323,650533914,0,185,629,357,240,281,184,74,58
2017/05/27/11:55:23.665690,142692,1495857323,665471076,0,170,610,307,232,288,182,77,66
2017/05/27/11:55:23.688121,142693,1495857323,687896966,0,159,602,334,227,263,184,76,78
2017/05/27/11:55:23.710743,142694,1495857323,710504055,0,114,503,306,229,220,169,76,82
2017/05/27/11:55:23.725769,142695,1495857323,725450992,0,118,612,309,214,184,127,75,86
2017/05/27/11:55:23.749698,142696,1495857323,749389886,0,120,609,314,188,168,100,65,86
2017/05/27/11:55:23.770903,142697,1495857323,770528078,0,118,573,324,194,147,104,66,87
2017/05/27/11:55:23.793070,142698,1495857323,792949914,0,113,596,329,195,160,106,73,82
2017/05/27/11:55:23.808323,142699,1495857323,807948112,0,119,610,346,209,181,92,67,76
2017/05/27/11:55:23.830579,142700,1495857323,830382108,0,113,469,384,250,212,97,71,83
2017/05/27/11:55:23.845615,142701,1495857323,845426082,0,105,434,382,271,214,110,65,78
2017/05/27/11:55:23.869520,142702,1495857323,869344949,0,108,488,384,271,218,113,64,75
2017/05/27/11:55:23.890841,142703,1495857323,890561103,0,108,440,353,256,210,108,56,72
2017/05/27/11:55:23.905695,142704,1495857323,905447959,0,115,513,319,244,220,110,62,74
2017/05/27/11:55:23.928042,142705,1495857323,927864074,0,119,547,285,220,189,102,55,65
2017/05/27/11:55:23.958548,142706,1495857323,958395004,0,126,552,393,246,183,86,58,69
2017/05/27/11:55:23.981498,142707,1495857323,981156110,0,124,524,380,237,171,72,55,69
2017/05/27/11:55:23.988168,142708,1495857323,987924098,0,128,582,411,282,178,72,62,77
2017/05/27/11:55:24.010825,142709,1495857324,10549068,0,126,521,427,283,147,64,55,69
2017/05/27/11:55:24.025718,142710,1495857324,25433063,0,119,568,428,272,167,78,63,74
2017/05/27/11:55:24.048376,142711,1495857324,48008918,0,113,562,331,238,179,84,65,81
2017/05/27/11:55:24.070580,142712,1495857324,70394039,0,117,612,357,240,196,95,68,87
2017/05/27/11:55:24.085685,142713,1495857324,85449934,0,111,557,330,198,186,96,61,80
2017/05/27/11:55:24.108438,142714,1495857324,107976913,0,96,580,322,204,195,97,63,82
2017/05/27/11:55:24.131006,142715,1495857324,130491018,0,107,526,331,208,178,91,61,79
2017/05/27/11:55:24.145870,142716,1495857324,145488023,0,113,527,364,213,162,87,57,74
2017/05/27/11:55:24.168108,142717,1495857324,167918920,0,115,464,383,222,141,70,50,68
2017/05/27/11:55:24.190647,142718,1495857324,190443038,0,130,522,403,218,135,66,54,70
2017/05/27/11:55:24.205856,142719,1495857324,205482959,0,133,503,397,210,139,83,55,74
2017/05/27/11:55:24.228144,142720,1495857324,227986097,0,121,441,382,205,154,87,57,71
2017/05/27/11:55:24.250634,142721,1495857324,250457048,0,118,445,410,257,169,93,56,62
2017/05/27/11:55:24.265587,142722,1495857324,265428066,0,120,450,496,365,206,100,64,69
2017/05/27/11:55:24.288503,142723,1495857324,288042068,0,104,503,495,364,206,100,64,66
2017/05/27/11:55:24.310863,142724,1495857324,310533046,0,103,489,493,369,208,111,78,75
2017/05/27/11:55:24.325586,142725,1495857324,325397968,0,107,521,480,373,199,111,78,78
2017/05/27/11:55:24.348067,142726,1495857324,347903013,0,104,533,442,334,182,103,77,79
2017/05/27/11:55:24.370742,142727,1495857324,370443105,0,109,577,301,202,147,102,72,70
2017/05/27/11:55:24.385573,142728,1495857324,385381937,0,104,483,280,200,149,103,71,67
2017/05/27/11:55:24.408098,142729,1495857324,407917022,0,107,517,286,194,159,82,58,56
2017/05/27/11:55:24.430573,142730,1495857324,430396080,0,111,520,300,182,152,75,54,49
2017/05/27/11:55:24.453053,142731,1495857324,452883958,0,130,577,303,186,161,80,61,56
2017/05/27/11:55:24.483994,142732,1495857324,483696937,0,122,550,347,231,178,87,68,60
2017/05/27/11:55:24.490608,142733,1495857324,490384101,0,125,570,359,238,177,95,68,64
2017/05/27/11:55:24.513165,142734,1495857324,512958049,0,119,528,359,228,145,91,64,63
2017/05/27/11:55:24.528192,142735,1495857324,527962923,0,132,555,355,255,155,90,64,65
2017/05/27/11:55:24.550597,142736,1495857324,550425052,0,118,491,410,287,145,83,56,61
2017/05/27/11:55:24.573723,142737,1495857324,573419094,0,112,456,385,261,135,77,48,62
2017/05/27/11:55:24.588119,142738,1495857324,587902069,0,113,449,390,261,135,71,46,58
2017/05/27/11:55:24.610659,142739,1495857324,610438108,0,125,494,408,280,134,71,48,59
2017/05/27/11:55:24.633133,142740,1495857324,632890939,0,116,437,401,268,124,72,47,58
2017/05/27/11:55:24.648098,142741,1495857324,647912979,0,111,463,320,231,130,82,50,60
2017/05/27/11:55:24.670694,142742,1495857324,670469045,0,117,470,299,214,117,82,50,52
2017/05/27/11:55:24.693187,142743,1495857324,692966938,0,117,443,284,227,137,89,54,55
2017/05/27/11:55:24.708244,142744,1495857324,707953929,0,107,414,261,225,156,89,54,58
2017/05/27/11:55:24.732080,142745,1495857324,731868028,0,95,443,265,208,154,93,52,57
2017/05/27/11:55:24.753307,142746,1495857324,753029108,0,96,465,266,221,150,84,51,54
2017/05/27/11:55:24.768253,142747,1495857324,767910003,0,92,442,248,221,152,88,52,66
2017/05/27/11:55:24.790594,142748,1495857324,790393114,0,85,453,231,197,137,83,55,70
2017/05/27/11:55:24.813207,142749,1495857324,812941074,0,94,512,211,162,116,80,53,63
2017/05/27/11:55:24.828230,142750,1495857324,827958106,0,99,503,230,166,130,80,54,63
2017/05/27/11:55:24.850852,142751,1495857324,850507974,0,100,455,230,151,135,87,56,62
2017/05/27/11:55:24.873172,142752,1495857324,872994899,0,104,458,302,185,131,86,52,50
2017/05/27/11:55:24.888155,142753,1495857324,887928009,0,115,489,324,189,120,79,46,43
2017/05/27/11:55:24.910951,142754,1495857324,910470962,0,108,458,348,212,125,84,47,41
2017/05/27/11:55:24.933163,142755,1495857324,932981014,0,103,449,337,208,109,78,46,40
2017/05/27/11:55:24.948102,142756,1495857324,947901010,0,107,433,358,228,115,74,45,43
2017/05/27/11:55:24.978905,142757,1495857324,978614091,0,104,419,311,202,112,70,43,48
2017/05/27/11:55:24.993256,142758,1495857324,993036031,0,103,395,292,205,123,69,44,54
2017/05/27/11:55:25.008404,142759,1495857325,7952928,0,99,337,275,192,117,63,42,54
2017/05/27/11:55:25.030580,142760,1495857325,30388116,0,102,345,269,194,119,62,42,53
2017/05/27/11:55:25.053045,142761,1495857325,52885055,0,98,360,264,159,101,56,38,49
2017/05/27/11:55:25.075607,142762,1495857325,75474023,0,100,366,280,168,123,61,39,43
2017/05/27/11:55:25.090588,142763,1495857325,90399026,0,92,378,280,176,119,58,35,35
2017/05/27/11:55:25.113119,142764,1495857325,112911939,0,102,409,264,165,124,66,38,41
2017/05/27/11:55:25.135593,142765,1495857325,135433912,0,98,410,261,159,121,67,40,42
2017/05/27/11:55:25.150594,142766,1495857325,150388956,0,91,408,228,165,133,68,41,48
2017/05/27/11:55:25.173267,142767,1495857325,173026084,0,91,503,233,171,112,67,45,49
2017/05/27/11:55:25.189523,142768,1495857325,189347028,0,91,507,266,167,119,71,48,52
2017/05/27/11:55:25.210537,142769,1495857325,210391044,0,88,470,315,210,119,69,46,49
2017/05/27/11:55:25.249526,142770,1495857325,249324083,0,99,489,321,225,121,74,47,49
2017/05/27/11:55:25.250941,142771,1495857325,250844955,0,102,479,327,231,123,84,51,50
2017/05/27/11:55:25.272024,142772,1495857325,271883010,0,95,391,324,229,131,83,50,48
2017/05/27/11:55:25.293105,142773,1495857325,292951107,0,91,363,295,215,122,81,51,44
2017/05/27/11:55:25.308020,142774,1495857325,307902097,0,84,407,242,180,119,77,52,42
2017/05/27/11:55:25.330996,142775,1495857325,330526113,0,81,382,234,181,137,72,51,47
2017/05/27/11:55:25.353141,142776,1495857325,352931022,0,79,375,240,170,127,63,51,45
2017/05/27/11:55:25.375822,142777,1495857325,375497102,0,85,514,226,169,131,75,54,46
2017/05/27/11:55:25.390635,142778,1495857325,390440940,0,98,550,226,175,130,75,51,47
2017/05/27/11:55:25.413130,142779,1495857325,412935018,0,100,543,271,201,139,78,53,51
2017/05/27/11:55:25.435647,142780,1495857325,435445070,0,103,548,288,215,134,81,54,52
2017/05/27/11:55:25.450801,142781,1495857325,450516939,0,104,571,279,215,139,89,52,52
2017/05/27/11:55:25.473252,142782,1495857325,472959995,0,106,527,283,203,139,81,49,51
2017/05/27/11:55:25.496127,142783,1495857325,495915889,0,99,488,274,210,138,83,50,49
2017/05/27/11:55:25.510683,142784,1495857325,510416984,0,101,492,270,235,139,84,51,51
2017/05/27/11:55:25.533078,142785,1495857325,532903909,0,95,542,261,215,122,79,50,46
2017/05/27/11:55:25.555619,142786,1495857325,555490970,0,96,557,276,221,115,71,48,42
2017/05/27/11:55:25.570715,142787,1495857325,570431947,0,95,526,275,236,106,67,50,42
2017/05/27/11:55:25.593327,142788,1495857325,593035936,0,89,522,281,235,114,71,52,44
2017/05/27/11:55:25.615582,142789,1495857325,615410089,0,82,518,270,200,121,77,48,37
2017/05/27/11:55:25.632144,142790,1495857325,631952047,0,79,490,264,191,122,76,45,36
2017/05/27/11:55:25.653282,142791,1495857325,652899026,0,88,513,258,184,132,76,46,36
2017/05/27/11:55:25.692075,142792,1495857325,691817998,0,83,489,237,171,123,71,42,41
2017/05/27/11:55:25.693568,142793,1495857325,693391084,0,90,537,255,167,116,66,42,43
2017/05/27/11:55:25.713086,142794,1495857325,712939023,0,89,518,245,148,96,54,41,42
2017/05/27/11:55:25.744425,142795,1495857325,744194984,0,88,473,252,160,115,59,41,43
2017/05/27/11:55:25.758101,142796,1495857325,757898092,0,77,401,250,152,104,61,39,44
2017/05/27/11:55:25.773045,142797,1495857325,772898912,0,77,382,269,159,108,61,36,37
2017/05/27/11:55:25.795811,142798,1495857325,795491933,0,76,321,259,158,116,62,33,34
2017/05/27/11:55:25.810643,142799,1495857325,810422897,0,75,303,278,196,122,68,32,37
2017/05/27/11:55:25.833203,142800,1495857325,833008050,0,94,356,287,219,115,70,40,43
2017/05/27/11:55:25.856990,142801,1495857325,856839895,0,100,416,307,228,114,71,40,43
2017/05/27/11:55:25.870623,142802,1495857325,870484113,0,98,410,299,223,121,78,44,42
2017/05/27/11:55:25.893251,142803,1495857325,892988920,0,103,495,336,236,113,80,45,43
2017/05/27/11:55:25.915565,142804,1495857325,915406942,0,115,536,311,225,115,80,48,43
2017/05/27/11:55:25.930593,142805,1495857325,930421113,0,101,531,290,197,116,83,49,37
2017/05/27/11:55:25.953346,142806,1495857325,953003883,0,92,491,265,188,114,82,49,38
2017/05/27/11:55:25.975599,142807,1495857325,975406885,0,97,503,278,197,130,84,53,43
2017/05/27/11:55:25.990814,142808,1495857325,990473985,0,89,415,218,176,141,87,54,42
2017/05/27/11:55:26.023880,142809,1495857326,21121025,0,86,412,279,201,148,87,52,45
2017/05/27/11:55:26.035737,142810,1495857326,35433053,0,88,383,290,216,157,91,52,49
2017/05/27/11:55:26.050592,142811,1495857326,50371885,0,91,383,297,224,161,94,55,51
2017/05/27/11:55:26.074871,142812,1495857326,74601888,0,85,370,294,217,140,83,48,47
2017/05/27/11:55:26.095580,142813,1495857326,95376968,0,85,366,300,223,133,78,50,47
2017/05/27/11:55:26.110564,142814,1495857326,110372066,0,73,301,255,192,126,76,48,48
2017/05/27/11:55:26.133160,142815,1495857326,132958889,0,70,365,239,170,108,69,45,45
2017/05/27/11:55:26.155768,142816,1495857326,155530929,0,72,385,240,168,104,76,45,43
2017/05/27/11:55:26.170784,142817,1495857326,170447111,0,75,384,286,213,111,77,48,47
2017/05/27/11:55:26.193403,142818,1495857326,193053007,0,75,433,295,214,111,76,49,46
2017/05/27/11:55:26.215675,142819,1495857326,215419054,0,89,495,316,211,115,79,51,50
2017/05/27/11:55:26.230619,142820,1495857326,230397939,0,85,449,316,221,124,75,50,49
2017/05/27/11:55:26.253223,142821,1495857326,253015995,0,84,439,357,254,127,65,49,48
2017/05/27/11:55:26.276067,142822,1495857326,275856971,0,90,468,317,226,130,67,50,48
2017/05/27/11:55:26.298234,142823,1495857326,297931909,0,89,428,327,228,133,67,50,47
2017/05/27/11:55:26.313402,142824,1495857326,313020944,0,80,408,297,242,136,66,51,41
2017/05/27/11:55:26.335700,142825,1495857326,335410118,0,91,494,321,244,132,68,51,43
2017/05/27/11:55:26.367779,142826,1495857326,367557048,0,95,523,266,212,135,68,49,45
2017/05/27/11:55:26.373203,142827,1495857326,372884035,0,90,519,259,194,128,68,47,43
2017/05/27/11:55:26.395566,142828,1495857326,395356893,0,91,554,277,219,127,66,44,43
2017/05/27/11:55:26.426329,142829,1495857326,426130056,0,88,532,306,208,121,63,41,45
2017/05/27/11:55:26.433119,142830,1495857326,432900905,0,77,465,276,199,118,64,37,40
2017/05/27/11:55:26.463753,142831,1495857326,463561058,0,72,459,268,185,110,60,38,42
2017/05/27/11:55:26.478165,142832,1495857326,477893114,0,71,451,292,202,135,66,40,47
2017/05/27/11:55:26.493328,142833,1495857326,493014097,0,75,452,285,196,141,66,44,50
2017/05/27/11:55:26.515575,142834,1495857326,515413999,0,74,459,250,172,135,71,41,45
2017/05/27/11:55:26.538662,142835,1495857326,538465976,0,81,450,307,183,132,66,41,46
2017/05/27/11:55:26.553122,142836,1495857326,552892923,0,85,438,319,197,133,64,40,43
2017/05/27/11:55:26.577125,142837,1495857326,576899051,0,88,417,299,186,110,57,38,40
2017/05/27/11:55:26.598130,142838,1495857326,597915887,0,87,365,285,178,105,56,33,37
2017/05/27/11:55:26.617193,142839,1495857326,616991996,0,85,343,315,202,103,52,36,42
2017/05/27/11:55:26.635717,142840,1495857326,635468006,0,79,343,262,190,101,55,40,42
2017/05/27/11:55:26.658052,142841,1495857326,657932996,0,89,369,276,199,123,67,42,41
2017/05/27/11:55:26.673285,142842,1495857326,672977924,0,98,467,330,229,119,62,40,41
2017/05/27/11:55:26.695685,142843,1495857326,695456981,0,107,525,347,227,112,67,44,48
2017/05/27/11:55:26.718120,142844,1495857326,717930078,0,112,537,342,214,111,71,47,47
2017/05/27/11:55:26.733105,142845,1495857326,732897996,0,116,598,387,235,121,77,48,51
2017/05/27/11:55:26.755647,142846,1495857326,755367994,0,106,593,388,240,108,72,46,50
2017/05/27/11:55:26.778061,142847,1495857326,777883052,0,98,535,350,220,124,78,49,52
2017/05/27/11:55:26.800696,142848,1495857326,800437927,0,89,484,319,202,117,72,45,46
2017/05/27/11:55:26.815632,142849,1495857326,815356016,0,85,482,324,206,127,77,41,50
2017/05/27/11:55:26.838247,142850,1495857326,837927103,0,86,472,304,188,122,72,39,47
2017/05/27/11:55:26.854825,142851,1495857326,854563951,0,84,429,289,170,114,71,42,48
2017/05/27/11:55:26.875595,142852,1495857326,875389099,0,87,468,315,161,93,64,40,45
2017/05/27/11:55:26.914649,142853,1495857326,914359092,0,88,459,346,192,104,66,48,48
2017/05/27/11:55:26.916056,142854,1495857326,915869951,0,88,450,344,220,132,62,48,43
2017/05/27/11:55:26.935879,142855,1495857326,935430049,0,82,402,345,217,129,69,47,42
2017/05/27/11:55:26.974422,142856,1495857326,974246978,0,108,489,348,210,128,69,45,47
2017/05/27/11:55:26.975937,142857,1495857326,975794076,0,100,418,311,203,128,69,45,46
2017/05/27/11:55:26.995867,142858,1495857326,995496034,0,96,426,270,180,125,70,38,42
2017/05/27/11:55:27.018106,142859,1495857327,17843961,0,98,433,257,131,92,66,37,41
2017/05/27/11:55:27.033387,142860,1495857327,32989025,0,103,412,259,134,104,66,40,42
2017/05/27/11:55:27.055551,142861,1495857327,55362939,0,75,305,237,136,125,74,49,39
2017/05/27/11:55:27.078733,142862,1495857327,78434944,0,81,361,233,139,137,76,50,43
2017/05/27/11:55:27.093219,142863,1495857327,92958927,0,79,360,249,147,166,77,50,45
2017/05/27/11:55:27.115650,142864,1495857327,115389108,0,78,391,333,181,163,79,49,42
2017/05/27/11:55:27.146294,142865,1495857327,146091938,0,75,373,314,179,164,73,51,44
2017/05/27/11:55:27.153136,142866,1495857327,152863979,0,76,377,343,194,150,61,42,42
2017/05/27/11:55:27.184104,142867,1495857327,183669090,0,70,397,351,201,145,64,40,39
2017/05/27/11:55:27.198364,142868,1495857327,198034048,0,69,383,338,196,107,61,40,37
2017/05/27/11:55:27.214711,142869,1495857327,214391946,0,65,368,231,166,106,57,41,43
2017/05/27/11:55:27.243806,142870,1495857327,243598937,0,63,365,240,169,104,53,41,47
2017/05/27/11:55:27.258359,142871,1495857327,258022069,0,58,346,221,168,109,60,39,45
2017/05/27/11:55:27.280619,142872,1495857327,280399084,0,57,283,211,155,103,55,39,45
2017/05/27/11:55:27.297159,142873,1495857327,296906948,0,65,293,208,146,103,54,38,45
2017/05/27/11:55:27.318187,142874,1495857327,317892074,0,65,271,271,186,111,55,39,48
2017/05/27/11:55:27.340661,142875,1495857327,340435028,0,63,271,250,183,104,61,36,43
2017/05/27/11:55:27.357031,142876,1495857327,356853008,0,71,293,230,165,95,58,37,42
2017/05/27/11:55:27.378053,142877,1495857327,377914905,0,73,281,226,174,97,56,38,43
2017/05/27/11:55:27.408737,142878,1495857327,408593893,0,78,364,276,206,127,62,40,48
2017/05/27/11:55:27.415528,142879,1495857327,415395021,0,86,371,233,181,120,60,37,46
2017/05/27/11:55:27.438147,142880,1495857327,437964916,0,94,382,256,197,121,53,40,54
2017/05/27/11:55:27.460679,142881,1495857327,460498094,0,96,391,263,212,123,48,40,56
2017/05/27/11:55:27.475492,142882,1495857327,475358009,0,101,437,280,233,130,51,40,62
2017/05/27/11:55:27.498074,142883,1495857327,497900009,0,96,402,245,212,104,45,39,59
2017/05/27/11:55:27.520566,142884,1495857327,520382881,0,98,401,229,209,98,43,40,62
2017/05/27/11:55:27.535536,142885,1495857327,535387992,0,90,385,201,188,89,41,36,56
2017/05/27/11:55:27.558058,142886,1495857327,557890892,0,88,360,190,194,87,41,34,59
2017/05/27/11:55:27.580507,142887,1495857327,580360889,0,78,362,167,169,74,36,33,53
2017/05/27/11:55:27.595610,142888,1495857327,595442056,0,79,347,148,163,70,33,32,55
2017/05/27/11:55:27.618068,142889,1495857327,617876052,0,74,355,138,149,67,30,29,46
2017/05/27/11:55:27.640641,142890,1495857327,640408992,0,75,367,134,142,61,29,30,45
2017/05/27/11:55:27.655602,142891,1495857327,655431032,0,75,382,156,120,61,29,32,41
2017/05/27/11:55:27.678229,142892,1495857327,677974939,0,76,334,151,104,58,29,30,42
2017/05/27/11:55:27.700534,142893,1495857327,700386047,0,72,302,158,92,51,27,30,38
2017/05/27/11:55:27.715870,142894,1495857327,715605974,0,61,262,160,91,50,26,28,36
2017/05/27/11:55:27.738073,142895,1495857327,737907886,0,59,246,154,94,51,26,27,35
2017/05/27/11:55:27.760746,142896,1495857327,760492086,0,51,224,125,72,38,25,26,33
2017/05/27/11:55:27.775782,142897,1495857327,775441884,0,46,207,120,70,36,27,27,29
2017/05/27/11:55:27.798108,142898,1495857327,797908067,0,44,184,100,69,37,27,27,28
2017/05/27/11:55:27.820666,142899,1495857327,820396900,0,43,168,101,61,34,26,28,28
2017/05/27/11:55:27.835622,142900,1495857327,835441112,0,39,155,107,58,35,27,28,26
2017/05/27/11:55:27.858214,142901,1495857327,857975006,0,35,142,102,51,36,27,26,24
2017/05/27/11:55:27.880582,142902,1495857327,880419015,0,34,121,99,50,34,25,27,38
2017/05/27/11:55:27.897146,142903,1495857327,896910905,0,39,147,96,45,31,24,25,37
2017/05/27/11:55:27.918073,142904,1495857327,917897939,0,38,148,76,45,30,23,28,37
2017/05/27/11:55:27.940513,142905,1495857327,940381050,0,42,155,64,38,27,22,26,38
2017/05/27/11:55:27.963347,142906,1495857327,963013887,0,46,152,64,46,26,21,26,38
2017/05/27/11:55:27.978091,142907,1495857327,977889060,0,47,152,62,43,26,20,22,27
2017/05/27/11:55:28.000805,142908,1495857328,441074,0,51,250,79,42,26,23,23,30
2017/05/27/11:55:28.015577,142909,1495857328,15454053,0,52,254,80,41,24,21,19,29
2017/05/27/11:55:28.037985,142910,1495857328,37862062,0,50,277,80,44,24,23,17,27
2017/05/27/11:55:28.060782,142911,1495857328,60528039,0,45,280,79,35,21,23,18,29
2017/05/27/11:55:28.075597,142912,1495857328,75428009,0,49,282,80,40,22,24,18,27
2017/05/27/11:55:28.098302,142913,1495857328,97995996,0,42,210,80,43,25,22,17,24
2017/05/27/11:55:28.120556,142914,1495857328,120407104,0,56,250,139,83,33,25,19,25
2017/05/27/11:55:28.135880,142915,1495857328,135564088,0,55,217,148,83,32,25,22,26
2017/05/27/11:55:28.158091,142916,1495857328,157896995,0,57,214,150,85,32,24,23,23
2017/05/27/11:55:28.180691,142917,1495857328,180469989,0,55,216,150,85,32,23,27,27
2017/05/27/11:55:28.203356,142918,1495857328,203001976,0,52,209,153,95,36,24,29,28
2017/05/27/11:55:28.217985,142919,1495857328,217840909,0,51,233,140,101,40,24,27,29
2017/05/27/11:55:28.240724,142920,1495857328,240467071,0,52,237,151,123,47,24,25,29
2017/05/27/11:55:28.263022,142921,1495857328,262859106,0,50,231,153,128,49,27,26,31
2017/05/27/11:55:28.278273,142922,1495857328,278003931,0,59,272,158,131,50,28,23,29
2017/05/27/11:55:28.300728,142923,1495857328,300462007,0,58,259,151,133,48,26,21,29
2017/05/27/11:55:28.323204,142924,1495857328,322906017,0,46,191,169,142,56,32,23,28
2017/05/27/11:55:28.338455,142925,1495857328,338027954,0,44,190,228,169,60,33,23,27
2017/05/27/11:55:28.360493,142926,1495857328,360363006,0,46,190,241,169,59,31,23,25
2017/05/27/11:55:28.383260,142927,1495857328,383074045,0,36,114,245,171,62,32,23,25
2017/05/27/11:55:28.398394,142928,1495857328,398081064,0,61,128,256,176,61,32,23,28
2017/05/27/11:55:28.423356,142929,1495857328,422010898,0,67,146,242,163,56,29,28,28
2017/05/27/11:55:28.443088,142930,1495857328,442879915,0,70,152,187,131,47,27,30,29
2017/05/27/11:55:28.457999,142931,1495857328,457865953,0,69,152,189,142,53,31,29,29
2017/05/27/11:55:28.480556,142932,1495857328,480396032,0,69,154,185,143,50,30,28,27
2017/05/27/11:55:28.503084,142933,1495857328,502914905,0,81,177,178,133,52,31,29,26
2017/05/27/11:55:28.518169,142934,1495857328,518018960,0,81,165,174,122,44,28,24,26
2017/05/27/11:55:28.540601,142935,1495857328,540416002,0,84,172,186,117,50,29,22,26
2017/05/27/11:55:28.563458,142936,1495857328,563105106,0,86,177,169,108,49,26,23,26
2017/05/27/11:55:28.578158,142937,1495857328,577883005,0,85,172,167,100,47,25,23,26
2017/05/27/11:55:28.600572,142938,1495857328,600373983,0,56,148,156,98,45,25,24,25
2017/05/27/11:55:28.623261,142939,1495857328,623014926,0,52,147,144,96,45,24,21,25
2017/05/27/11:55:28.638095,142940,1495857328,637875080,0,51,141,157,116,45,25,20,26
2017/05/27/11:55:28.660507,142941,1495857328,660361051,0,56,157,166,116,43,28,21,27
2017/05/27/11:55:28.683037,142942,1495857328,682884931,0,56,165,172,118,44,27,23,28
2017/05/27/11:55:28.705512,142943,1495857328,705393075,0,52,158,173,116,44,27,23,27
2017/05/27/11:55:28.722006,142944,1495857328,721865892,0,51,151,185,118,43,27,24,30
2017/05/27/11:55:28.743221,142945,1495857328,742908000,0,54,165,197,108,49,31,25,34
2017/05/27/11:55:28.765531,142946,1495857328,765362977,0,49,144,208,106,48,32,25,34
2017/05/27/11:55:28.782114,142947,1495857328,781891107,0,52,153,210,106,48,33,23,33
2017/05/27/11:55:28.803253,142948,1495857328,803006887,0,58,201,212,107,48,33,24,34
2017/05/27/11:55:28.825580,142949,1495857328,825397014,0,74,210,202,109,53,37,27,37
2017/05/27/11:55:28.850225,142950,1495857328,850054979,0,66,199,168,87,38,30,24,32
2017/05/27/11:55:28.863060,142951,1495857328,862898111,0,65,201,164,122,51,32,25,34
2017/05/27/11:55:28.885544,142952,1495857328,885349035,0,66,191,160,122,54,31,28,35
2017/05/27/11:55:28.909642,142953,1495857328,909308910,0,60,135,155,121,53,31,26,37
2017/05/27/11:55:28.923203,142954,1495857328,922943115,0,49,150,217,175,65,30,23,34
2017/05/27/11:55:28.945798,142955,1495857328,945451021,0,51,145,226,184,67,31,24,35
2017/05/27/11:55:28.962101,142956,1495857328,961828947,0,54,165,215,163,55,25,24,36
2017/05/27/11:55:28.983124,142957,1495857328,982896089,0,71,169,214,165,53,25,19,34
2017/05/27/11:55:29.022139,142958,1495857329,21821022,0,72,175,245,197,62,30,23,32
2017/05/27/11:55:29.023471,142959,1495857329,23330926,0,69,155,194,154,51,30,24,31
2017/05/27/11:55:29.043293,142960,1495857329,42938947,0,71,157,174,145,50,28,25,32
2017/05/27/11:55:29.073066,142961,1495857329,72866916,0,72,132,178,144,51,29,26,32
2017/05/27/11:55:29.089565,142962,1495857329,89385986,0,56,162,196,150,52,29,28,33
2017/05/27/11:55:29.104606,142963,1495857329,104373931,0,55,167,164,111,42,24,28,37
2017/05/27/11:55:29.127104,142964,1495857329,126897096,0,48,165,160,103,37,22,27,35
2017/05/27/11:55:29.142082,142965,1495857329,141863107,0,46,153,167,104,36,22,27,36
2017/05/27/11:55:29.163139,142966,1495857329,162929058,0,40,153,158,101,36,22,24,33
2017/05/27/11:55:29.185616,142967,1495857329,185404062,0,35,119,186,143,45,24,25,35
2017/05/27/11:55:29.202060,142968,1495857329,201827049,0,34,105,184,142,48,25,23,31
2017/05/27/11:55:29.223181,142969,1495857329,222877979,0,32,97,189,144,48,24,23,29
2017/05/27/11:55:29.245574,142970,1495857329,245353937,0,29,97,177,139,47,25,24,27
2017/05/27/11:55:29.262081,142971,1495857329,261850118,0,30,92,171,138,47,24,23,27
2017/05/27/11:55:29.284464,142972,1495857329,284292936,0,28,89,109,79,36,23,22,22
2017/05/27/11:55:29.305707,142973,1495857329,305494070,0,28,103,162,114,48,26,27,24
2017/05/27/11:55:29.322036,142974,1495857329,321854114,0,31,109,157,113,50,28,29,26
2017/05/27/11:55:29.344478,142975,1495857329,344325065,0,34,120,166,116,50,28,27,26
2017/05/27/11:55:29.365441,142976,1495857329,365322113,0,34,122,172,118,50,29,29,27
2017/05/27/11:55:29.382081,142977,1495857329,381856918,0,35,123,170,119,50,28,28,27
2017/05/27/11:55:29.404598,142978,1495857329,404345989,0,37,116,122,87,35,25,24,24
2017/05/27/11:55:29.425684,142979,1495857329,425462007,0,37,114,122,86,34,25,23,23
2017/05/27/11:55:29.442029,142980,1495857329,441854953,0,39,165,152,101,41,26,23,23
2017/05/27/11:55:29.464516,142981,1495857329,464374065,0,43,190,166,109,43,24,22,23
2017/05/27/11:55:29.485888,142982,1495857329,485474109,0,42,187,168,110,42,24,23,25
2017/05/27/11:55:29.508010,142983,1495857329,507858991,0,40,185,167,108,45,24,22,24
2017/05/27/11:55:29.525625,142984,1495857329,524364948,0,40,194,170,111,45,22,20,23
2017/05/27/11:55:29.545592,142985,1495857329,545350074,0,40,157,168,116,41,22,21,25
2017/05/27/11:55:29.568035,142986,1495857329,567852973,0,36,133,171,122,41,23,21,26
2017/05/27/11:55:29.584635,142987,1495857329,584367036,0,38,140,171,124,44,27,21,26
2017/05/27/11:55:29.605669,142988,1495857329,605400085,0,37,135,173,127,42,26,22,26
2017/05/27/11:55:29.628093,142989,1495857329,627911090,0,35,128,172,125,43,26,23,27
2017/05/27/11:55:29.644531,142990,1495857329,644303083,0,31,124,171,119,47,27,23,25
2017/05/27/11:55:29.665634,142991,1495857329,665442943,0,31,122,153,104,46,28,24,25
2017/05/27/11:55:29.688124,142992,1495857329,687882900,0,28,110,152,106,44,24,23,25
2017/05/27/11:55:29.704590,142993,1495857329,704354047,0,31,120,155,102,44,24,24,25
2017/05/27/11:55:29.725753,142994,1495857329,725493907,0,32,126,150,105,42,23,24,25
2017/05/27/11:55:29.748065,142995,1495857329,747884988,0,32,112,113,98,36,21,21,24
2017/05/27/11:55:29.764557,142996,1495857329,764379978,0,29,100,113,97,32,20,20,24
2017/05/27/11:55:29.785581,142997,1495857329,785384893,0,29,102,110,93,34,22,22,23
2017/05/27/11:55:29.808289,142998,1495857329,807976007,0,28,105,106,99,38,23,20,22
2017/05/27/11:55:29.824512,142999,1495857329,824358940,0,26,91,98,92,36,24,19,23
2017/05/27/11:55:29.845822,143000,1495857329,845438957,0,29,97,105,95,40,26,20,23
2017/05/27/11:55:29.862056,143001,1495857329,861844062,0,32,108,108,100,45,28,20,22
2017/05/27/11:55:29.884514,143002,1495857329,884330987,0,34,110,125,111,48,28,19,21
2017/05/27/11:55:29.905595,143003,1495857329,905414104,0,33,99,115,104,43,28,21,23
2017/05/27/11:55:29.921950,143004,1495857329,921801090,0,33,92,127,107,44,27,21,22
2017/05/27/11:55:29.944723,143005,1495857329,944451093,0,29,100,124,100,42,27,25,22
2017/05/27/11:55:29.965721,143006,1495857329,965441942,0,26,99,136,103,39,25,24,22
2017/05/27/11:55:29.987974,143007,1495857329,987840890,0,26,99,126,93,37,25,27,25
2017/05/27/11:55:30.004495,143008,1495857330,4376888,0,55,92,128,91,37,24,25,23
2017/05/27/11:55:30.025470,143009,1495857330,25331974,0,57,96,115,87,37,25,25,23
2017/05/27/11:55:30.048034,143010,1495857330,47868013,0,58,112,138,104,41,25,24,22
2017/05/27/11:55:30.064512,143011,1495857330,64342021,0,59,106,153,127,47,27,25,22
2017/05/27/11:55:30.085664,143012,1495857330,85474967,0,60,102,151,123,47,29,22,22
2017/05/27/11:55:30.108052,143013,1495857330,107866048,0,37,102,156,127,47,28,21,24
2017/05/27/11:55:30.124593,143014,1495857330,124342918,0,37,94,172,131,46,27,20,26
2017/05/27/11:55:30.145493,143015,1495857330,145323991,0,36,73,151,114,43,25,16,26
2017/05/27/11:55:30.168394,143016,1495857330,167989969,0,34,67,118,75,33,25,16,25
2017/05/27/11:55:30.184768,143017,1495857330,184351921,0,32,69,111,68,29,20,16,24
2017/05/27/11:55:30.205583,143018,1495857330,205410003,0,32,67,142,94,34,21,19,21
2017/05/27/11:55:30.228091,143019,1495857330,227885961,0,29,70,134,91,34,21,22,20
2017/05/27/11:55:30.244715,143020,1495857330,244385004,0,24,52,130,90,32,24,24,20
2017/05/27/11:55:30.265692,143021,1495857330,265429973,0,25,49,127,88,31,21,23,22
2017/05/27/11:55:30.288438,143022,1495857330,288005113,0,23,52,130,91,32,24,23,23
2017/05/27/11:55:30.304570,143023,1495857330,304380893,0,21,53,88,58,26,25,22,24
2017/05/27/11:55:30.325626,143024,1495857330,325428009,0,23,58,72,58,27,24,22,24
2017/05/27/11:55:30.348207,143025,1495857330,347908020,0,23,59,97,62,29,22,21,22
2017/05/27/11:55:30.364522,143026,1495857330,364361047,0,23,60,96,61,29,24,22,20
2017/05/27/11:55:30.385784,143027,1495857330,385472059,0,23,52,93,58,28,21,22,18
2017/05/27/11:55:30.408001,143028,1495857330,407835960,0,22,49,91,55,28,21,21,16
2017/05/27/11:55:30.424582,143029,1495857330,424403905,0,19,41,86,52,24,20,18,16
2017/05/27/11:55:30.445554,143030,1495857330,445369005,0,20,44,57,53,22,21,17,16
2017/05/27/11:55:30.468110,143031,1495857330,467910051,0,20,43,68,61,24,20,17,16
2017/05/27/11:55:30.484585,143032,1495857330,484369039,0,22,45,66,63,23,20,15,18
2017/05/27/11:55:30.505540,143033,1495857330,505359888,0,23,46,62,60,21,19,15,21
2017/05/27/11:55:30.528308,143034,1495857330,527981996,0,24,49,58,52,22,21,16,21
2017/05/27/11:55:30.544512,143035,1495857330,544329881,0,23,59,67,46,20,19,17,22
2017/05/27/11:55:30.565514,143036,1495857330,565331935,0,22,62,54,34,20,20,17,23
2017/05/27/11:55:30.588206,143037,1495857330,587918043,0,21,63,53,31,20,20,17,23
2017/05/27/11:55:30.604613,143038,1495857330,604335069,0,22,73,58,31,20,20,16,19
2017/05/27/11:55:30.625912,143039,1495857330,625526905,0,21,71,71,46,29,19,19,21
2017/05/27/11:55:30.648106,143040,1495857330,647877931,0,23,59,65,47,31,20,19,20
2017/05/27/11:55:30.664495,143041,1495857330,664335012,0,24,57,65,47,30,21,21,19
2017/05/27/11:55:30.685598,143042,1495857330,685368061,0,23,55,66,45,30,21,21,19
2017/05/27/11:55:30.708250,143043,1495857330,707889080,0,24,64,76,69,37,22,24,20
2017/05/27/11:55:30.724576,143044,1495857330,724402904,0,23,75,68,65,31,23,21,18
2017/05/27/11:55:30.745561,143045,1495857330,745399951,0,22,76,65,64,30,22,21,19
2017/05/27/11:55:30.768215,143046,1495857330,767911911,0,21,76,67,66,31,20,20,18
2017/05/27/11:55:30.784551,143047,1495857330,784344911,0,21,79,69,69,30,20,19,19
2017/05/27/11:55:30.805748,143048,1495857330,805438041,0,20,77,79,55,22,17,17,19
2017/05/27/11:55:30.828079,143049,1495857330,827888011,0,19,64,75,50,21,17,19,19
2017/05/27/11:55:30.844552,143050,1495857330,844371080,0,23,74,78,49,21,19,18,19
2017/05/27/11:55:30.865707,143051,1495857330,865434885,0,25,77,77,48,20,18,19,20
2017/05/27/11:55:30.888200,143052,1495857330,887875080,0,26,89,99,61,23,20,20,20
2017/05/27/11:55:30.904515,143053,1495857330,904337882,0,25,77,87,54,27,23,19,19
2017/05/27/11:55:30.925558,143054,1495857330,925406932,0,27,79,89,56,30,25,18,20
2017/05/27/11:55:30.948198,143055,1495857330,947941064,0,24,82,90,56,29,24,17,20
2017/05/27/11:55:30.964472,143056,1495857330,964340925,0,23,81,89,55,31,26,16,20
2017/05/27/11:55:30.985525,143057,1495857330,985369920,0,23,66,69,54,31,24,17,19
2017/05/27/11:55:31.008028,143058,1495857331,7863044,0,26,76,61,52,30,24,18,19
2017/05/27/11:55:31.030500,143059,1495857331,30338048,0,24,78,58,51,27,23,18,17
2017/05/27/11:55:31.047304,143060,1495857331,46839952,0,24,74,53,50,27,23,18,18
2017/05/27/11:55:31.068302,143061,1495857331,68046092,0,23,75,57,52,26,23,19,19
2017/05/27/11:55:31.090667,143062,1495857331,90434074,0,25,80,48,32,23,23,19,20
2017/05/27/11:55:31.107009,143063,1495857331,106817007,0,23,69,46,29,22,20,19,20
2017/05/27/11:55:31.135642,143064,1495857331,135437965,0,24,73,44,29,21,19,18,21
2017/05/27/11:55:31.150676,143065,1495857331,150433063,0,24,70,50,29,21,17,18,20
2017/05/27/11:55:31.166963,143066,1495857331,166834115,0,24,73,61,46,25,15,16,18
2017/05/27/11:55:31.188102,143067,1495857331,187921047,0,22,68,72,51,27,16,16,20
2017/05/27/11:55:31.210526,143068,1495857331,210375070,0,26,95,71,52,28,18,15,20
2017/05/27/11:55:31.227093,143069,1495857331,226896047,0,26,94,71,52,28,20,16,20
2017/05/27/11:55:31.248175,143070,1495857331,247893095,0,25,95,70,53,29,21,17,21
2017/05/27/11:55:31.270652,143071,1495857331,270421981,0,25,96,84,64,29,23,19,21
2017/05/27/11:55:31.287037,143072,1495857331,286827087,0,28,98,90,65,27,21,19,19
2017/05/27/11:55:31.308198,143073,1495857331,307899951,0,26,84,93,65,26,20,21,19
2017/05/27/11:55:31.330616,143074,1495857331,330385923,0,25,86,94,67,26,18,20,19
2017/05/27/11:55:31.347045,143075,1495857331,346829891,0,25,88,91,66,25,17,21,20
2017/05/27/11:55:31.368026,143076,1495857331,367831945,0,27,90,75,42,21,17,19,21
2017/05/27/11:55:31.390552,143077,1495857331,390333890,0,23,86,72,53,23,17,19,20
2017/05/27/11:55:31.407012,143078,1495857331,406836032,0,22,75,70,54,25,20,18,22
2017/05/27/11:55:31.428051,143079,1495857331,427858114,0,26,96,72,56,25,21,19,22
2017/05/27/11:55:31.450640,143080,1495857331,450445890,0,26,97,72,56,26,22,18,22
2017/05/27/11:55:31.467106,143081,1495857331,466836929,0,24,90,64,54,24,20,18,20
2017/05/27/11:55:31.488076,143082,1495857331,487875938,0,24,91,47,37,22,22,19,23
2017/05/27/11:55:31.510752,143083,1495857331,510471105,0,24,95,57,40,20,19,19,21
2017/05/27/11:55:31.526981,143084,1495857331,526815891,0,24,69,71,51,26,19,17,20
2017/05/27/11:55:31.548066,143085,1495857331,547890901,0,24,61,75,53,28,21,18,19
2017/05/27/11:55:31.570624,143086,1495857331,570399045,0,25,62,76,55,28,21,19,21
2017/05/27/11:55:31.587092,143087,1495857331,586894989,0,27,73,75,54,28,20,16,21
2017/05/27/11:55:31.607981,143088,1495857331,607832908,0,26,72,78,56,28,20,16,22
2017/05/27/11:55:31.630662,143089,1495857331,630362987,0,23,69,84,56,23,20,16,23
2017/05/27/11:55:31.647031,143090,1495857331,646831035,0,23,77,85,57,22,18,15,23
2017/05/27/11:55:31.668455,143091,1495857331,667967081,0,21,75,85,57,23,18,16,22
2017/05/27/11:55:31.690617,143092,1495857331,690418958,0,20,69,84,56,25,20,16,21
2017/05/27/11:55:31.707094,143093,1495857331,706840991,0,19,64,73,50,23,19,16,18
2017/05/27/11:55:31.728126,143094,1495857331,727828979,0,20,81,52,35,22,19,18,18
2017/05/27/11:55:31.750762,143095,1495857331,750417947,0,19,70,53,34,21,20,19,18
2017/05/27/11:55:31.766986,143096,1495857331,766807079,0,23,78,55,34,22,19,19,20
2017/05/27/11:55:31.788025,143097,1495857331,787842988,0,23,73,57,34,21,20,20,20
2017/05/27/11:55:31.810769,143098,1495857331,810425996,0,22,73,57,36,21,20,19,21
2017/05/27/11:55:31.827210,143099,1495857331,826817989,0,21,54,54,32,21,20,19,20
2017/05/27/11:55:31.848149,143100,1495857331,847902059,0,25,56,62,38,23,19,18,20
2017/05/27/11:55:31.870567,143101,1495857331,870374917,0,22,40,62,38,22,20,19,18
2017/05/27/11:55:31.887014,143102,1495857331,886848926,0,23,58,60,38,22,19,19,18
2017/05/27/11:55:31.908205,143103,1495857331,907993078,0,25,70,58,37,22,19,18,20
2017/05/27/11:55:31.930676,143104,1495857331,930385112,0,26,74,57,37,21,20,19,21
2017/05/27/11:55:31.947308,143105,1495857331,946825981,0,23,76,36,27,19,19,18,20
2017/05/27/11:55:31.968073,143106,1495857331,967886924,0,23,86,35,28,19,17,16,21
2017/05/27/11:55:31.990702,143107,1495857331,990391969,0,23,80,50,37,20,18,17,19
2017/05/27/11:55:32.013178,143108,1495857332,12897014,0,21,73,53,39,19,17,18,18
2017/05/27/11:55:32.028231,143109,1495857332,27949094,0,22,71,52,41,21,16,18,16
2017/05/27/11:55:32.050684,143110,1495857332,50474882,0,24,80,52,42,21,17,19,17
2017/05/27/11:55:32.073109,143111,1495857332,72916984,0,23,75,49,39,21,17,18,16
2017/05/27/11:55:32.088221,143112,1495857332,87913036,0,21,76,36,30,22,16,17,16
2017/05/27/11:55:32.110782,143113,1495857332,110373973,0,22,74,39,32,22,16,16,14
2017/05/27/11:55:32.133175,143114,1495857332,132920026,0,20,81,61,50,24,17,15,16
2017/05/27/11:55:32.148430,143115,1495857332,147947072,0,19,71,65,53,24,16,14,17
2017/05/27/11:55:32.170512,143116,1495857332,170344114,0,22,68,66,56,24,16,14,18
2017/05/27/11:55:32.193132,143117,1495857332,192910909,0,22,68,70,56,23,16,15,17
2017/05/27/11:55:32.208134,143118,1495857332,207874059,0,24,73,71,54,23,18,16,21
2017/05/27/11:55:32.230639,143119,1495857332,230340957,0,26,71,62,38,20,18,17,20
2017/05/27/11:55:32.253050,143120,1495857332,252852916,0,26,70,60,34,20,18,19,20
2017/05/27/11:55:32.268189,143121,1495857332,267982959,0,25,75,76,51,22,20,20,21
2017/05/27/11:55:32.290614,143122,1495857332,290391921,0,26,72,76,54,23,20,21,23
2017/05/27/11:55:32.313232,143123,1495857332,312917947,0,24,70,72,54,22,19,21,22
2017/05/27/11:55:32.328482,143124,1495857332,328074932,0,22,64,65,54,22,19,21,22
2017/05/27/11:55:32.350589,143125,1495857332,350392103,0,24,78,65,54,22,19,20,22
2017/05/27/11:55:32.380881,143126,1495857332,380484104,0,21,78,43,35,19,19,19,22
2017/05/27/11:55:32.389571,143127,1495857332,389395952,0,21,78,45,33,18,20,18,20
2017/05/27/11:55:32.410734,143128,1495857332,410468101,0,22,87,45,35,19,19,17,20
2017/05/27/11:55:32.434577,143129,1495857332,434309959,0,22,84,49,33,20,20,17,20
2017/05/27/11:55:32.449571,143130,1495857332,449310064,0,19,72,45,31,20,20,17,19
2017/05/27/11:55:32.470643,143131,1495857332,470359086,0,23,66,50,31,20,20,17,18
2017/05/27/11:55:32.493006,143132,1495857332,492839097,0,24,89,59,46,23,19,18,18
2017/05/27/11:55:32.509506,143133,1495857332,509319067,0,23,77,63,48,23,20,20,18
2017/05/27/11:55:32.530924,143134,1495857332,530462026,0,25,89,62,47,24,18,19,17
2017/05/27/11:55:32.553069,143135,1495857332,552895069,0,26,91,62,48,23,18,20,17
2017/05/27/11:55:32.569501,143136,1495857332,569305896,0,23,100,64,50,24,18,20,16
2017/05/27/11:55:32.590566,143137,1495857332,590369939,0,21,79,52,34,21,18,21,16
2017/05/27/11:55:32.613123,143138,1495857332,612888097,0,21,81,46,28,19,17,20,15
2017/05/27/11:55:32.629798,143139,1495857332,629354953,0,20,72,45,29,19,18,19,17
2017/05/27/11:55:32.650553,143140,1495857332,650372982,0,21,84,48,29,18,17,18,18
2017/05/27/11:55:32.673096,143141,1495857332,672904014,0,23,85,36,21,19,19,17,19
2017/05/27/11:55:32.689602,143142,1495857332,689330101,0,27,82,33,21,20,19,19,47
2017/05/27/11:55:32.710581,143143,1495857332,710370063,0,32,80,31,19,19,21,19,78
2017/05/27/11:55:32.733140,143144,1495857332,732944011,0,33,73,28,18,19,21,21,84
2017/05/27/11:55:32.749558,143145,1495857332,749381065,0,34,66,34,25,22,23,22,86
2017/05/27/11:55:32.770910,143146,1495857332,770476102,0,34,56,52,34,21,21,22,89
2017/05/27/11:55:32.793084,143147,1495857332,792834997,0,34,60,55,37,22,20,21,81
