time,.header.seq,.header.stamp.secs,.header.stamp.nsecs,.header.frame_id,.ch0,.ch1,.ch2,.ch3,.ch4,.ch5,.ch6,.ch7
2017/05/27/11:50:19.647793,127531,1495857019,647561073,0,78,63,49,34,40,57,121,106
2017/05/27/11:50:19.678412,127532,1495857019,678236961,0,109,156,100,108,62,58,121,107
2017/05/27/11:50:19.685112,127533,1495857019,684959888,0,119,178,109,113,66,63,124,108
2017/05/27/11:50:19.707740,127534,1495857019,707535982,0,122,181,108,118,72,67,123,110
2017/05/27/11:50:19.733208,127535,1495857019,733004093,0,126,220,121,129,81,81,116,74
2017/05/27/11:50:19.745393,127536,1495857019,745075941,0,106,254,153,156,84,72,71,52
2017/05/27/11:50:19.767690,127537,1495857019,767510890,0,100,239,158,128,76,72,70,49
2017/05/27/11:50:19.790374,127538,1495857019,790107011,0,101,252,161,127,76,68,60,47
2017/05/27/11:50:19.805377,127539,1495857019,805051088,0,142,271,230,238,105,78,67,48
2017/05/27/11:50:19.827683,127540,1495857019,827518939,0,183,387,284,266,103,64,61,47
2017/05/27/11:50:19.850485,127541,1495857019,850064992,0,184,403,281,261,108,82,68,53
2017/05/27/11:50:19.869241,127542,1495857019,869069099,0,182,406,285,272,116,86,72,57
2017/05/27/11:50:19.887609,127543,1495857019,887440919,0,186,500,336,335,171,104,83,62
2017/05/27/11:50:19.910321,127544,1495857019,910068035,0,233,534,341,292,163,106,83,66
2017/05/27/11:50:19.925293,127545,1495857019,925029993,0,376,547,328,277,179,120,89,85
2017/05/27/11:50:19.947798,127546,1495857019,947570085,0,387,529,333,284,183,113,84,84
2017/05/27/11:50:19.971518,127547,1495857019,971303939,0,385,525,324,281,183,114,82,83
2017/05/27/11:50:19.985423,127548,1495857019,985223054,0,393,452,289,222,138,99,72,83
2017/05/27/11:50:20.007907,127549,1495857020,7608890,0,488,452,248,204,136,89,63,92
2017/05/27/11:50:20.030185,127550,1495857020,29998064,0,393,396,218,195,117,87,68,88
2017/05/27/11:50:20.045241,127551,1495857020,45033931,0,412,474,202,171,110,84,64,89
2017/05/27/11:50:20.075161,127552,1495857020,74986934,0,412,467,207,165,106,80,62,87
2017/05/27/11:50:20.090206,127553,1495857020,90024948,0,409,578,246,190,117,85,65,87
2017/05/27/11:50:20.105253,127554,1495857020,105046987,0,288,561,240,179,115,88,69,70
2017/05/27/11:50:20.127806,127555,1495857020,127557039,0,272,514,260,186,118,80,56,54
2017/05/27/11:50:20.150421,127556,1495857020,150060892,0,239,457,325,227,121,79,56,51
2017/05/27/11:50:20.166694,127557,1495857020,166490077,0,253,490,336,236,124,78,54,51
2017/05/27/11:50:20.187849,127558,1495857020,187582015,0,326,344,298,200,118,76,56,61
2017/05/27/11:50:20.210279,127559,1495857020,210069894,0,298,344,319,231,109,75,59,62
2017/05/27/11:50:20.234210,127560,1495857020,233978986,0,336,375,345,233,103,70,57,63
2017/05/27/11:50:20.249138,127561,1495857020,248960971,0,356,396,292,199,93,66,54,62
2017/05/27/11:50:20.270461,127562,1495857020,270186901,0,358,371,276,180,81,65,56,63
2017/05/27/11:50:20.286670,127563,1495857020,286461114,0,335,378,293,196,76,60,51,52
2017/05/27/11:50:20.307859,127564,1495857020,307627916,0,336,371,293,185,80,55,43,54
2017/05/27/11:50:20.330184,127565,1495857020,329993963,0,380,359,248,168,85,57,52,73
2017/05/27/11:50:20.346734,127566,1495857020,346517086,0,370,315,319,221,94,61,56,74
2017/05/27/11:50:20.367754,127567,1495857020,367568016,0,377,341,320,226,111,96,73,83
2017/05/27/11:50:20.390365,127568,1495857020,390110015,0,358,381,321,223,123,119,82,86
2017/05/27/11:50:20.406704,127569,1495857020,406495094,0,371,453,315,205,120,120,83,91
2017/05/27/11:50:20.427700,127570,1495857020,427526950,0,335,467,313,224,139,128,81,81
2017/05/27/11:50:20.450279,127571,1495857020,450047969,0,334,479,243,182,142,130,82,82
2017/05/27/11:50:20.472911,127572,1495857020,472596883,0,329,524,248,179,129,105,68,77
2017/05/27/11:50:20.487923,127573,1495857020,487663030,0,306,504,237,179,118,84,59,72
2017/05/27/11:50:20.510206,127574,1495857020,510035037,0,296,478,237,187,122,89,61,68
2017/05/27/11:50:20.532750,127575,1495857020,532536029,0,288,509,242,217,134,82,57,70
2017/05/27/11:50:20.547664,127576,1495857020,547492027,0,285,549,241,214,133,78,55,68
2017/05/27/11:50:20.570244,127577,1495857020,570058107,0,287,509,246,224,135,79,52,65
2017/05/27/11:50:20.593091,127578,1495857020,592847108,0,290,497,261,218,129,69,46,65
2017/05/27/11:50:20.607922,127579,1495857020,607626914,0,285,489,261,226,131,71,46,61
2017/05/27/11:50:20.630112,127580,1495857020,629954099,0,286,457,292,205,127,86,53,55
2017/05/27/11:50:20.652916,127581,1495857020,652575016,0,355,406,302,209,124,91,58,64
2017/05/27/11:50:20.667661,127582,1495857020,667486906,0,371,383,303,206,132,97,66,66
2017/05/27/11:50:20.690166,127583,1495857020,690036058,0,385,382,302,212,140,103,69,69
2017/05/27/11:50:20.712875,127584,1495857020,712542057,0,403,387,318,216,138,101,71,79
2017/05/27/11:50:20.727968,127585,1495857020,727757930,0,448,370,335,240,135,102,69,87
2017/05/27/11:50:20.750240,127586,1495857020,750015974,0,398,381,342,260,170,102,69,89
2017/05/27/11:50:20.772933,127587,1495857020,772640943,0,387,424,338,257,178,102,68,92
2017/05/27/11:50:20.787841,127588,1495857020,787581920,0,387,458,386,318,182,100,70,95
2017/05/27/11:50:20.810508,127589,1495857020,810167074,0,362,460,416,317,181,103,69,87
2017/05/27/11:50:20.832709,127590,1495857020,832509994,0,252,492,384,277,163,89,68,82
2017/05/27/11:50:20.847694,127591,1495857020,847512960,0,232,508,386,264,124,95,77,81
2017/05/27/11:50:20.870316,127592,1495857020,870050907,0,270,497,379,270,118,91,74,74
2017/05/27/11:50:20.892890,127593,1495857020,892594099,0,258,501,341,187,104,91,72,69
2017/05/27/11:50:20.915597,127594,1495857020,915189027,0,244,498,331,212,127,113,79,71
2017/05/27/11:50:20.930205,127595,1495857020,929982900,0,246,491,348,238,135,115,75,66
2017/05/27/11:50:20.952925,127596,1495857020,952581882,0,243,471,337,239,136,104,61,56
2017/05/27/11:50:20.967784,127597,1495857020,967607975,0,292,448,363,247,135,111,65,63
2017/05/27/11:50:21.005988,127598,1495857021,5755901,0,285,408,409,307,155,115,71,65
2017/05/27/11:50:21.012735,127599,1495857021,12542963,0,292,372,382,292,144,91,63,64
2017/05/27/11:50:21.027853,127600,1495857021,27575016,0,290,325,359,278,136,87,63,64
2017/05/27/11:50:21.050143,127601,1495857021,49974918,0,291,457,368,263,141,88,61,62
2017/05/27/11:50:21.072886,127602,1495857021,72623014,0,163,443,354,275,136,81,54,54
2017/05/27/11:50:21.089132,127603,1495857021,88937997,0,148,460,284,219,127,75,47,49
2017/05/27/11:50:21.110510,127604,1495857021,110157012,0,138,459,262,201,123,73,49,47
2017/05/27/11:50:21.132736,127605,1495857021,132524967,0,136,562,267,198,136,91,51,46
2017/05/27/11:50:21.147870,127606,1495857021,147562980,0,124,446,247,200,143,96,52,45
2017/05/27/11:50:21.171671,127607,1495857021,171484947,0,116,470,254,186,164,101,54,46
2017/05/27/11:50:21.192739,127608,1495857021,192517042,0,112,497,318,207,166,107,56,45
2017/05/27/11:50:21.207736,127609,1495857021,207541942,0,98,482,316,210,166,108,53,43
2017/05/27/11:50:21.230442,127610,1495857021,230139017,0,80,364,315,213,160,95,52,43
2017/05/27/11:50:21.252764,127611,1495857021,252568960,0,86,402,356,262,179,101,63,52
2017/05/27/11:50:21.267683,127612,1495857021,267486095,0,88,430,347,253,160,94,63,53
2017/05/27/11:50:21.290190,127613,1495857021,289990901,0,84,388,270,226,156,95,64,57
2017/05/27/11:50:21.312811,127614,1495857021,312483072,0,91,424,371,243,167,106,69,60
2017/05/27/11:50:21.335322,127615,1495857021,335047006,0,98,452,406,270,195,118,74,69
2017/05/27/11:50:21.357775,127616,1495857021,357546091,0,94,472,371,221,167,108,67,64
2017/05/27/11:50:21.372703,127617,1495857021,372497081,0,85,427,360,208,168,115,68,63
2017/05/27/11:50:21.395150,127618,1495857021,394995927,0,84,427,362,204,174,120,66,63
2017/05/27/11:50:21.410239,127619,1495857021,410077095,0,87,449,336,206,161,113,73,75
2017/05/27/11:50:21.432588,127620,1495857021,432466030,0,88,494,332,193,153,134,91,113
2017/05/27/11:50:21.456732,127621,1495857021,456518888,0,94,457,337,204,175,149,103,135
2017/05/27/11:50:21.470164,127622,1495857021,469975948,0,98,465,343,210,172,148,118,167
2017/05/27/11:50:21.492831,127623,1495857021,492531061,0,105,466,393,245,167,149,127,175
2017/05/27/11:50:21.515187,127624,1495857021,514978885,0,100,426,422,270,176,151,127,183
2017/05/27/11:50:21.530568,127625,1495857021,530083894,0,95,361,413,259,154,125,117,172
2017/05/27/11:50:21.560268,127626,1495857021,560075998,0,91,394,420,249,134,111,112,157
2017/05/27/11:50:21.575319,127627,1495857021,575045108,0,84,407,424,245,149,121,108,127
2017/05/27/11:50:21.590231,127628,1495857021,590094089,0,84,393,394,233,146,110,95,119
2017/05/27/11:50:21.612654,127629,1495857021,612482070,0,89,428,364,212,141,109,94,107
2017/05/27/11:50:21.635540,127630,1495857021,635409116,0,88,400,339,205,150,116,86,90
2017/05/27/11:50:21.657638,127631,1495857021,657485961,0,82,349,313,206,159,121,81,85
2017/05/27/11:50:21.672742,127632,1495857021,672561883,0,95,369,321,217,162,126,71,81
2017/05/27/11:50:21.695382,127633,1495857021,695029973,0,88,366,305,188,159,129,77,78
2017/05/27/11:50:21.710418,127634,1495857021,710160970,0,81,366,206,147,164,126,68,59
2017/05/27/11:50:21.733733,127635,1495857021,732521057,0,80,377,214,139,152,118,69,56
2017/05/27/11:50:21.755214,127636,1495857021,755038976,0,82,390,228,142,141,118,68,57
2017/05/27/11:50:21.770186,127637,1495857021,770047903,0,72,348,217,143,135,117,60,56
2017/05/27/11:50:21.792711,127638,1495857021,792452096,0,72,363,243,152,150,120,56,53
2017/05/27/11:50:21.815415,127639,1495857021,815088033,0,79,345,296,183,142,122,67,58
2017/05/27/11:50:21.830192,127640,1495857021,829994916,0,91,429,316,190,146,118,65,57
2017/05/27/11:50:21.852808,127641,1495857021,852482080,0,95,451,328,199,155,132,77,59
2017/05/27/11:50:21.875388,127642,1495857021,875108957,0,97,480,322,201,155,111,78,56
2017/05/27/11:50:21.893890,127643,1495857021,891467094,0,106,503,368,233,155,109,77,57
2017/05/27/11:50:21.912738,127644,1495857021,912488937,0,101,489,344,213,155,110,75,61
2017/05/27/11:50:21.935636,127645,1495857021,935442924,0,92,429,331,211,149,118,75,59
2017/05/27/11:50:21.953271,127646,1495857021,953033924,0,87,428,309,207,138,92,59,55
2017/05/27/11:50:21.972970,127647,1495857021,972596883,0,85,449,309,195,125,95,56,51
2017/05/27/11:50:21.995340,127648,1495857021,995003938,0,78,441,245,158,109,94,62,54
2017/05/27/11:50:22.010233,127649,1495857022,10004997,0,84,452,226,163,109,88,60,46
2017/05/27/11:50:22.032789,127650,1495857022,32522916,0,91,456,230,167,113,86,64,51
2017/05/27/11:50:22.055425,127651,1495857022,55054903,0,95,447,239,166,109,89,66,55
2017/05/27/11:50:22.070450,127652,1495857022,70147037,0,100,479,256,163,112,91,69,59
2017/05/27/11:50:22.092906,127653,1495857022,92530965,0,118,584,238,153,126,93,66,55
2017/05/27/11:50:22.115232,127654,1495857022,115029096,0,121,627,232,144,125,98,64,58
2017/05/27/11:50:22.130311,127655,1495857022,130079984,0,116,642,212,141,130,93,65,56
2017/05/27/11:50:22.152718,127656,1495857022,152515888,0,118,661,259,167,145,99,65,55
2017/05/27/11:50:22.175179,127657,1495857022,175017118,0,117,632,265,175,146,100,63,53
2017/05/27/11:50:22.191712,127658,1495857022,191513061,0,112,549,270,191,126,93,57,50
2017/05/27/11:50:22.212676,127659,1495857022,212512016,0,113,565,273,197,123,82,55,48
2017/05/27/11:50:22.235305,127660,1495857022,235017061,0,112,558,274,203,146,90,57,49
2017/05/27/11:50:22.250588,127661,1495857022,250119924,0,127,554,260,207,147,87,61,51
2017/05/27/11:50:22.272971,127662,1495857022,272510051,0,126,537,266,216,142,83,60,51
2017/05/27/11:50:22.295171,127663,1495857022,294998884,0,114,513,272,214,150,92,62,54
2017/05/27/11:50:22.317849,127664,1495857022,317652940,0,113,484,298,219,150,99,73,59
2017/05/27/11:50:22.332853,127665,1495857022,332536935,0,118,492,332,268,133,94,71,60
2017/05/27/11:50:22.355510,127666,1495857022,355031013,0,100,478,325,272,138,97,73,62
2017/05/27/11:50:22.377662,127667,1495857022,377501964,0,110,514,316,264,164,107,76,61
2017/05/27/11:50:22.392641,127668,1495857022,392482042,0,112,505,307,262,169,108,78,61
2017/05/27/11:50:22.415267,127669,1495857022,414975881,0,108,489,330,271,179,116,68,59
2017/05/27/11:50:22.437683,127670,1495857022,437496900,0,109,563,310,215,171,126,67,58
2017/05/27/11:50:22.452994,127671,1495857022,452584028,0,112,583,291,193,169,126,65,57
2017/05/27/11:50:22.475135,127672,1495857022,474951028,0,120,587,287,216,153,125,66,65
2017/05/27/11:50:22.497790,127673,1495857022,497483968,0,117,616,305,213,139,118,64,64
2017/05/27/11:50:22.512874,127674,1495857022,512559890,0,117,616,313,210,149,121,64,62
2017/05/27/11:50:22.535276,127675,1495857022,534984111,0,116,551,310,216,170,119,65,63
2017/05/27/11:50:22.557653,127676,1495857022,557470083,0,116,556,373,229,163,118,62,59
2017/05/27/11:50:22.572909,127677,1495857022,572645902,0,108,578,415,232,163,111,62,55
2017/05/27/11:50:22.595246,127678,1495857022,595058917,0,117,572,415,252,173,114,65,56
2017/05/27/11:50:22.617893,127679,1495857022,617616891,0,122,594,394,243,160,100,65,54
2017/05/27/11:50:22.632618,127680,1495857022,632448911,0,131,678,410,240,135,104,68,51
2017/05/27/11:50:22.655269,127681,1495857022,655025005,0,136,648,379,225,147,112,70,58
2017/05/27/11:50:22.677697,127682,1495857022,677530050,0,128,615,345,236,173,146,84,62
2017/05/27/11:50:22.692662,127683,1495857022,692485094,0,124,639,365,237,178,151,85,65
2017/05/27/11:50:22.715391,127684,1495857022,715131998,0,124,677,348,227,173,150,83,65
2017/05/27/11:50:22.737605,127685,1495857022,737462043,0,135,650,336,243,177,160,92,68
2017/05/27/11:50:22.754777,127686,1495857022,754533052,0,127,647,313,244,164,163,97,65
2017/05/27/11:50:22.783528,127687,1495857022,783217906,0,126,640,324,227,123,139,81,56
2017/05/27/11:50:22.797869,127688,1495857022,797565937,0,126,669,315,210,111,137,80,52
2017/05/27/11:50:22.812902,127689,1495857022,812635898,0,120,584,308,217,118,148,89,57
2017/05/27/11:50:22.835577,127690,1495857022,835397958,0,91,530,287,194,106,128,76,54
2017/05/27/11:50:22.857790,127691,1495857022,857590913,0,90,560,303,207,105,118,68,50
2017/05/27/11:50:22.874144,127692,1495857022,873950004,0,84,536,291,185,106,110,69,49
2017/05/27/11:50:22.895184,127693,1495857022,894984960,0,92,489,259,197,132,107,75,53
2017/05/27/11:50:22.917731,127694,1495857022,917562007,0,95,499,257,204,129,101,74,60
2017/05/27/11:50:22.934368,127695,1495857022,933116912,0,92,448,348,229,135,105,75,59
2017/05/27/11:50:22.955676,127696,1495857022,954972028,0,96,462,351,210,132,107,75,62
2017/05/27/11:50:22.977917,127697,1495857022,977612972,0,100,485,347,237,170,112,74,63
2017/05/27/11:50:22.995718,127698,1495857022,992557048,0,94,477,398,241,153,112,68,60
2017/05/27/11:50:23.015174,127699,1495857023,14977931,0,91,466,410,245,169,112,60,50
2017/05/27/11:50:23.038292,127700,1495857023,37938117,0,95,508,346,243,193,115,62,54
2017/05/27/11:50:23.052728,127701,1495857023,52496910,0,99,591,440,294,206,115,60,51
2017/05/27/11:50:23.075294,127702,1495857023,75001955,0,106,655,431,271,190,121,76,54
2017/05/27/11:50:23.097835,127703,1495857023,97592115,0,105,669,384,251,194,129,95,56
2017/05/27/11:50:23.114277,127704,1495857023,113980054,0,109,706,381,250,177,136,98,57
2017/05/27/11:50:23.135612,127705,1495857023,135402917,0,126,757,404,246,164,153,113,58
2017/05/27/11:50:23.157818,127706,1495857023,157526016,0,116,680,324,215,193,163,118,64
2017/05/27/11:50:23.172712,127707,1495857023,172555923,0,109,617,318,218,179,160,113,66
2017/05/27/11:50:23.195275,127708,1495857023,195020914,0,107,620,364,230,173,152,99,65
2017/05/27/11:50:23.217602,127709,1495857023,217488050,0,101,582,363,216,180,139,98,64
2017/05/27/11:50:23.232665,127710,1495857023,232510089,0,78,499,335,198,191,156,108,73
2017/05/27/11:50:23.255246,127711,1495857023,255069017,0,80,469,284,175,150,143,106,69
2017/05/27/11:50:23.277777,127712,1495857023,277594089,0,79,483,387,240,156,143,104,65
2017/05/27/11:50:23.300103,127713,1495857023,299982070,0,76,440,356,231,157,152,109,69
2017/05/27/11:50:23.315213,127714,1495857023,315022945,0,79,430,356,234,148,151,109,68
2017/05/27/11:50:23.337730,127715,1495857023,337590932,0,76,397,382,243,125,123,86,58
2017/05/27/11:50:23.360312,127716,1495857023,360048055,0,78,441,389,232,125,121,88,60
2017/05/27/11:50:23.375165,127717,1495857023,374972105,0,72,405,298,159,115,123,87,58
2017/05/27/11:50:23.399192,127718,1495857023,397486925,0,91,498,313,172,119,115,80,52
2017/05/27/11:50:23.420297,127719,1495857023,420034885,0,94,528,303,172,132,125,82,53
2017/05/27/11:50:23.435158,127720,1495857023,434947967,0,102,580,282,168,126,114,80,49
2017/05/27/11:50:23.457785,127721,1495857023,457474946,0,104,570,327,217,159,125,93,56
2017/05/27/11:50:23.480173,127722,1495857023,479952096,0,106,606,325,217,160,119,93,56
2017/05/27/11:50:23.495185,127723,1495857023,494968891,0,107,575,314,213,173,125,90,56
2017/05/27/11:50:23.517825,127724,1495857023,517585992,0,103,536,344,254,183,147,90,60
2017/05/27/11:50:23.540117,127725,1495857023,539959907,0,96,491,336,250,222,164,96,67
2017/05/27/11:50:23.555393,127726,1495857023,555087089,0,95,514,301,225,205,157,76,57
2017/05/27/11:50:23.579117,127727,1495857023,578939914,0,97,517,293,224,206,154,73,58
2017/05/27/11:50:23.600488,127728,1495857023,600110054,0,77,461,274,216,194,149,75,55
2017/05/27/11:50:23.615242,127729,1495857023,614998102,0,74,523,225,167,222,121,72,52
2017/05/27/11:50:23.637700,127730,1495857023,637475967,0,74,516,246,179,199,89,58,44
2017/05/27/11:50:23.660196,127731,1495857023,659989118,0,66,496,235,163,201,86,58,45
2017/05/27/11:50:23.675255,127732,1495857023,675034999,0,61,436,227,167,216,98,65,47
2017/05/27/11:50:23.697803,127733,1495857023,697535991,0,60,450,216,168,219,102,64,48
2017/05/27/11:50:23.728316,127734,1495857023,728192090,0,57,377,221,164,186,109,64,46
2017/05/27/11:50:23.742702,127735,1495857023,742542028,0,63,442,265,173,180,119,75,50
2017/05/27/11:50:23.765885,127736,1495857023,765681982,0,61,409,257,180,171,119,75,51
2017/05/27/11:50:23.780298,127737,1495857023,780036926,0,64,491,272,178,163,118,69,47
2017/05/27/11:50:23.795424,127738,1495857023,795099973,0,69,446,274,170,153,110,67,48
2017/05/27/11:50:23.817612,127739,1495857023,817481994,0,77,489,299,195,174,102,62,43
2017/05/27/11:50:23.840098,127740,1495857023,839961051,0,76,439,246,203,177,106,54,43
2017/05/27/11:50:23.855229,127741,1495857023,855021953,0,79,470,255,204,191,105,53,44
2017/05/27/11:50:23.877885,127742,1495857023,877691984,0,76,388,237,196,236,122,59,45
2017/05/27/11:50:23.900164,127743,1495857023,899985074,0,79,412,244,211,234,118,59,45
2017/05/27/11:50:23.915306,127744,1495857023,915004968,0,82,436,280,227,238,124,61,47
2017/05/27/11:50:23.938071,127745,1495857023,937805891,0,75,444,262,201,229,116,57,38
2017/05/27/11:50:23.960156,127746,1495857023,959996938,0,77,405,260,197,256,114,58,38
2017/05/27/11:50:23.975245,127747,1495857023,975023984,0,81,408,259,209,234,95,51,40
2017/05/27/11:50:24.006197,127748,1495857024,5800008,0,77,422,263,199,237,96,51,39
2017/05/27/11:50:24.020240,127749,1495857024,20000934,0,68,374,188,166,219,90,51,38
2017/05/27/11:50:24.035782,127750,1495857024,35450935,0,64,342,192,169,216,81,47,41
2017/05/27/11:50:24.057739,127751,1495857024,57557106,0,78,399,184,162,184,90,46,38
2017/05/27/11:50:24.080169,127752,1495857024,80002069,0,78,442,179,151,156,77,49,37
2017/05/27/11:50:24.095385,127753,1495857024,95065116,0,79,476,196,155,156,77,46,35
2017/05/27/11:50:24.117712,127754,1495857024,117497920,0,85,501,202,142,189,80,50,39
2017/05/27/11:50:24.140149,127755,1495857024,139982938,0,90,538,194,142,187,80,49,37
2017/05/27/11:50:24.155170,127756,1495857024,154943943,0,82,525,183,136,181,99,48,36
2017/05/27/11:50:24.185874,127757,1495857024,185646057,0,76,478,186,134,202,100,47,36
2017/05/27/11:50:24.200182,127758,1495857024,199991941,0,72,449,146,116,204,100,51,39
2017/05/27/11:50:24.222881,127759,1495857024,222528934,0,75,460,144,112,172,93,44,36
2017/05/27/11:50:24.237654,127760,1495857024,237442970,0,78,443,134,108,179,102,46,35
2017/05/27/11:50:24.260184,127761,1495857024,259999036,0,81,456,141,111,162,85,46,40
2017/05/27/11:50:24.282768,127762,1495857024,282490968,0,87,466,145,121,141,86,47,40
2017/05/27/11:50:24.297771,127763,1495857024,297477006,0,86,436,151,122,139,91,47,38
2017/05/27/11:50:24.320184,127764,1495857024,319986104,0,81,431,150,125,141,99,46,38
2017/05/27/11:50:24.342785,127765,1495857024,342556953,0,82,428,154,114,134,90,44,38
2017/05/27/11:50:24.357765,127766,1495857024,357527017,0,75,397,151,130,166,88,47,35
2017/05/27/11:50:24.380187,127767,1495857024,380000114,0,76,473,175,129,159,105,44,32
2017/05/27/11:50:24.402681,127768,1495857024,402478933,0,83,488,170,130,173,104,41,31
2017/05/27/11:50:24.417862,127769,1495857024,417608976,0,76,470,183,158,168,97,47,29
2017/05/27/11:50:24.440300,127770,1495857024,440090894,0,67,451,188,166,168,98,48,34
2017/05/27/11:50:24.462740,127771,1495857024,462543964,0,64,437,195,157,174,100,54,36
2017/05/27/11:50:24.477815,127772,1495857024,477592945,0,65,357,176,154,177,85,56,35
2017/05/27/11:50:24.500230,127773,1495857024,500036001,0,62,331,201,162,178,85,57,38
2017/05/27/11:50:24.522698,127774,1495857024,522486925,0,71,284,198,139,175,87,55,42
2017/05/27/11:50:24.538012,127775,1495857024,537812948,0,81,325,206,139,179,86,55,40
2017/05/27/11:50:24.560253,127776,1495857024,560030937,0,81,319,203,137,145,87,46,40
2017/05/27/11:50:24.582745,127777,1495857024,582540035,0,79,347,202,134,144,90,47,41
2017/05/27/11:50:24.597743,127778,1495857024,597524881,0,80,405,199,132,131,89,45,42
2017/05/27/11:50:24.620181,127779,1495857024,619982957,0,78,399,226,154,138,99,53,46
2017/05/27/11:50:24.650942,127780,1495857024,650732040,0,68,365,226,150,137,98,52,46
2017/05/27/11:50:24.657631,127781,1495857024,657450914,0,84,470,237,148,177,104,54,44
2017/05/27/11:50:24.680259,127782,1495857024,679972887,0,84,464,231,147,175,104,55,44
2017/05/27/11:50:24.702675,127783,1495857024,702456951,0,78,414,209,138,169,105,55,44
2017/05/27/11:50:24.717926,127784,1495857024,717649936,0,82,445,161,97,163,92,45,37
2017/05/27/11:50:24.740329,127785,1495857024,740060091,0,94,532,152,115,175,91,43,35
2017/05/27/11:50:24.762694,127786,1495857024,762475013,0,89,482,142,126,166,76,38,37
2017/05/27/11:50:24.777801,127787,1495857024,777528047,0,88,477,145,127,169,94,39,39
2017/05/27/11:50:24.800340,127788,1495857024,800076007,0,91,505,154,129,175,99,41,37
2017/05/27/11:50:24.822710,127789,1495857024,822494983,0,85,490,152,131,192,100,44,39
2017/05/27/11:50:24.838058,127790,1495857024,837872028,0,76,413,152,130,183,99,46,44
2017/05/27/11:50:24.860144,127791,1495857024,859963893,0,69,360,148,133,157,97,46,43
2017/05/27/11:50:24.882908,127792,1495857024,882611036,0,70,356,163,134,170,85,46,43
2017/05/27/11:50:24.897870,127793,1495857024,897550106,0,71,364,165,133,187,71,44,43
2017/05/27/11:50:24.928415,127794,1495857024,928212881,0,74,397,162,127,178,74,45,45
2017/05/27/11:50:24.942806,127795,1495857024,942557096,0,68,368,173,159,188,87,47,45
2017/05/27/11:50:24.965189,127796,1495857024,964998006,0,71,396,174,160,213,92,50,47
2017/05/27/11:50:24.981663,127797,1495857024,981443881,0,71,427,162,165,197,84,50,47
2017/05/27/11:50:25.002774,127798,1495857025,2466917,0,68,417,188,201,189,95,59,51
2017/05/27/11:50:25.017897,127799,1495857025,17666101,0,66,390,194,211,188,102,65,52
2017/05/27/11:50:25.040210,127800,1495857025,39983034,0,71,464,212,186,195,91,62,48
2017/05/27/11:50:25.063010,127801,1495857025,62536954,0,68,467,217,180,165,89,61,47
2017/05/27/11:50:25.077864,127802,1495857025,77573060,0,62,480,220,176,168,92,60,47
2017/05/27/11:50:25.100310,127803,1495857025,99997043,0,60,452,195,145,154,89,54,41
2017/05/27/11:50:25.122781,127804,1495857025,122579097,0,61,464,188,139,184,80,47,37
2017/05/27/11:50:25.137951,127805,1495857025,137785911,0,62,409,153,131,165,91,51,43
2017/05/27/11:50:25.160208,127806,1495857025,159998893,0,64,460,140,139,172,92,52,44
2017/05/27/11:50:25.182683,127807,1495857025,182482004,0,71,453,177,165,178,99,53,43
2017/05/27/11:50:25.205341,127808,1495857025,205018043,0,78,479,182,162,189,92,47,44
2017/05/27/11:50:25.220144,127809,1495857025,219964981,0,75,444,179,159,213,97,46,43
2017/05/27/11:50:25.243428,127810,1495857025,243068933,0,80,569,182,163,212,89,43,41
2017/05/27/11:50:25.265238,127811,1495857025,265033960,0,82,544,192,165,216,88,44,40
2017/05/27/11:50:25.280149,127812,1495857025,279958963,0,80,524,146,138,232,79,42,39
2017/05/27/11:50:25.302872,127813,1495857025,302671909,0,82,529,150,132,235,79,44,41
2017/05/27/11:50:25.325106,127814,1495857025,324953079,0,96,621,193,139,199,109,56,48
2017/05/27/11:50:25.340185,127815,1495857025,339971065,0,92,538,194,137,197,112,58,46
2017/05/27/11:50:25.362710,127816,1495857025,362502098,0,88,558,181,122,193,111,55,45
2017/05/27/11:50:25.385422,127817,1495857025,385108947,0,89,576,189,125,180,112,53,46
2017/05/27/11:50:25.400174,127818,1495857025,399981021,0,82,562,186,134,166,111,54,43
2017/05/27/11:50:25.422825,127819,1495857025,422540903,0,66,483,143,129,148,96,54,40
2017/05/27/11:50:25.445208,127820,1495857025,445034027,0,60,446,147,127,146,91,49,37
2017/05/27/11:50:25.460232,127821,1495857025,460042953,0,62,424,163,137,160,96,55,38
2017/05/27/11:50:25.482650,127822,1495857025,482492923,0,55,383,174,140,150,100,58,38
2017/05/27/11:50:25.505344,127823,1495857025,505012035,0,50,366,179,137,151,100,55,39
2017/05/27/11:50:25.520268,127824,1495857025,519998073,0,54,379,191,134,151,77,43,33
2017/05/27/11:50:25.543085,127825,1495857025,542550086,0,53,373,186,140,187,85,47,35
2017/05/27/11:50:25.565217,127826,1495857025,565022945,0,45,321,180,140,176,91,39,32
2017/05/27/11:50:25.580510,127827,1495857025,580218076,0,57,412,187,135,177,96,40,34
2017/05/27/11:50:25.602659,127828,1495857025,602449893,0,60,434,197,126,183,102,43,33
2017/05/27/11:50:25.625215,127829,1495857025,625016927,0,56,402,185,128,180,104,43,37
2017/05/27/11:50:25.640449,127830,1495857025,640095949,0,62,432,179,118,146,103,44,40
2017/05/27/11:50:25.662575,127831,1495857025,662440061,0,65,427,168,100,157,94,45,44
2017/05/27/11:50:25.685371,127832,1495857025,685054063,0,56,350,141,94,163,83,44,43
2017/05/27/11:50:25.707680,127833,1495857025,707473993,0,59,337,107,103,152,74,43,42
2017/05/27/11:50:25.722712,127834,1495857025,722503900,0,70,360,105,105,173,80,42,41
2017/05/27/11:50:25.745652,127835,1495857025,745150089,0,70,353,114,129,176,68,36,38
2017/05/27/11:50:25.760508,127836,1495857025,760126113,0,71,363,131,154,180,71,37,39
2017/05/27/11:50:25.784101,127837,1495857025,783942937,0,79,334,142,162,197,65,34,39
2017/05/27/11:50:25.805406,127838,1495857025,805067062,0,86,317,151,163,201,65,37,51
2017/05/27/11:50:25.820383,127839,1495857025,820074081,0,82,300,164,164,190,63,41,54
2017/05/27/11:50:25.842757,127840,1495857025,842550992,0,83,333,191,158,186,66,43,55
2017/05/27/11:50:25.865205,127841,1495857025,865019083,0,101,349,200,142,169,59,44,63
2017/05/27/11:50:25.896164,127842,1495857025,895817041,0,99,356,196,138,130,55,44,62
2017/05/27/11:50:25.902698,127843,1495857025,902498006,0,98,363,197,130,146,56,38,55
2017/05/27/11:50:25.925176,127844,1495857025,924973964,0,98,410,192,123,129,46,34,51
2017/05/27/11:50:25.940327,127845,1495857025,940006971,0,96,355,191,121,125,38,32,51
2017/05/27/11:50:25.962693,127846,1495857025,962491035,0,87,344,190,124,118,40,27,42
2017/05/27/11:50:25.985199,127847,1495857025,985002994,0,87,389,196,131,111,39,27,45
2017/05/27/11:50:26.000145,127848,1495857025,999949932,0,88,415,191,134,68,37,37,60
2017/05/27/11:50:26.022732,127849,1495857026,22531032,0,89,414,208,143,117,66,39,62
2017/05/27/11:50:26.045314,127850,1495857026,45088052,0,96,415,200,150,142,76,45,69
2017/05/27/11:50:26.060106,127851,1495857026,59930086,0,107,423,283,177,164,83,51,86
2017/05/27/11:50:26.082898,127852,1495857026,82588911,0,116,405,305,197,176,90,56,89
2017/05/27/11:50:26.105235,127853,1495857026,104984998,0,135,386,315,198,186,94,54,89
2017/05/27/11:50:26.127860,127854,1495857026,127578973,0,189,379,330,207,184,81,57,110
2017/05/27/11:50:26.142699,127855,1495857026,142477989,0,197,393,328,202,171,75,54,111
2017/05/27/11:50:26.165142,127856,1495857026,164941072,0,191,394,259,185,160,72,50,99
2017/05/27/11:50:26.187782,127857,1495857026,187516927,0,187,353,226,168,182,68,49,99
2017/05/27/11:50:26.202796,127858,1495857026,202505111,0,173,369,211,164,179,61,46,92
2017/05/27/11:50:26.225340,127859,1495857026,225055932,0,122,303,167,145,159,55,38,71
2017/05/27/11:50:26.247673,127860,1495857026,247484922,0,109,285,167,131,154,52,37,64
2017/05/27/11:50:26.264128,127861,1495857026,263932943,0,102,239,147,106,140,43,35,63
2017/05/27/11:50:26.285223,127862,1495857026,284992933,0,94,241,140,79,86,34,28,57
2017/05/27/11:50:26.307994,127863,1495857026,307615995,0,93,183,130,77,69,32,27,55
2017/05/27/11:50:26.322673,127864,1495857026,322451114,0,79,178,116,67,55,32,28,48
2017/05/27/11:50:26.345211,127865,1495857026,344989061,0,76,223,81,58,40,30,25,43
2017/05/27/11:50:26.367767,127866,1495857026,367518901,0,89,251,85,56,40,29,25,49
2017/05/27/11:50:26.390410,127867,1495857026,390093088,0,89,249,84,46,43,29,27,49
2017/05/27/11:50:26.405199,127868,1495857026,405004978,0,87,243,83,36,41,27,27,46
2017/05/27/11:50:26.427643,127869,1495857026,427474021,0,82,250,79,36,40,22,25,43
2017/05/27/11:50:26.442741,127870,1495857026,442496061,0,75,204,75,35,42,24,25,44
2017/05/27/11:50:26.465189,127871,1495857026,464993953,0,53,158,55,35,41,24,25,33
2017/05/27/11:50:26.487790,127872,1495857026,487579107,0,48,149,54,35,35,22,28,30
2017/05/27/11:50:26.502645,127873,1495857026,502450942,0,47,144,52,39,31,22,26,29
2017/05/27/11:50:26.525381,127874,1495857026,525059938,0,48,162,54,41,31,23,26,31
2017/05/27/11:50:26.547677,127875,1495857026,547441005,0,45,136,50,42,30,21,25,30
2017/05/27/11:50:26.562746,127876,1495857026,562479019,0,48,146,48,40,27,20,23,29
2017/05/27/11:50:26.585150,127877,1495857026,584952116,0,50,156,64,44,27,22,20,31
2017/05/27/11:50:26.607886,127878,1495857026,607579946,0,48,155,90,53,30,23,21,31
2017/05/27/11:50:26.622666,127879,1495857026,622461080,0,42,134,115,58,33,23,21,30
2017/05/27/11:50:26.645276,127880,1495857026,645004987,0,44,137,121,61,37,25,22,31
2017/05/27/11:50:26.667648,127881,1495857026,667465925,0,39,127,126,65,38,24,23,30
2017/05/27/11:50:26.682662,127882,1495857026,682483911,0,38,121,121,65,39,25,20,29
2017/05/27/11:50:26.705271,127883,1495857026,705058097,0,39,156,145,100,48,28,23,28
2017/05/27/11:50:26.735892,127884,1495857026,735690116,0,42,163,140,103,46,32,25,28
2017/05/27/11:50:26.742736,127885,1495857026,742535114,0,43,162,141,108,45,31,26,28
2017/05/27/11:50:26.765189,127886,1495857026,764985084,0,44,161,141,111,46,30,26,29
2017/05/27/11:50:26.787669,127887,1495857026,787494897,0,59,182,172,114,49,31,28,32
2017/05/27/11:50:26.802680,127888,1495857026,802463054,0,65,154,152,80,42,28,26,34
2017/05/27/11:50:26.825194,127889,1495857026,825000047,0,63,135,144,86,47,26,23,32
2017/05/27/11:50:26.847638,127890,1495857026,847467899,0,65,129,142,81,44,26,22,32
2017/05/27/11:50:26.864072,127891,1495857026,863879919,0,69,133,206,136,54,30,25,35
2017/05/27/11:50:26.885227,127892,1495857026,885027885,0,83,132,191,142,52,30,25,36
2017/05/27/11:50:26.907870,127893,1495857026,907526969,0,102,138,186,145,50,31,24,35
2017/05/27/11:50:26.922637,127894,1495857026,922431945,0,118,137,183,141,45,30,25,36
2017/05/27/11:50:26.945300,127895,1495857026,945038080,0,126,150,190,146,45,31,25,38
2017/05/27/11:50:26.967750,127896,1495857026,967456102,0,130,166,151,105,34,28,22,37
2017/05/27/11:50:26.982728,127897,1495857026,982536077,0,132,147,206,110,41,29,23,38
2017/05/27/11:50:27.005187,127898,1495857027,4973888,0,145,150,228,118,43,30,24,41
2017/05/27/11:50:27.027656,127899,1495857027,27473926,0,155,154,232,119,45,29,25,48
2017/05/27/11:50:27.042828,127900,1495857027,42584896,0,152,151,234,123,48,30,28,47
2017/05/27/11:50:27.065412,127901,1495857027,65103054,0,149,169,311,145,55,30,28,47
2017/05/27/11:50:27.087765,127902,1495857027,87536096,0,147,187,276,138,51,29,27,47
2017/05/27/11:50:27.110255,127903,1495857027,110004901,0,137,205,261,135,50,30,28,49
2017/05/27/11:50:27.125518,127904,1495857027,125160932,0,119,205,261,137,49,28,28,44
2017/05/27/11:50:27.147676,127905,1495857027,147461891,0,117,200,255,129,48,28,26,43
2017/05/27/11:50:27.172157,127906,1495857027,170100927,0,117,189,135,92,39,26,26,43
2017/05/27/11:50:27.185264,127907,1495857027,185066938,0,111,189,154,106,43,27,25,41
2017/05/27/11:50:27.207627,127908,1495857027,207448005,0,95,189,149,111,41,25,23,34
2017/05/27/11:50:27.233264,127909,1495857027,233017921,0,91,186,161,110,42,26,20,34
2017/05/27/11:50:27.245227,127910,1495857027,244987964,0,108,194,178,119,48,28,25,36
2017/05/27/11:50:27.267864,127911,1495857027,267656087,0,117,184,177,129,54,29,27,37
2017/05/27/11:50:27.290142,127912,1495857027,289961099,0,168,200,206,142,57,28,27,44
2017/05/27/11:50:27.305161,127913,1495857027,304951906,0,179,183,227,142,62,32,30,45
2017/05/27/11:50:27.327713,127914,1495857027,327478885,0,183,214,259,160,63,33,30,46
2017/05/27/11:50:27.350297,127915,1495857027,350028038,0,176,208,254,157,59,31,29,45
2017/05/27/11:50:27.365171,127916,1495857027,364960908,0,188,209,261,164,56,31,29,47
2017/05/27/11:50:27.387696,127917,1495857027,387485027,0,160,179,231,147,51,31,31,39
2017/05/27/11:50:27.410320,127918,1495857027,410021066,0,148,180,217,145,49,31,30,42
2017/05/27/11:50:27.425193,127919,1495857027,424968004,0,146,143,194,139,47,30,31,39
2017/05/27/11:50:27.447681,127920,1495857027,447458028,0,143,148,190,143,47,31,30,39
2017/05/27/11:50:27.470246,127921,1495857027,469961881,0,127,160,179,129,45,30,28,34
2017/05/27/11:50:27.485314,127922,1495857027,485006093,0,125,189,192,132,42,29,28,36
2017/05/27/11:50:27.507810,127923,1495857027,507513999,0,126,185,200,139,45,31,29,33
2017/05/27/11:50:27.530397,127924,1495857027,530139923,0,120,186,188,130,43,30,30,34
2017/05/27/11:50:27.545082,127925,1495857027,544940948,0,144,181,191,127,46,31,30,37
2017/05/27/11:50:27.567661,127926,1495857027,567450046,0,139,171,197,126,45,30,30,38
2017/05/27/11:50:27.598338,127927,1495857027,598150968,0,145,152,194,124,47,33,29,39
2017/05/27/11:50:27.605182,127928,1495857027,604996919,0,141,152,182,108,40,28,28,38
2017/05/27/11:50:27.627661,127929,1495857027,627470016,0,141,155,204,122,41,28,26,37
2017/05/27/11:50:27.651812,127930,1495857027,650079965,0,116,192,206,124,44,27,24,37
2017/05/27/11:50:27.665464,127931,1495857027,665086030,0,108,185,204,129,49,29,24,36
2017/05/27/11:50:27.687577,127932,1495857027,687449932,0,60,191,204,127,51,26,22,31
2017/05/27/11:50:27.718333,127933,1495857027,718127965,0,54,189,223,144,55,27,20,30
2017/05/27/11:50:27.725220,127934,1495857027,725013017,0,52,193,183,125,55,28,20,31
2017/05/27/11:50:27.755922,127935,1495857027,755728006,0,41,171,182,118,49,30,22,26
2017/05/27/11:50:27.770140,127936,1495857027,769973039,0,42,175,187,113,47,28,24,25
2017/05/27/11:50:27.785159,127937,1495857027,784960031,0,41,173,180,122,50,31,23,23
2017/05/27/11:50:27.807648,127938,1495857027,807461023,0,45,187,173,114,49,30,24,23
2017/05/27/11:50:27.830102,127939,1495857027,829978942,0,50,191,183,113,53,31,26,26
2017/05/27/11:50:27.845240,127940,1495857027,845019102,0,50,210,180,116,55,29,24,24
2017/05/27/11:50:27.867653,127941,1495857027,867480993,0,48,204,166,116,53,30,24,25
2017/05/27/11:50:27.890382,127942,1495857027,889995098,0,48,187,155,101,49,29,24,27
2017/05/27/11:50:27.905245,127943,1495857027,904974937,0,44,181,135,83,45,29,25,26
2017/05/27/11:50:27.927687,127944,1495857027,927488088,0,39,209,121,84,41,28,22,21
2017/05/27/11:50:27.950335,127945,1495857027,950026988,0,38,181,106,77,37,28,22,26
2017/05/27/11:50:27.966606,127946,1495857027,966408014,0,39,190,102,71,37,27,21,26
2017/05/27/11:50:27.987669,127947,1495857027,987500905,0,36,186,174,107,39,24,21,26
2017/05/27/11:50:28.010145,127948,1495857028,9970903,0,36,181,182,117,40,24,20,27
2017/05/27/11:50:28.032701,127949,1495857028,32495975,0,37,150,189,119,39,23,21,33
2017/05/27/11:50:28.047598,127950,1495857028,47420978,0,36,143,192,119,42,23,21,31
2017/05/27/11:50:28.070309,127951,1495857028,70020914,0,36,133,195,122,44,24,23,31
2017/05/27/11:50:28.092977,127952,1495857028,92792987,0,33,130,132,111,42,25,23,30
2017/05/27/11:50:28.107579,127953,1495857028,107414007,0,34,125,132,121,47,29,25,31
2017/05/27/11:50:28.130138,127954,1495857028,129928112,0,31,102,127,120,47,30,25,26
2017/05/27/11:50:28.152749,127955,1495857028,152482986,0,31,107,121,120,50,30,25,26
2017/05/27/11:50:28.167610,127956,1495857028,167453050,0,31,100,111,114,47,29,25,27
2017/05/27/11:50:28.190138,127957,1495857028,189963102,0,31,102,125,107,55,31,24,25
2017/05/27/11:50:28.212634,127958,1495857028,212470054,0,32,125,100,83,52,28,25,24
2017/05/27/11:50:28.227663,127959,1495857028,227474927,0,33,126,92,78,51,28,24,25
2017/05/27/11:50:28.250346,127960,1495857028,250053882,0,32,119,93,76,47,27,23,23
2017/05/27/11:50:28.277217,127961,1495857028,277018070,0,32,119,92,74,46,26,23,20
2017/05/27/11:50:28.295458,127962,1495857028,295125961,0,37,115,62,46,34,25,24,22
2017/05/27/11:50:28.310122,127963,1495857028,309956073,0,36,111,73,72,37,24,23,22
2017/05/27/11:50:28.332709,127964,1495857028,332484960,0,39,127,82,79,43,25,26,21
2017/05/27/11:50:28.347790,127965,1495857028,347474098,0,39,139,82,78,44,25,27,24
2017/05/27/11:50:28.371600,127966,1495857028,371412038,0,38,142,80,78,45,27,26,25
2017/05/27/11:50:28.392661,127967,1495857028,392466068,0,33,140,79,78,46,26,26,26
2017/05/27/11:50:28.407656,127968,1495857028,407458066,0,31,110,69,65,48,25,25,25
2017/05/27/11:50:28.430232,127969,1495857028,429954051,0,27,85,62,59,43,26,22,25
2017/05/27/11:50:28.452827,127970,1495857028,452491998,0,25,61,66,64,43,27,21,23
2017/05/27/11:50:28.467926,127971,1495857028,467742919,0,26,52,69,65,43,26,24,23
2017/05/27/11:50:28.490149,127972,1495857028,489981889,0,25,51,67,65,42,26,23,24
2017/05/27/11:50:28.512667,127973,1495857028,512487888,0,23,47,60,51,36,25,22,23
2017/05/27/11:50:28.528345,127974,1495857028,528177022,0,25,48,49,47,34,23,22,22
2017/05/27/11:50:28.550153,127975,1495857028,549940109,0,25,47,39,41,34,22,22,22
2017/05/27/11:50:28.572617,127976,1495857028,572464942,0,27,44,30,37,30,19,18,20
2017/05/27/11:50:28.587688,127977,1495857028,587405920,0,27,42,29,34,30,21,19,22
2017/05/27/11:50:28.610139,127978,1495857028,609921932,0,27,35,27,33,33,22,20,21
2017/05/27/11:50:28.632828,127979,1495857028,632534027,0,23,30,25,29,32,22,18,20
2017/05/27/11:50:28.647679,127980,1495857028,647473096,0,23,31,22,26,34,26,17,21
2017/05/27/11:50:28.670177,127981,1495857028,669982910,0,19,30,25,27,36,26,19,21
2017/05/27/11:50:28.692717,127982,1495857028,692517042,0,20,30,23,24,33,27,17,18
2017/05/27/11:50:28.707561,127983,1495857028,707432031,0,21,34,24,26,29,26,17,19
2017/05/27/11:50:28.730237,127984,1495857028,729991912,0,24,33,25,27,28,27,21,20
2017/05/27/11:50:28.752683,127985,1495857028,752473115,0,27,31,26,26,26,23,23,18
2017/05/27/11:50:28.767707,127986,1495857028,767535924,0,27,32,24,29,26,24,23,18
2017/05/27/11:50:28.790196,127987,1495857028,790014028,0,29,32,25,30,29,27,27,40
2017/05/27/11:50:28.812767,127988,1495857028,812468051,0,36,28,23,26,29,25,30,42
2017/05/27/11:50:28.827842,127989,1495857028,827558040,0,35,25,23,26,31,29,28,42
2017/05/27/11:50:28.850148,127990,1495857028,849947929,0,31,27,23,29,32,30,27,42
2017/05/27/11:50:28.872687,127991,1495857028,872473955,0,31,25,22,27,33,30,26,44
2017/05/27/11:50:28.887625,127992,1495857028,887439012,0,29,29,22,26,30,26,21,26
2017/05/27/11:50:28.910260,127993,1495857028,909946918,0,19,31,22,27,28,27,18,22
2017/05/27/11:50:28.932645,127994,1495857028,932440996,0,22,32,24,27,29,24,19,22
2017/05/27/11:50:28.955132,127995,1495857028,954935073,0,22,35,23,23,29,24,17,21
2017/05/27/11:50:28.970149,127996,1495857028,969964981,0,22,35,22,23,26,23,18,18
2017/05/27/11:50:28.992840,127997,1495857028,992578983,0,23,31,22,21,26,25,19,19
2017/05/27/11:50:29.015158,127998,1495857029,14966011,0,24,31,24,20,28,26,19,19
2017/05/27/11:50:29.030115,127999,1495857029,29941082,0,23,32,23,20,30,24,18,19
2017/05/27/11:50:29.052671,128000,1495857029,52455902,0,23,30,23,21,28,24,19,20
2017/05/27/11:50:29.075164,128001,1495857029,75006961,0,23,29,23,19,28,25,20,20
2017/05/27/11:50:29.091579,128002,1495857029,91423034,0,26,28,23,19,30,25,21,20
2017/05/27/11:50:29.112725,128003,1495857029,112432003,0,24,24,22,21,30,25,20,20
2017/05/27/11:50:29.135163,128004,1495857029,134957075,0,21,23,22,21,26,24,21,21
2017/05/27/11:50:29.150152,128005,1495857029,149961948,0,21,22,21,21,26,24,21,21
2017/05/27/11:50:29.172733,128006,1495857029,172485113,0,23,21,21,22,27,24,21,19
2017/05/27/11:50:29.195165,128007,1495857029,194976091,0,19,23,22,24,26,23,19,20
2017/05/27/11:50:29.210158,128008,1495857029,209959983,0,19,21,21,22,24,23,23,19
2017/05/27/11:50:29.232741,128009,1495857029,232507944,0,19,19,22,22,23,24,21,19
2017/05/27/11:50:29.255348,128010,1495857029,255049943,0,19,18,23,22,24,24,22,19
2017/05/27/11:50:29.270084,128011,1495857029,269907951,0,17,20,24,21,22,24,21,20
2017/05/27/11:50:29.292646,128012,1495857029,292442083,0,17,20,21,19,21,25,23,19
2017/05/27/11:50:29.315137,128013,1495857029,314934015,0,18,22,24,24,21,24,21,21
2017/05/27/11:50:29.330163,128014,1495857029,329941034,0,21,23,22,21,23,24,23,20
2017/05/27/11:50:29.352700,128015,1495857029,352441072,0,22,22,21,21,21,23,22,19
2017/05/27/11:50:29.375118,128016,1495857029,374947071,0,22,21,20,23,22,22,23,19
2017/05/27/11:50:29.390125,128017,1495857029,389936923,0,21,21,21,23,22,21,22,19
2017/05/27/11:50:29.412632,128018,1495857029,412441015,0,21,19,20,21,22,21,20,17
2017/05/27/11:50:29.443357,128019,1495857029,443140983,0,20,19,20,24,21,24,19,17
2017/05/27/11:50:29.450123,128020,1495857029,449937105,0,19,19,20,24,20,24,20,18
2017/05/27/11:50:29.472623,128021,1495857029,472449064,0,19,18,22,25,20,25,20,18
2017/05/27/11:50:29.495140,128022,1495857029,494959115,0,19,18,20,26,20,24,20,19
2017/05/27/11:50:29.512791,128023,1495857029,509943008,0,18,18,18,25,22,27,22,19
2017/05/27/11:50:29.532799,128024,1495857029,532505035,0,17,19,19,23,23,27,21,20
2017/05/27/11:50:29.555283,128025,1495857029,555012941,0,18,21,21,23,23,27,21,20
2017/05/27/11:50:29.570163,128026,1495857029,569966077,0,18,22,20,21,24,27,21,18
2017/05/27/11:50:29.592733,128027,1495857029,592494964,0,17,21,21,19,24,27,21,17
2017/05/27/11:50:29.615268,128028,1495857029,614996910,0,16,22,21,18,23,25,23,16
2017/05/27/11:50:29.630148,128029,1495857029,629952907,0,15,21,21,20,20,22,24,16
2017/05/27/11:50:29.652692,128030,1495857029,652467012,0,14,19,19,20,22,23,23,16
2017/05/27/11:50:29.683363,128031,1495857029,683157920,0,14,19,19,20,22,22,23,17
2017/05/27/11:50:29.690135,128032,1495857029,689971923,0,14,19,19,21,23,22,23,18
2017/05/27/11:50:29.712692,128033,1495857029,712470054,0,15,20,20,22,22,23,19,19
2017/05/27/11:50:29.735146,128034,1495857029,734954118,0,16,19,19,22,23,22,17,19
2017/05/27/11:50:29.750103,128035,1495857029,749949932,0,17,19,19,22,21,20,18,20
2017/05/27/11:50:29.772855,128036,1495857029,772569894,0,18,20,19,23,21,22,21,21
2017/05/27/11:50:29.795201,128037,1495857029,795002937,0,18,19,19,23,21,25,22,19
2017/05/27/11:50:29.810098,128038,1495857029,809911012,0,19,19,18,23,21,23,23,18
2017/05/27/11:50:29.832614,128039,1495857029,832412004,0,19,19,19,21,21,25,25,20
2017/05/27/11:50:29.855197,128040,1495857029,854964971,0,18,21,18,22,22,25,24,19
2017/05/27/11:50:29.877763,128041,1495857029,877624034,0,17,20,18,22,23,24,22,20
2017/05/27/11:50:29.892605,128042,1495857029,892457008,0,19,21,19,22,22,23,20,21
2017/05/27/11:50:29.915159,128043,1495857029,914997100,0,21,21,20,20,23,25,21,22
2017/05/27/11:50:29.937602,128044,1495857029,937439918,0,22,20,19,21,25,25,19,20
2017/05/27/11:50:29.953489,128045,1495857029,953207015,0,21,19,20,20,24,24,21,19
2017/05/27/11:50:29.975097,128046,1495857029,974945068,0,20,19,20,19,22,23,22,18
2017/05/27/11:50:29.997586,128047,1495857029,997443914,0,18,19,19,20,22,22,22,17
2017/05/27/11:50:30.012598,128048,1495857030,12444972,0,16,18,18,21,21,23,21,15
2017/05/27/11:50:30.035351,128049,1495857030,35109996,0,16,18,19,21,20,21,20,15
2017/05/27/11:50:30.057609,128050,1495857030,57440996,0,17,18,21,21,21,25,22,15
2017/05/27/11:50:30.072692,128051,1495857030,72539091,0,18,18,20,23,23,25,21,17
2017/05/27/11:50:30.095267,128052,1495857030,95052957,0,17,17,20,22,24,25,21,18
2017/05/27/11:50:30.117815,128053,1495857030,117611885,0,18,17,20,24,25,23,22,18
2017/05/27/11:50:30.132766,128054,1495857030,132493972,0,18,17,22,24,26,22,21,20
2017/05/27/11:50:30.155249,128055,1495857030,154923915,0,18,18,21,24,26,20,18,20
2017/05/27/11:50:30.177708,128056,1495857030,177500963,0,17,18,22,22,25,20,20,19
2017/05/27/11:50:30.192788,128057,1495857030,192527055,0,18,18,22,24,24,22,21,20
2017/05/27/11:50:30.215152,128058,1495857030,214917898,0,18,18,23,22,23,21,20,21
2017/05/27/11:50:30.237550,128059,1495857030,237382888,0,19,19,21,21,21,21,22,21
2017/05/27/11:50:30.252678,128060,1495857030,252460002,0,19,19,22,22,19,21,23,20
2017/05/27/11:50:30.275517,128061,1495857030,275099039,0,18,19,22,22,18,22,21,21
2017/05/27/11:50:30.297642,128062,1495857030,297465085,0,19,20,22,20,17,21,20,19
2017/05/27/11:50:30.314156,128063,1495857030,313929080,0,19,23,21,20,17,24,23,19
2017/05/27/11:50:30.337998,128064,1495857030,337819099,0,18,23,22,22,17,24,23,18
2017/05/27/11:50:30.357673,128065,1495857030,357474088,0,19,22,20,21,17,24,23,20
2017/05/27/11:50:30.372886,128066,1495857030,372548103,0,20,21,21,21,19,23,23,19
2017/05/27/11:50:30.395141,128067,1495857030,394963979,0,19,22,20,23,19,22,23,21
2017/05/27/11:50:30.418023,128068,1495857030,417741060,0,18,20,20,24,21,19,22,20
2017/05/27/11:50:30.432787,128069,1495857030,432539939,0,19,18,21,25,20,18,21,21
2017/05/27/11:50:30.455105,128070,1495857030,454926013,0,18,19,21,25,21,21,23,19
2017/05/27/11:50:30.477798,128071,1495857030,477466106,0,17,20,19,23,20,21,23,18
2017/05/27/11:50:30.492663,128072,1495857030,492465972,0,19,20,19,23,20,23,26,17
2017/05/27/11:50:30.515198,128073,1495857030,514962911,0,21,21,19,21,20,23,24,18
2017/05/27/11:50:30.537683,128074,1495857030,537467956,0,20,20,18,20,21,24,23,17
2017/05/27/11:50:30.554122,128075,1495857030,553932905,0,21,21,18,21,19,22,22,18
2017/05/27/11:50:30.575359,128076,1495857030,575124979,0,21,22,19,22,19,24,23,19
2017/05/27/11:50:30.597629,128077,1495857030,597440958,0,20,22,21,21,22,22,20,18
2017/05/27/11:50:30.612723,128078,1495857030,612459897,0,17,21,21,21,20,23,20,18
2017/05/27/11:50:30.635311,128079,1495857030,635087966,0,18,22,21,21,21,22,21,17
2017/05/27/11:50:30.658276,128080,1495857030,657880067,0,18,23,23,21,24,23,23,19
2017/05/27/11:50:30.672657,128081,1495857030,672427892,0,18,21,23,19,25,22,23,20
2017/05/27/11:50:30.695136,128082,1495857030,694916009,0,19,21,22,18,23,23,20,20
2017/05/27/11:50:30.717805,128083,1495857030,717582941,0,20,22,24,19,23,22,21,21
2017/05/27/11:50:30.732639,128084,1495857030,732428073,0,21,22,23,17,22,21,21,21
2017/05/27/11:50:30.755311,128085,1495857030,755052089,0,21,21,23,17,21,20,20,20
2017/05/27/11:50:30.777738,128086,1495857030,777544975,0,22,22,24,20,21,21,20,18
2017/05/27/11:50:30.792739,128087,1495857030,792475938,0,21,22,24,22,20,21,22,19
2017/05/27/11:50:30.815184,128088,1495857030,814969062,0,21,22,22,23,21,22,23,19
2017/05/27/11:50:30.837612,128089,1495857030,837439060,0,21,22,23,24,21,21,21,21
2017/05/27/11:50:30.860185,128090,1495857030,859945058,0,18,21,21,25,20,21,20,22
2017/05/27/11:50:30.875190,128091,1495857030,874973058,0,18,20,22,24,21,25,19,23
2017/05/27/11:50:30.897741,128092,1495857030,897458076,0,19,20,21,24,21,25,19,22
2017/05/27/11:50:30.920409,128093,1495857030,920160055,0,18,19,20,22,21,24,21,23
2017/05/27/11:50:30.935870,128094,1495857030,935524940,0,16,20,20,21,21,25,22,20
2017/05/27/11:50:30.957645,128095,1495857030,957458972,0,18,20,19,19,22,24,24,20
2017/05/27/11:50:30.980138,128096,1495857030,979938030,0,18,18,18,18,21,21,25,22
2017/05/27/11:50:30.996724,128097,1495857030,996434926,0,16,18,19,17,21,21,24,23
2017/05/27/11:50:31.017650,128098,1495857031,17472982,0,17,19,20,18,20,22,23,23
2017/05/27/11:50:31.040106,128099,1495857031,39932966,0,18,17,21,19,20,21,24,24
2017/05/27/11:50:31.055250,128100,1495857031,54970026,0,18,20,21,21,21,22,24,22
2017/05/27/11:50:31.077836,128101,1495857031,77548027,0,18,21,20,21,22,21,23,21
2017/05/27/11:50:31.100238,128102,1495857031,100032091,0,21,21,19,20,21,22,23,21
2017/05/27/11:50:31.115166,128103,1495857031,114967107,0,23,19,21,19,22,22,21,20
2017/05/27/11:50:31.137587,128104,1495857031,137402057,0,23,20,19,19,23,22,19,22
2017/05/27/11:50:31.160302,128105,1495857031,159989118,0,22,18,19,17,21,20,17,22
2017/05/27/11:50:31.175284,128106,1495857031,174992084,0,23,18,21,18,21,19,17,22
2017/05/27/11:50:31.197736,128107,1495857031,197513103,0,21,16,20,20,22,19,16,20
2017/05/27/11:50:31.220073,128108,1495857031,219907999,0,19,18,20,20,21,19,19,21
2017/05/27/11:50:31.235711,128109,1495857031,235431909,0,18,19,22,21,21,20,20,18
2017/05/27/11:50:31.257794,128110,1495857031,257425069,0,18,20,22,23,20,22,21,19
2017/05/27/11:50:31.280464,128111,1495857031,279968976,0,20,21,21,23,19,24,22,20
2017/05/27/11:50:31.295089,128112,1495857031,294924974,0,20,22,21,21,19,23,23,19
2017/05/27/11:50:31.317971,128113,1495857031,317531108,0,21,21,20,20,19,23,22,20
2017/05/27/11:50:31.340410,128114,1495857031,340029001,0,22,21,20,20,20,23,22,21
2017/05/27/11:50:31.355196,128115,1495857031,354990005,0,21,20,20,18,20,23,25,20
2017/05/27/11:50:31.377728,128116,1495857031,377537965,0,19,20,19,17,20,21,24,18
2017/05/27/11:50:31.400153,128117,1495857031,399972915,0,18,19,19,18,24,24,28,19
2017/05/27/11:50:31.415107,128118,1495857031,414931058,0,17,20,21,20,23,25,28,17
2017/05/27/11:50:31.437840,128119,1495857031,437408924,0,17,19,19,19,23,24,26,19
2017/05/27/11:50:31.460168,128120,1495857031,459963083,0,17,20,17,19,24,24,24,18
2017/05/27/11:50:31.475044,128121,1495857031,474873065,0,18,21,21,21,24,24,25,18
2017/05/27/11:50:31.497688,128122,1495857031,497431039,0,18,20,22,21,22,24,19,18
2017/05/27/11:50:31.520102,128123,1495857031,519918918,0,18,20,20,21,21,23,20,20
2017/05/27/11:50:31.535462,128124,1495857031,534929037,0,19,18,22,23,18,22,21,18
2017/05/27/11:50:31.557680,128125,1495857031,557487010,0,20,19,23,24,17,23,20,19
2017/05/27/11:50:31.580262,128126,1495857031,579967975,0,20,18,21,22,17,21,19,19
2017/05/27/11:50:31.595147,128127,1495857031,594940900,0,19,22,20,21,17,19,18,18
2017/05/27/11:50:31.617714,128128,1495857031,617546081,0,19,21,20,19,21,19,18,17
2017/05/27/11:50:31.640135,128129,1495857031,639946937,0,17,22,21,19,23,19,17,20
2017/05/27/11:50:31.655308,128130,1495857031,654998064,0,16,21,21,17,23,18,17,19
2017/05/27/11:50:31.677748,128131,1495857031,677491903,0,16,23,21,17,25,19,18,19
2017/05/27/11:50:31.700150,128132,1495857031,699948072,0,17,20,20,18,24,21,18,22
