time,.header.seq,.header.stamp.secs,.header.stamp.nsecs,.header.frame_id,.ch0,.ch1,.ch2,.ch3,.ch4,.ch5,.ch6,.ch7
2017/05/27/11:53:39.214007,137483,1495857219,213638067,0,461,508,491,270,166,109,114,117
2017/05/27/11:53:39.230439,137484,1495857219,230127096,0,441,549,470,254,154,100,103,112
2017/05/27/11:53:39.251346,137485,1495857219,251161098,0,415,547,428,233,139,87,88,103
2017/05/27/11:53:39.273840,137486,1495857219,273628950,0,271,531,379,201,127,82,72,67
2017/05/27/11:53:39.293294,137487,1495857219,293103933,0,378,583,345,267,141,83,73,76
2017/05/27/11:53:39.311339,137488,1495857219,311145067,0,433,545,341,272,137,75,72,79
2017/05/27/11:53:39.333868,137489,1495857219,333647012,0,471,510,326,263,146,72,105,90
2017/05/27/11:53:39.356287,137490,1495857219,356116056,0,455,543,335,284,169,76,100,84
2017/05/27/11:53:39.371560,137491,1495857219,371160984,0,487,596,374,330,199,91,101,83
2017/05/27/11:53:39.393825,137492,1495857219,393626928,0,427,533,305,277,180,83,101,78
2017/05/27/11:53:39.416557,137493,1495857219,416168928,0,389,533,292,273,186,82,103,79
2017/05/27/11:53:39.431360,137494,1495857219,431139945,0,413,501,293,275,172,81,76,77
2017/05/27/11:53:39.453770,137495,1495857219,453584909,0,488,470,381,325,168,75,71,83
2017/05/27/11:53:39.476675,137496,1495857219,476233959,0,498,459,407,323,161,89,73,92
2017/05/27/11:53:39.491419,137497,1495857219,491136074,0,480,442,410,315,173,107,73,90
2017/05/27/11:53:39.514141,137498,1495857219,513683080,0,466,454,443,333,176,113,70,89
2017/05/27/11:53:39.536307,137499,1495857219,536139965,0,425,570,472,340,191,121,67,85
2017/05/27/11:53:39.551353,137500,1495857219,551156997,0,368,613,502,330,193,130,71,82
2017/05/27/11:53:39.573945,137501,1495857219,573657989,0,319,553,454,292,175,118,67,69
2017/05/27/11:53:39.596284,137502,1495857219,596155881,0,327,562,435,286,166,106,62,72
2017/05/27/11:53:39.611424,137503,1495857219,611149072,0,341,559,420,278,159,107,66,71
2017/05/27/11:53:39.633744,137504,1495857219,633591890,0,403,535,403,286,150,100,69,72
2017/05/27/11:53:39.656760,137505,1495857219,656280994,0,386,471,279,233,133,87,65,69
2017/05/27/11:53:39.671567,137506,1495857219,671175956,0,366,479,331,260,133,89,64,71
2017/05/27/11:53:39.693812,137507,1495857219,693603992,0,403,534,376,288,142,90,63,70
2017/05/27/11:53:39.716305,137508,1495857219,716118097,0,403,513,360,282,141,84,59,67
2017/05/27/11:53:39.731499,137509,1495857219,731276988,0,342,472,386,271,133,88,51,65
2017/05/27/11:53:39.753884,137510,1495857219,753648996,0,384,503,410,290,142,86,53,70
2017/05/27/11:53:39.776598,137511,1495857219,776206016,0,393,489,402,265,136,77,54,69
2017/05/27/11:53:39.791346,137512,1495857219,791136026,0,373,449,384,238,119,75,56,73
2017/05/27/11:53:39.813839,137513,1495857219,813652992,0,385,448,382,227,115,87,56,74
2017/05/27/11:53:39.836689,137514,1495857219,836236953,0,412,485,407,234,121,84,55,81
2017/05/27/11:53:39.851393,137515,1495857219,851159095,0,451,475,391,207,110,85,72,88
2017/05/27/11:53:39.874174,137516,1495857219,873835086,0,448,471,373,214,115,88,71,86
2017/05/27/11:53:39.896355,137517,1495857219,896162033,0,432,467,381,233,146,96,71,84
2017/05/27/11:53:39.912708,137518,1495857219,912547111,0,407,481,423,270,157,87,69,81
2017/05/27/11:53:39.933845,137519,1495857219,933631896,0,381,409,355,251,164,91,71,73
2017/05/27/11:53:39.961216,137520,1495857219,961014032,0,319,415,404,295,185,104,66,69
2017/05/27/11:53:39.973021,137521,1495857219,972680091,0,318,515,425,314,204,105,65,71
2017/05/27/11:53:39.993911,137522,1495857219,993740081,0,315,488,429,308,186,99,61,64
2017/05/27/11:53:40.017962,137523,1495857220,17607927,0,318,492,394,282,190,99,69,77
2017/05/27/11:53:40.032800,137524,1495857220,32593011,0,287,496,501,349,196,96,77,81
2017/05/27/11:53:40.053838,137525,1495857220,53636074,0,272,488,466,322,187,92,74,82
2017/05/27/11:53:40.076319,137526,1495857220,76113939,0,257,397,441,298,163,88,76,83
2017/05/27/11:53:40.092753,137527,1495857220,92581033,0,265,453,454,304,162,88,79,85
2017/05/27/11:53:40.114784,137528,1495857220,113706111,0,275,438,452,300,157,93,75,77
2017/05/27/11:53:40.136386,137529,1495857220,136177062,0,289,418,343,233,139,95,65,70
2017/05/27/11:53:40.152826,137530,1495857220,152581930,0,251,406,358,216,127,91,57,62
2017/05/27/11:53:40.173865,137531,1495857220,173643112,0,255,416,388,237,129,89,54,57
2017/05/27/11:53:40.196521,137532,1495857220,196249008,0,226,350,376,245,128,85,53,55
2017/05/27/11:53:40.212849,137533,1495857220,212631940,0,196,384,378,234,117,74,46,52
2017/05/27/11:53:40.233974,137534,1495857220,233690977,0,168,369,375,226,111,90,46,54
2017/05/27/11:53:40.256496,137535,1495857220,256195068,0,152,376,403,247,126,92,45,51
2017/05/27/11:53:40.287273,137536,1495857220,286983966,0,126,374,357,228,119,88,42,51
2017/05/27/11:53:40.293839,137537,1495857220,293648004,0,122,365,335,200,118,89,36,49
2017/05/27/11:53:40.316464,137538,1495857220,316293001,0,117,374,354,221,124,92,41,49
2017/05/27/11:53:40.339043,137539,1495857220,338726997,0,111,396,398,259,141,97,45,49
2017/05/27/11:53:40.353890,137540,1495857220,353655099,0,112,392,370,264,136,97,47,57
2017/05/27/11:53:40.376328,137541,1495857220,376147031,0,118,393,382,271,141,99,48,55
2017/05/27/11:53:40.398869,137542,1495857220,398677110,0,108,427,383,277,139,96,46,55
2017/05/27/11:53:40.413842,137543,1495857220,413644075,0,96,384,351,269,136,103,47,57
2017/05/27/11:53:40.436336,137544,1495857220,436134099,0,87,383,322,241,130,84,50,55
2017/05/27/11:53:40.458787,137545,1495857220,458642005,0,90,436,379,266,140,79,52,48
2017/05/27/11:53:40.473915,137546,1495857220,473658084,0,82,434,399,260,138,78,51,46
2017/05/27/11:53:40.496275,137547,1495857220,496093034,0,82,423,400,253,150,98,57,49
2017/05/27/11:53:40.518996,137548,1495857220,518734931,0,80,461,434,276,163,107,56,51
2017/05/27/11:53:40.533808,137549,1495857220,533597946,0,80,456,428,282,162,107,53,50
2017/05/27/11:53:40.556638,137550,1495857220,556246042,0,78,409,364,234,141,102,48,50
2017/05/27/11:53:40.578774,137551,1495857220,578597068,0,77,401,332,232,146,110,55,55
2017/05/27/11:53:40.593959,137552,1495857220,593712091,0,77,403,380,259,139,100,51,55
2017/05/27/11:53:40.616347,137553,1495857220,616136074,0,75,412,356,241,133,92,53,52
2017/05/27/11:53:40.638777,137554,1495857220,638590097,0,84,446,351,234,136,91,50,51
2017/05/27/11:53:40.654058,137555,1495857220,653707027,0,96,509,380,250,146,99,51,51
2017/05/27/11:53:40.676301,137556,1495857220,676142930,0,98,526,412,256,148,99,45,46
2017/05/27/11:53:40.700379,137557,1495857220,700133085,0,98,534,358,219,146,93,46,45
2017/05/27/11:53:40.721297,137558,1495857220,721141099,0,114,546,400,224,152,86,49,53
2017/05/27/11:53:40.743761,137559,1495857220,743619918,0,109,531,421,212,144,87,50,54
2017/05/27/11:53:40.758848,137560,1495857220,758644104,0,91,448,365,177,141,95,51,52
2017/05/27/11:53:40.774116,137561,1495857220,773767948,0,87,427,311,151,136,90,51,50
2017/05/27/11:53:40.803824,137562,1495857220,803612947,0,82,389,303,158,133,98,49,47
2017/05/27/11:53:40.819041,137563,1495857220,818824052,0,105,452,449,319,167,102,56,57
2017/05/27/11:53:40.833845,137564,1495857220,833667993,0,106,435,418,324,171,103,53,58
2017/05/27/11:53:40.856327,137565,1495857220,856134891,0,105,420,425,333,164,92,52,57
2017/05/27/11:53:40.880311,137566,1495857220,880076885,0,110,420,442,342,160,89,52,61
2017/05/27/11:53:40.893969,137567,1495857220,893660068,0,111,443,479,357,161,79,52,62
2017/05/27/11:53:40.917938,137568,1495857220,917613029,0,68,353,289,206,101,70,38,47
2017/05/27/11:53:40.940223,137569,1495857220,940038919,0,71,351,331,206,84,64,36,43
2017/05/27/11:53:40.953838,137570,1495857220,953643083,0,86,441,391,221,100,66,36,46
2017/05/27/11:53:40.976327,137571,1495857220,976154088,0,86,435,383,232,116,64,44,47
2017/05/27/11:53:40.998955,137572,1495857220,998631000,0,90,461,350,204,110,70,44,47
2017/05/27/11:53:41.014112,137573,1495857221,13701915,0,97,491,368,206,119,75,46,49
2017/05/27/11:53:41.036259,137574,1495857221,36077976,0,97,525,365,246,136,80,50,53
2017/05/27/11:53:41.058902,137575,1495857221,58691978,0,105,481,303,221,123,75,51,53
2017/05/27/11:53:41.073894,137576,1495857221,73664903,0,101,470,306,215,111,73,47,57
2017/05/27/11:53:41.096337,137577,1495857221,96138000,0,98,434,314,225,120,70,50,60
2017/05/27/11:53:41.118989,137578,1495857221,118654966,0,99,412,333,247,133,71,52,59
2017/05/27/11:53:41.133902,137579,1495857221,133680105,0,97,398,328,218,124,63,50,56
2017/05/27/11:53:41.156390,137580,1495857221,156182050,0,91,521,432,244,129,63,50,62
2017/05/27/11:53:41.179033,137581,1495857221,178730964,0,93,582,455,269,146,77,50,59
2017/05/27/11:53:41.201300,137582,1495857221,201129913,0,90,571,444,267,152,95,50,56
2017/05/27/11:53:41.216373,137583,1495857221,216126918,0,89,554,438,262,150,104,46,58
2017/05/27/11:53:41.238862,137584,1495857221,238663911,0,90,554,448,252,151,104,47,61
2017/05/27/11:53:41.261412,137585,1495857221,261142015,0,77,483,373,251,159,101,43,53
2017/05/27/11:53:41.276367,137586,1495857221,276159048,0,73,427,352,232,152,96,42,52
2017/05/27/11:53:41.298773,137587,1495857221,298619031,0,75,466,362,230,147,86,41,50
2017/05/27/11:53:41.325568,137588,1495857221,325439929,0,66,434,352,229,139,70,40,45
2017/05/27/11:53:41.345295,137589,1495857221,345118045,0,65,425,320,238,147,70,42,39
2017/05/27/11:53:41.360319,137590,1495857221,360104084,0,66,358,280,219,137,74,45,42
2017/05/27/11:53:41.381442,137591,1495857221,381196022,0,67,351,252,194,127,69,44,44
2017/05/27/11:53:41.403841,137592,1495857221,403645992,0,70,338,232,197,120,59,41,44
2017/05/27/11:53:41.418829,137593,1495857221,418598890,0,72,349,207,175,112,59,42,46
2017/05/27/11:53:41.457648,137594,1495857221,457461118,0,72,366,244,209,112,61,41,53
2017/05/27/11:53:41.459155,137595,1495857221,459034919,0,66,371,247,197,103,61,38,50
2017/05/27/11:53:41.478838,137596,1495857221,478626966,0,67,367,272,206,103,62,33,45
2017/05/27/11:53:41.509530,137597,1495857221,509320020,0,69,375,270,202,110,63,35,48
2017/05/27/11:53:41.518333,137598,1495857221,518125057,0,67,369,277,206,120,74,31,51
2017/05/27/11:53:41.538879,137599,1495857221,538678884,0,73,341,291,169,107,76,28,43
2017/05/27/11:53:41.569822,137600,1495857221,569443941,0,77,324,291,171,111,76,31,46
2017/05/27/11:53:41.576285,137601,1495857221,576123952,0,75,351,275,159,111,75,36,54
2017/05/27/11:53:41.598879,137602,1495857221,598647117,0,68,320,280,151,106,74,34,52
2017/05/27/11:53:41.621385,137603,1495857221,621161937,0,74,356,281,154,93,65,35,48
2017/05/27/11:53:41.636327,137604,1495857221,636107921,0,74,382,238,148,87,59,38,48
2017/05/27/11:53:41.658873,137605,1495857221,658634901,0,71,379,224,146,95,59,36,52
2017/05/27/11:53:41.682876,137606,1495857221,682651042,0,72,355,210,143,96,61,35,57
2017/05/27/11:53:41.696293,137607,1495857221,696111917,0,72,367,221,156,90,59,33,58
2017/05/27/11:53:41.718867,137608,1495857221,718646049,0,63,322,204,175,103,61,36,59
2017/05/27/11:53:41.741289,137609,1495857221,741107940,0,72,308,185,163,102,61,39,61
2017/05/27/11:53:41.756543,137610,1495857221,756207942,0,70,332,184,159,91,61,38,56
2017/05/27/11:53:41.778774,137611,1495857221,778604030,0,72,371,190,170,101,63,38,43
2017/05/27/11:53:41.801496,137612,1495857221,801201105,0,75,380,183,188,118,68,39,46
2017/05/27/11:53:41.816299,137613,1495857221,816112041,0,83,432,232,178,117,70,38,62
2017/05/27/11:53:41.838828,137614,1495857221,838638067,0,72,422,248,174,121,77,36,64
2017/05/27/11:53:41.861428,137615,1495857221,861129999,0,72,432,255,177,120,80,38,65
2017/05/27/11:53:41.885187,137616,1495857221,879894018,0,69,405,263,176,115,77,37,68
2017/05/27/11:53:41.898989,137617,1495857221,898669958,0,72,374,262,169,121,78,38,68
2017/05/27/11:53:41.921308,137618,1495857221,921117067,0,71,360,264,169,112,71,42,55
2017/05/27/11:53:41.944950,137619,1495857221,936130046,0,68,345,246,173,113,62,42,56
2017/05/27/11:53:41.958900,137620,1495857221,958668947,0,70,340,245,175,124,65,40,64
2017/05/27/11:53:41.981376,137621,1495857221,981168985,0,71,321,260,171,116,64,41,72
2017/05/27/11:53:41.996373,137622,1495857221,996197938,0,75,365,251,154,97,62,41,72
2017/05/27/11:53:42.018843,137623,1495857222,18649101,0,75,373,214,148,105,63,38,74
2017/05/27/11:53:42.041377,137624,1495857222,41146039,0,79,431,231,150,97,71,39,76
2017/05/27/11:53:42.056530,137625,1495857222,56190013,0,81,458,279,171,95,67,41,68
2017/05/27/11:53:42.078748,137626,1495857222,78577995,0,79,458,281,176,100,72,41,59
2017/05/27/11:53:42.101314,137627,1495857222,101109981,0,77,455,296,169,97,67,39,64
2017/05/27/11:53:42.116425,137628,1495857222,116209030,0,84,430,316,189,98,70,40,61
2017/05/27/11:53:42.138855,137629,1495857222,138637065,0,87,409,311,195,105,73,38,55
2017/05/27/11:53:42.161414,137630,1495857222,161132097,0,85,365,265,186,97,71,38,57
2017/05/27/11:53:42.192016,137631,1495857222,191807031,0,88,373,258,204,106,76,39,55
2017/05/27/11:53:42.198927,137632,1495857222,198617935,0,84,355,249,222,113,79,40,54
2017/05/27/11:53:42.221517,137633,1495857222,221105098,0,79,414,231,201,106,76,39,61
2017/05/27/11:53:42.243930,137634,1495857222,243659973,0,80,424,222,190,102,64,38,63
2017/05/27/11:53:42.258844,137635,1495857222,258625984,0,81,509,242,191,111,63,38,65
2017/05/27/11:53:42.289813,137636,1495857222,289483070,0,77,502,232,175,104,53,36,65
2017/05/27/11:53:42.303864,137637,1495857222,303637027,0,90,554,327,221,125,62,40,66
2017/05/27/11:53:42.318963,137638,1495857222,318622112,0,92,534,317,229,127,63,39,61
2017/05/27/11:53:42.341358,137639,1495857222,341140985,0,81,500,314,226,130,63,39,58
2017/05/27/11:53:42.363960,137640,1495857222,363655090,0,88,446,315,224,129,66,39,54
2017/05/27/11:53:42.379182,137641,1495857222,378730058,0,89,461,318,217,129,63,38,52
2017/05/27/11:53:42.401297,137642,1495857222,401099920,0,80,394,247,182,104,51,33,48
2017/05/27/11:53:42.423826,137643,1495857222,423619031,0,73,368,242,179,104,61,40,43
2017/05/27/11:53:42.438798,137644,1495857222,438640117,0,87,529,299,198,102,60,42,48
2017/05/27/11:53:42.461308,137645,1495857222,461116075,0,87,517,298,195,100,58,43,51
2017/05/27/11:53:42.483918,137646,1495857222,483659029,0,97,590,304,197,97,60,46,54
2017/05/27/11:53:42.498852,137647,1495857222,498641967,0,94,588,298,192,100,61,46,50
2017/05/27/11:53:42.521435,137648,1495857222,521213054,0,99,598,306,200,102,63,44,57
2017/05/27/11:53:42.544293,137649,1495857222,544106006,0,97,529,304,199,107,66,43,54
2017/05/27/11:53:42.558882,137650,1495857222,558645009,0,89,505,297,203,100,64,40,52
2017/05/27/11:53:42.581413,137651,1495857222,581217050,0,79,414,284,208,110,66,40,53
2017/05/27/11:53:42.603885,137652,1495857222,603667020,0,79,408,274,208,115,64,41,58
2017/05/27/11:53:42.618762,137653,1495857222,618576049,0,68,363,261,207,119,57,38,52
2017/05/27/11:53:42.641499,137654,1495857222,641228914,0,56,258,199,206,118,56,36,50
2017/05/27/11:53:42.663944,137655,1495857222,663676977,0,56,245,232,217,117,56,35,50
2017/05/27/11:53:42.680264,137656,1495857222,680047988,0,55,287,252,218,101,50,30,51
2017/05/27/11:53:42.701542,137657,1495857222,701237916,0,54,265,232,194,99,50,30,43
2017/05/27/11:53:42.723879,137658,1495857222,723674058,0,58,298,274,187,96,58,32,42
2017/05/27/11:53:42.746434,137659,1495857222,746238946,0,61,302,281,177,87,57,32,43
2017/05/27/11:53:42.761319,137660,1495857222,761110067,0,60,321,298,185,87,58,33,42
2017/05/27/11:53:42.783830,137661,1495857222,783608913,0,58,317,281,176,93,61,34,42
2017/05/27/11:53:42.798881,137662,1495857222,798671007,0,62,371,281,170,84,60,32,43
2017/05/27/11:53:42.821281,137663,1495857222,821094989,0,60,398,248,171,81,53,29,43
2017/05/27/11:53:42.846518,137664,1495857222,843689918,0,55,391,263,177,84,50,28,41
2017/05/27/11:53:42.858798,137665,1495857222,858606100,0,56,389,225,157,80,48,28,40
2017/05/27/11:53:42.881265,137666,1495857222,881073951,0,56,374,227,161,80,45,28,32
2017/05/27/11:53:42.903951,137667,1495857222,903700113,0,56,361,227,166,91,49,29,35
2017/05/27/11:53:42.919118,137668,1495857222,918782949,0,65,368,239,163,88,40,35,39
2017/05/27/11:53:42.957096,137669,1495857222,956881999,0,76,485,231,157,98,49,35,41
2017/05/27/11:53:42.963863,137670,1495857222,963618040,0,76,523,226,152,106,52,37,44
2017/05/27/11:53:42.979010,137671,1495857222,978696107,0,95,550,267,193,113,62,40,48
2017/05/27/11:53:43.001368,137672,1495857223,1136064,0,97,542,301,214,122,66,42,47
2017/05/27/11:53:43.023832,137673,1495857223,23611068,0,98,530,312,228,155,76,41,44
2017/05/27/11:53:43.038908,137674,1495857223,38618087,0,92,437,301,225,149,73,46,46
2017/05/27/11:53:43.061345,137675,1495857223,61121940,0,96,395,290,223,148,73,43,43
2017/05/27/11:53:43.083778,137676,1495857223,83594083,0,80,383,290,206,148,70,42,40
2017/05/27/11:53:43.106321,137677,1495857223,106137990,0,80,390,260,185,136,64,39,35
2017/05/27/11:53:43.121413,137678,1495857223,121202945,0,78,377,223,152,97,57,35,37
2017/05/27/11:53:43.143773,137679,1495857223,143601894,0,76,354,214,150,111,63,36,38
2017/05/27/11:53:43.166414,137680,1495857223,166182994,0,70,348,299,207,133,73,43,43
2017/05/27/11:53:43.182778,137681,1495857223,182600975,0,71,349,265,187,141,75,41,43
2017/05/27/11:53:43.203833,137682,1495857223,203619956,0,67,348,278,197,142,80,45,43
2017/05/27/11:53:43.226285,137683,1495857223,226141929,0,62,381,302,209,138,84,45,39
2017/05/27/11:53:43.241586,137684,1495857223,241230964,0,65,394,299,210,130,80,40,34
2017/05/27/11:53:43.264005,137685,1495857223,263729095,0,67,414,213,148,103,70,37,30
2017/05/27/11:53:43.286327,137686,1495857223,286160945,0,67,403,237,151,95,70,43,37
2017/05/27/11:53:43.301314,137687,1495857223,301136016,0,64,368,221,139,92,67,43,39
2017/05/27/11:53:43.323745,137688,1495857223,323560953,0,67,387,202,129,92,63,45,43
2017/05/27/11:53:43.346441,137689,1495857223,346200942,0,68,416,255,158,93,65,45,43
2017/05/27/11:53:43.361317,137690,1495857223,361112117,0,71,439,286,179,102,66,43,42
2017/05/27/11:53:43.383806,137691,1495857223,383589029,0,66,421,273,189,94,58,39,36
2017/05/27/11:53:43.406875,137692,1495857223,406596899,0,65,443,283,196,96,56,36,32
2017/05/27/11:53:43.421291,137693,1495857223,421104907,0,58,406,289,193,97,55,35,30
2017/05/27/11:53:43.443942,137694,1495857223,443664073,0,54,356,261,180,90,49,34,32
2017/05/27/11:53:43.466337,137695,1495857223,466137886,0,45,291,228,181,93,48,33,34
2017/05/27/11:53:43.481492,137696,1495857223,481261014,0,47,274,224,167,95,63,35,38
2017/05/27/11:53:43.503809,137697,1495857223,503622055,0,48,258,203,157,90,62,33,39
2017/05/27/11:53:43.526371,137698,1495857223,526139020,0,63,273,251,197,111,65,36,42
2017/05/27/11:53:43.541346,137699,1495857223,541124105,0,72,343,252,201,122,66,37,44
2017/05/27/11:53:43.563803,137700,1495857223,563627958,0,75,367,271,190,114,64,37,41
2017/05/27/11:53:43.586295,137701,1495857223,586105108,0,79,416,275,202,113,47,32,37
2017/05/27/11:53:43.601323,137702,1495857223,601114988,0,83,437,288,215,116,55,39,43
2017/05/27/11:53:43.623852,137703,1495857223,623620033,0,71,460,251,192,101,50,36,40
2017/05/27/11:53:43.654477,137704,1495857223,654274940,0,61,414,281,211,94,52,34,37
2017/05/27/11:53:43.684926,137705,1495857223,684710979,0,56,400,279,208,90,53,36,38
2017/05/27/11:53:43.707569,137706,1495857223,707418918,0,60,384,280,196,83,53,36,41
2017/05/27/11:53:43.709221,137707,1495857223,709059000,0,54,360,287,190,85,46,32,36
2017/05/27/11:53:43.723234,137708,1495857223,722608089,0,54,321,305,185,79,45,33,37
2017/05/27/11:53:43.743988,137709,1495857223,743696928,0,58,323,269,147,78,49,34,37
2017/05/27/11:53:43.766517,137710,1495857223,766252994,0,60,347,276,169,83,48,34,36
2017/05/27/11:53:43.781320,137711,1495857223,781124114,0,48,304,260,171,94,50,34,34
2017/05/27/11:53:43.803822,137712,1495857223,803591966,0,46,307,232,155,90,47,34,33
2017/05/27/11:53:43.826486,137713,1495857223,826186895,0,47,280,191,143,91,48,34,35
2017/05/27/11:53:43.850216,137714,1495857223,850074052,0,43,286,191,147,82,40,31,34
2017/05/27/11:53:43.863956,137715,1495857223,863686084,0,46,292,225,143,83,40,30,34
2017/05/27/11:53:43.886248,137716,1495857223,886125087,0,47,297,238,134,81,43,32,33
2017/05/27/11:53:43.901327,137717,1495857223,901132106,0,49,308,244,150,89,45,30,32
2017/05/27/11:53:43.932095,137718,1495857223,931788921,0,54,297,244,164,90,49,35,47
2017/05/27/11:53:43.946302,137719,1495857223,946119070,0,58,326,260,162,94,52,37,50
2017/05/27/11:53:43.961275,137720,1495857223,961148977,0,55,298,198,144,94,53,40,53
2017/05/27/11:53:43.983792,137721,1495857223,983649015,0,57,346,195,151,88,49,39,55
2017/05/27/11:53:44.006299,137722,1495857224,6127119,0,59,338,238,187,100,48,40,61
2017/05/27/11:53:44.028798,137723,1495857224,28635025,0,60,439,228,180,105,50,33,50
2017/05/27/11:53:44.043890,137724,1495857224,43622970,0,64,455,203,180,106,49,31,47
2017/05/27/11:53:44.066279,137725,1495857224,66138029,0,63,443,222,181,103,56,29,45
2017/05/27/11:53:44.089032,137726,1495857224,88727951,0,67,449,214,175,114,65,32,44
2017/05/27/11:53:44.103899,137727,1495857224,103677988,0,66,459,177,133,97,65,31,37
2017/05/27/11:53:44.126313,137728,1495857224,126157999,0,57,384,201,128,94,64,39,42
2017/05/27/11:53:44.149081,137729,1495857224,148672103,0,56,374,225,140,96,68,44,45
2017/05/27/11:53:44.163745,137730,1495857224,163569927,0,59,378,254,157,99,62,43,45
2017/05/27/11:53:44.186439,137731,1495857224,186183929,0,55,349,259,157,82,54,43,43
2017/05/27/11:53:44.208832,137732,1495857224,208612918,0,60,357,263,151,95,60,47,45
2017/05/27/11:53:44.231412,137733,1495857224,231187105,0,66,365,263,153,106,61,43,41
2017/05/27/11:53:44.246317,137734,1495857224,246120929,0,66,355,264,160,103,58,40,39
2017/05/27/11:53:44.268785,137735,1495857224,268620967,0,65,359,234,146,107,58,40,37
2017/05/27/11:53:44.283809,137736,1495857224,283611059,0,66,354,252,166,113,57,38,41
2017/05/27/11:53:44.306379,137737,1495857224,306092977,0,63,336,244,180,105,53,33,37
2017/05/27/11:53:44.336723,137738,1495857224,336556911,0,58,295,226,176,91,49,31,37
2017/05/27/11:53:44.345233,137739,1495857224,345078945,0,59,283,213,163,98,49,33,38
2017/05/27/11:53:44.366616,137740,1495857224,366200923,0,61,291,201,156,98,56,33,39
2017/05/27/11:53:44.388831,137741,1495857224,388691902,0,60,280,214,171,94,56,34,38
2017/05/27/11:53:44.411432,137742,1495857224,411168098,0,66,310,230,177,92,56,35,42
2017/05/27/11:53:44.426202,137743,1495857224,426088094,0,75,350,230,186,96,73,34,43
2017/05/27/11:53:44.457438,137744,1495857224,456995010,0,75,352,235,189,94,78,32,44
2017/05/27/11:53:44.463870,137745,1495857224,463645935,0,81,368,319,240,110,82,34,47
2017/05/27/11:53:44.486257,137746,1495857224,486084938,0,82,396,308,236,116,82,35,47
2017/05/27/11:53:44.508775,137747,1495857224,508620023,0,76,364,303,229,116,83,37,43
2017/05/27/11:53:44.523770,137748,1495857224,523610115,0,82,383,318,225,125,73,40,42
2017/05/27/11:53:44.546281,137749,1495857224,546133041,0,85,412,326,223,122,68,39,45
2017/05/27/11:53:44.568775,137750,1495857224,568624973,0,83,425,262,187,106,62,41,44
2017/05/27/11:53:44.583762,137751,1495857224,583616018,0,90,419,267,177,97,58,39,46
2017/05/27/11:53:44.615284,137752,1495857224,614990949,0,98,485,266,181,106,62,41,48
2017/05/27/11:53:44.628739,137753,1495857224,628587007,0,86,458,269,188,100,62,39,47
2017/05/27/11:53:44.644041,137754,1495857224,643708944,0,88,450,271,195,100,65,38,43
2017/05/27/11:53:44.666616,137755,1495857224,666238069,0,85,468,262,180,97,62,40,45
2017/05/27/11:53:44.688846,137756,1495857224,688647985,0,75,439,236,165,105,66,43,44
2017/05/27/11:53:44.703840,137757,1495857224,703596115,0,84,506,290,149,91,67,39,44
2017/05/27/11:53:44.727888,137758,1495857224,727658033,0,87,510,324,176,100,69,43,45
2017/05/27/11:53:44.748834,137759,1495857224,748630046,0,79,480,315,161,97,66,43,43
2017/05/27/11:53:44.765537,137760,1495857224,765341043,0,79,513,333,162,102,72,41,44
2017/05/27/11:53:44.795081,137761,1495857224,794939994,0,86,578,359,183,97,69,36,44
2017/05/27/11:53:44.808833,137762,1495857224,808629989,0,66,463,318,186,96,64,37,42
2017/05/27/11:53:44.824146,137763,1495857224,823851108,0,65,464,264,153,87,61,33,41
2017/05/27/11:53:44.848047,137764,1495857224,847640037,0,75,490,253,156,95,75,38,44
2017/05/27/11:53:44.868820,137765,1495857224,868612051,0,74,436,219,171,97,75,38,36
2017/05/27/11:53:44.891362,137766,1495857224,891103029,0,66,368,177,150,98,77,39,34
2017/05/27/11:53:44.914646,137767,1495857224,914367914,0,64,359,163,149,101,79,39,33
2017/05/27/11:53:44.929026,137768,1495857224,928688049,0,60,336,162,155,95,78,36,31
2017/05/27/11:53:44.943814,137769,1495857224,943615913,0,52,315,150,158,91,67,33,24
2017/05/27/11:53:44.966367,137770,1495857224,966106891,0,47,285,149,132,87,65,36,25
2017/05/27/11:53:44.988864,137771,1495857224,988616943,0,53,269,229,162,95,68,43,33
2017/05/27/11:53:45.019513,137772,1495857225,19311904,0,56,266,244,173,98,74,44,33
2017/05/27/11:53:45.026250,137773,1495857225,26097059,0,57,269,249,161,100,69,44,34
2017/05/27/11:53:45.048776,137774,1495857225,48582077,0,57,361,261,159,99,67,42,35
2017/05/27/11:53:45.071309,137775,1495857225,71130990,0,56,350,264,159,97,66,42,38
2017/05/27/11:53:45.086301,137776,1495857225,86127042,0,48,356,265,185,101,64,38,33
2017/05/27/11:53:45.117009,137777,1495857225,116806030,0,47,381,251,175,94,54,35,34
2017/05/27/11:53:45.131312,137778,1495857225,131103038,0,58,388,277,206,97,57,34,36
2017/05/27/11:53:45.146304,137779,1495857225,146116018,0,58,321,268,202,96,64,35,36
2017/05/27/11:53:45.168735,137780,1495857225,168605089,0,58,320,279,202,95,61,30,34
2017/05/27/11:53:45.191579,137781,1495857225,191234111,0,64,323,216,156,77,60,29,37
2017/05/27/11:53:45.207725,137782,1495857225,207541942,0,66,294,217,156,79,62,31,35
2017/05/27/11:53:45.228788,137783,1495857225,228586912,0,69,308,178,108,68,58,33,34
2017/05/27/11:53:45.251506,137784,1495857225,251135110,0,85,412,210,142,69,57,33,42
2017/05/27/11:53:45.266327,137785,1495857225,266136884,0,91,441,221,163,76,56,34,46
2017/05/27/11:53:45.288908,137786,1495857225,288690090,0,109,526,252,185,87,56,34,48
2017/05/27/11:53:45.311344,137787,1495857225,311130046,0,114,537,255,192,88,55,32,51
2017/05/27/11:53:45.326310,137788,1495857225,326142072,0,108,531,250,199,90,55,31,52
2017/05/27/11:53:45.364499,137789,1495857225,364289999,0,94,436,225,177,86,43,30,46
2017/05/27/11:53:45.371312,137790,1495857225,371130943,0,94,427,209,174,86,40,30,46
2017/05/27/11:53:45.386675,137791,1495857225,386233091,0,72,313,165,143,74,35,29,41
2017/05/27/11:53:45.418616,137792,1495857225,418263912,0,64,303,143,132,68,33,29,38
2017/05/27/11:53:45.431536,137793,1495857225,431216955,0,61,302,157,125,69,31,27,36
2017/05/27/11:53:45.446638,137794,1495857225,446209907,0,60,280,170,144,76,34,28,39
2017/05/27/11:53:45.468796,137795,1495857225,468607902,0,61,269,182,134,68,33,25,40
2017/05/27/11:53:45.491407,137796,1495857225,491112947,0,59,266,188,134,67,30,23,41
2017/05/27/11:53:45.506404,137797,1495857225,506095886,0,58,261,190,133,70,29,25,40
2017/05/27/11:53:45.530307,137798,1495857225,530129909,0,58,227,176,131,68,29,26,43
2017/05/27/11:53:45.551323,137799,1495857225,551148891,0,63,258,152,101,54,25,24,40
2017/05/27/11:53:45.598442,137800,1495857225,598150968,0,55,263,102,81,48,23,23,34
2017/05/27/11:53:45.599850,137801,1495857225,599711894,0,53,247,81,76,44,25,54,71
2017/05/27/11:53:45.611575,137802,1495857225,611217021,0,52,241,72,66,38,27,55,73
2017/05/27/11:53:45.642021,137803,1495857225,641844034,0,129,349,90,59,35,27,56,74
2017/05/27/11:53:45.648723,137804,1495857225,648575067,0,142,371,96,56,37,29,58,76
2017/05/27/11:53:45.671364,137805,1495857225,671164035,0,141,356,95,49,34,29,59,75
2017/05/27/11:53:45.686417,137806,1495857225,686158895,0,141,350,108,48,31,27,33,41
2017/05/27/11:53:45.709000,137807,1495857225,708753108,0,146,351,134,65,35,26,30,42
2017/05/27/11:53:45.747824,137808,1495857225,747545957,0,90,271,127,68,37,27,27,38
2017/05/27/11:53:45.755433,137809,1495857225,755089998,0,66,200,120,69,35,25,23,31
2017/05/27/11:53:45.768778,137810,1495857225,768565893,0,131,181,162,90,42,26,23,41
2017/05/27/11:53:45.807683,137811,1495857225,807472944,0,187,208,198,115,50,30,25,45
2017/05/27/11:53:45.809177,137812,1495857225,809078931,0,189,197,187,108,47,29,25,41
2017/05/27/11:53:45.828788,137813,1495857225,828583955,0,202,164,223,138,53,29,27,41
2017/05/27/11:53:45.851310,137814,1495857225,851121902,0,241,175,234,146,54,28,28,47
2017/05/27/11:53:45.868280,137815,1495857225,868020057,0,238,177,249,166,56,29,29,40
2017/05/27/11:53:45.888844,137816,1495857225,888602018,0,266,145,223,153,52,28,30,45
2017/05/27/11:53:45.917429,137817,1495857225,917078971,0,270,155,229,162,57,28,29,46
2017/05/27/11:53:45.933807,137818,1495857225,933615922,0,261,148,200,152,52,28,29,46
2017/05/27/11:53:45.948765,137819,1495857225,948555946,0,252,156,200,147,53,33,30,43
2017/05/27/11:53:45.973185,137820,1495857225,972995042,0,257,162,171,138,51,33,27,45
2017/05/27/11:53:45.993778,137821,1495857225,993570089,0,204,156,179,141,54,32,24,38
2017/05/27/11:53:46.016528,137822,1495857226,16204118,0,200,150,194,157,56,33,26,40
2017/05/27/11:53:46.031394,137823,1495857226,31156063,0,205,151,186,153,56,33,27,41
2017/05/27/11:53:46.053713,137824,1495857226,53570032,0,222,141,189,157,57,32,26,41
2017/05/27/11:53:46.068881,137825,1495857226,68627119,0,271,205,189,142,53,32,27,46
2017/05/27/11:53:46.091621,137826,1495857226,91202020,0,284,214,196,149,53,32,27,50
2017/05/27/11:53:46.113804,137827,1495857226,113600969,0,292,223,174,127,49,29,24,49
2017/05/27/11:53:46.137973,137828,1495857226,137761116,0,315,225,172,114,48,29,23,52
2017/05/27/11:53:46.152744,137829,1495857226,152566909,0,313,222,178,108,44,25,21,51
2017/05/27/11:53:46.173785,137830,1495857226,173619031,0,287,157,183,117,48,24,23,47
2017/05/27/11:53:46.190307,137831,1495857226,190071105,0,286,157,171,115,44,23,23,46
2017/05/27/11:53:46.211385,137832,1495857226,211163997,0,288,154,173,110,42,27,27,49
2017/05/27/11:53:46.234132,137833,1495857226,233762025,0,293,191,174,112,43,27,29,49
2017/05/27/11:53:46.248709,137834,1495857226,248579978,0,326,187,153,110,41,26,30,53
2017/05/27/11:53:46.279624,137835,1495857226,279303073,0,322,208,179,116,52,31,30,59
2017/05/27/11:53:46.301999,137836,1495857226,301801919,0,323,209,177,109,54,33,30,60
2017/05/27/11:53:46.312991,137837,1495857226,312793016,0,347,281,180,112,52,30,29,59
2017/05/27/11:53:46.331795,137838,1495857226,331300020,0,346,296,190,113,50,30,27,58
2017/05/27/11:53:46.361991,137839,1495857226,361802101,0,326,304,197,125,54,31,26,57
2017/05/27/11:53:46.368833,137840,1495857226,368602991,0,321,296,145,113,45,28,25,52
2017/05/27/11:53:46.415124,137841,1495857226,414978027,0,345,296,165,119,46,29,24,52
2017/05/27/11:53:46.416641,137842,1495857226,416548013,0,312,226,173,123,51,31,23,49
2017/05/27/11:53:46.428761,137843,1495857226,428617954,0,283,175,166,126,54,31,23,49
2017/05/27/11:53:46.451314,137844,1495857226,451128959,0,258,165,156,113,50,31,27,48
2017/05/27/11:53:46.475273,137845,1495857226,475106954,0,227,160,172,122,47,31,26,42
2017/05/27/11:53:46.488942,137846,1495857226,488683938,0,157,217,175,123,47,30,29,38
2017/05/27/11:53:46.526989,137847,1495857226,526806116,0,151,236,182,130,49,31,29,37
2017/05/27/11:53:46.533788,137848,1495857226,533564090,0,159,246,219,155,56,32,30,38
2017/05/27/11:53:46.548943,137849,1495857226,548599958,0,119,248,222,158,59,34,25,36
2017/05/27/11:53:46.584550,137850,1495857226,581399917,0,181,243,208,146,58,32,27,36
2017/05/27/11:53:46.593915,137851,1495857226,593708992,0,177,185,204,140,56,31,25,33
2017/05/27/11:53:46.608896,137852,1495857226,608550071,0,178,155,195,135,53,29,23,32
2017/05/27/11:53:46.639434,137853,1495857226,639280080,0,168,131,148,111,45,27,22,27
2017/05/27/11:53:46.653956,137854,1495857226,653615951,0,165,128,157,114,49,28,23,27
2017/05/27/11:53:46.668745,137855,1495857226,668575048,0,95,120,179,121,52,29,21,29
2017/05/27/11:53:46.692862,137856,1495857226,692588090,0,80,124,181,145,54,28,21,29
2017/05/27/11:53:46.713806,137857,1495857226,713598012,0,77,119,172,143,55,26,22,30
2017/05/27/11:53:46.728817,137858,1495857226,728616952,0,69,142,188,149,57,28,24,29
2017/05/27/11:53:46.751522,137859,1495857226,751236915,0,65,146,200,148,54,29,24,28
2017/05/27/11:53:46.773760,137860,1495857226,773582935,0,52,169,196,143,51,29,24,24
2017/05/27/11:53:46.788927,137861,1495857226,788700103,0,47,188,177,121,50,29,24,25
2017/05/27/11:53:46.811303,137862,1495857226,811105966,0,39,185,172,114,47,29,22,23
2017/05/27/11:53:46.833814,137863,1495857226,833611965,0,37,167,157,100,45,29,22,21
2017/05/27/11:53:46.856282,137864,1495857226,856101036,0,33,157,149,99,44,26,20,22
2017/05/27/11:53:46.871278,137865,1495857226,871134042,0,29,133,142,102,47,25,20,21
2017/05/27/11:53:46.895290,137866,1495857226,895096063,0,28,114,145,106,45,26,22,20
2017/05/27/11:53:46.917714,137867,1495857226,917534112,0,32,120,155,114,48,27,23,21
2017/05/27/11:53:46.931348,137868,1495857226,931138038,0,30,119,170,122,44,25,21,24
2017/05/27/11:53:46.961962,137869,1495857226,961780071,0,33,116,162,128,50,26,24,25
2017/05/27/11:53:46.976285,137870,1495857226,976111888,0,33,117,149,123,47,29,24,26
2017/05/27/11:53:46.991289,137871,1495857226,991111993,0,31,113,144,115,47,30,22,24
2017/05/27/11:53:47.013861,137872,1495857227,13636112,0,30,116,153,114,45,29,21,23
2017/05/27/11:53:47.036309,137873,1495857227,36139965,0,32,120,132,105,44,30,21,21
2017/05/27/11:53:47.051275,137874,1495857227,51106929,0,32,128,135,93,36,29,19,18
2017/05/27/11:53:47.081965,137875,1495857227,81790924,0,31,131,136,91,33,25,19,19
2017/05/27/11:53:47.096346,137876,1495857227,96162080,0,33,143,126,83,30,25,19,20
2017/05/27/11:53:47.111570,137877,1495857227,111243009,0,32,140,101,71,31,24,20,22
2017/05/27/11:53:47.135437,137878,1495857227,135055065,0,31,137,99,62,29,24,21,22
2017/05/27/11:53:47.156286,137879,1495857227,156120061,0,31,126,71,54,26,24,21,23
2017/05/27/11:53:47.171412,137880,1495857227,171122074,0,33,123,64,61,46,27,23,24
2017/05/27/11:53:47.193828,137881,1495857227,193591117,0,31,90,92,74,49,28,23,23
2017/05/27/11:53:47.216313,137882,1495857227,216120958,0,34,81,96,73,48,30,24,23
2017/05/27/11:53:47.231321,137883,1495857227,231117010,0,34,76,98,72,48,30,23,21
2017/05/27/11:53:47.262108,137884,1495857227,261811017,0,31,72,95,70,48,28,26,20
2017/05/27/11:53:47.276341,137885,1495857227,276211023,0,28,55,94,57,32,23,23,20
2017/05/27/11:53:47.298801,137886,1495857227,298655986,0,25,57,74,50,33,23,23,22
2017/05/27/11:53:47.313760,137887,1495857227,313554048,0,22,57,66,47,32,21,22,20
2017/05/27/11:53:47.336280,137888,1495857227,336107969,0,21,53,53,45,33,20,22,20
2017/05/27/11:53:47.352757,137889,1495857227,352556943,0,22,55,50,45,32,21,20,21
2017/05/27/11:53:47.373811,137890,1495857227,373619079,0,21,55,45,43,31,22,20,20
2017/05/27/11:53:47.396269,137891,1495857227,396106958,0,20,47,33,29,25,21,19,19
2017/05/27/11:53:47.411300,137892,1495857227,411118030,0,19,43,30,27,25,21,18,20
2017/05/27/11:53:47.433953,137893,1495857227,433634996,0,18,41,26,22,22,21,18,20
2017/05/27/11:53:47.456341,137894,1495857227,456171035,0,16,40,25,21,23,20,19,20
2017/05/27/11:53:47.471370,137895,1495857227,471108913,0,16,41,25,21,23,20,18,20
2017/05/27/11:53:47.493824,137896,1495857227,493582010,0,17,35,25,20,21,19,18,18
2017/05/27/11:53:47.524576,137897,1495857227,524264097,0,17,32,27,21,20,17,18,19
2017/05/27/11:53:47.531271,137898,1495857227,531075000,0,17,35,28,22,19,19,17,20
2017/05/27/11:53:47.553819,137899,1495857227,553627014,0,19,36,29,22,19,20,16,18
2017/05/27/11:53:47.576433,137900,1495857227,576198101,0,21,34,29,21,18,19,17,18
2017/05/27/11:53:47.591613,137901,1495857227,591339111,0,21,31,29,23,19,21,16,20
2017/05/27/11:53:47.613931,137902,1495857227,613677978,0,22,31,28,21,19,21,18,20
2017/05/27/11:53:47.638053,137903,1495857227,637756109,0,22,28,27,22,20,22,18,20
2017/05/27/11:53:47.651419,137904,1495857227,651124000,0,20,25,26,23,20,21,21,19
2017/05/27/11:53:47.673843,137905,1495857227,673597097,0,16,22,24,21,22,22,21,22
2017/05/27/11:53:47.696284,137906,1495857227,696120023,0,17,22,22,20,21,21,21,21
2017/05/27/11:53:47.711306,137907,1495857227,711112976,0,17,23,20,20,21,23,22,19
2017/05/27/11:53:47.733737,137908,1495857227,733566045,0,17,24,21,19,21,21,22,19
2017/05/27/11:53:47.756468,137909,1495857227,756211042,0,17,20,19,19,20,21,19,20
2017/05/27/11:53:47.771500,137910,1495857227,771229028,0,19,22,20,20,19,21,19,18
2017/05/27/11:53:47.802029,137911,1495857227,801817893,0,18,21,20,21,19,21,21,17
2017/05/27/11:53:47.816310,137912,1495857227,816114902,0,19,19,20,21,17,19,20,18
2017/05/27/11:53:47.838738,137913,1495857227,838562965,0,19,19,19,20,17,20,19,19
2017/05/27/11:53:47.856179,137914,1495857227,856005907,0,18,19,21,21,18,20,21,19
2017/05/27/11:53:47.876494,137915,1495857227,876244068,0,15,19,20,21,17,20,19,19
2017/05/27/11:53:47.898842,137916,1495857227,898619890,0,17,20,18,18,19,21,17,19
2017/05/27/11:53:47.913795,137917,1495857227,913580894,0,18,20,20,22,20,19,17,19
2017/05/27/11:53:47.936292,137918,1495857227,936129093,0,19,18,18,23,20,20,17,19
2017/05/27/11:53:47.958916,137919,1495857227,958667993,0,18,21,18,22,20,21,14,18
2017/05/27/11:53:47.973988,137920,1495857227,973675966,0,21,20,19,21,20,22,16,18
2017/05/27/11:53:48.001215,137921,1495857228,1010894,0,19,20,20,23,19,20,16,17
2017/05/27/11:53:48.018749,137922,1495857228,18562078,0,20,20,19,18,18,23,17,19
2017/05/27/11:53:48.033807,137923,1495857228,33600091,0,19,22,20,17,18,23,18,18
2017/05/27/11:53:48.056385,137924,1495857228,56143045,0,19,20,22,19,19,23,18,18
2017/05/27/11:53:48.078784,137925,1495857228,78583002,0,18,22,24,19,19,22,16,19
2017/05/27/11:53:48.093793,137926,1495857228,93578100,0,19,23,25,18,21,24,18,19
2017/05/27/11:53:48.116267,137927,1495857228,116077899,0,17,22,25,19,23,21,18,18
2017/05/27/11:53:48.138792,137928,1495857228,138597965,0,17,21,28,20,22,20,18,19
2017/05/27/11:53:48.154034,137929,1495857228,153780937,0,17,21,27,19,22,19,18,21
2017/05/27/11:53:48.176287,137930,1495857228,176067113,0,18,20,25,19,22,19,19,21
2017/05/27/11:53:48.198803,137931,1495857228,198605060,0,17,19,24,17,19,20,19,21
2017/05/27/11:53:48.213702,137932,1495857228,213548898,0,19,19,24,17,18,22,19,19
2017/05/27/11:53:48.245951,137933,1495857228,245749950,0,19,19,21,17,18,20,21,20
2017/05/27/11:53:48.258786,137934,1495857228,258589982,0,19,20,20,18,20,24,61,32
2017/05/27/11:53:48.273806,137935,1495857228,273612022,0,18,19,25,22,19,24,64,32
2017/05/27/11:53:48.296293,137936,1495857228,296108007,0,19,20,24,22,19,23,65,33
2017/05/27/11:53:48.319282,137937,1495857228,318654060,0,18,22,23,23,18,22,66,33
2017/05/27/11:53:48.335315,137938,1495857228,335175991,0,19,23,24,23,18,23,66,34
2017/05/27/11:53:48.356152,137939,1495857228,356014966,0,19,22,23,22,15,20,35,23
2017/05/27/11:53:48.379369,137940,1495857228,379134893,0,20,23,22,20,17,19,28,22
2017/05/27/11:53:48.393764,137941,1495857228,393573999,0,18,23,22,20,19,21,64,34
2017/05/27/11:53:48.416399,137942,1495857228,416105031,0,18,22,23,21,20,23,67,37
2017/05/27/11:53:48.439924,137943,1495857228,439758062,0,17,21,21,20,20,23,68,36
2017/05/27/11:53:48.453820,137944,1495857228,453560113,0,19,21,21,21,22,23,69,37
2017/05/27/11:53:48.476431,137945,1495857228,476164102,0,19,22,19,19,21,22,70,37
2017/05/27/11:53:48.498829,137946,1495857228,498606920,0,20,21,19,20,19,21,38,27
2017/05/27/11:53:48.513750,137947,1495857228,513546943,0,21,22,21,20,17,19,31,23
2017/05/27/11:53:48.536380,137948,1495857228,536178112,0,22,21,21,22,18,20,28,22
2017/05/27/11:53:48.558745,137949,1495857228,558594942,0,22,23,21,21,17,21,22,19
2017/05/27/11:53:48.573739,137950,1495857228,573596954,0,21,22,22,23,18,22,20,18
2017/05/27/11:53:48.596277,137951,1495857228,596106052,0,20,22,23,24,20,22,18,17
2017/05/27/11:53:48.635572,137952,1495857228,635440111,0,20,22,22,23,20,21,18,17
2017/05/27/11:53:48.636584,137953,1495857228,636492013,0,19,23,22,21,20,22,20,18
2017/05/27/11:53:48.656353,137954,1495857228,656194925,0,20,21,23,21,20,19,19,20
2017/05/27/11:53:48.678772,137955,1495857228,678594112,0,21,20,21,22,21,21,25,41
2017/05/27/11:53:48.693743,137956,1495857228,693586111,0,21,29,21,21,19,21,25,44
2017/05/27/11:53:48.716392,137957,1495857228,716135978,0,21,31,21,21,20,21,27,44
2017/05/27/11:53:48.738664,137958,1495857228,738545894,0,22,50,23,23,21,20,26,45
2017/05/27/11:53:48.753812,137959,1495857228,753648042,0,22,53,22,22,21,21,29,44
2017/05/27/11:53:48.776266,137960,1495857228,776104927,0,22,53,22,20,20,20,25,27
2017/05/27/11:53:48.799312,137961,1495857228,799119949,0,22,50,22,19,21,20,24,26
2017/05/27/11:53:48.821385,137962,1495857228,821199893,0,21,49,22,19,20,21,24,24
2017/05/27/11:53:48.836400,137963,1495857228,836194038,0,19,29,21,19,19,21,23,23
2017/05/27/11:53:48.858808,137964,1495857228,858573913,0,18,22,21,19,22,21,23,22
2017/05/27/11:53:48.881395,137965,1495857228,881216049,0,17,22,21,17,21,21,21,21
2017/05/27/11:53:48.896460,137966,1495857228,896189928,0,18,23,22,19,21,20,20,16
2017/05/27/11:53:48.918827,137967,1495857228,918597936,0,20,23,23,20,21,19,20,15
2017/05/27/11:53:48.941728,137968,1495857228,941534042,0,19,22,21,20,21,19,20,17
2017/05/27/11:53:48.964586,137969,1495857228,964292049,0,20,23,22,22,19,17,18,18
2017/05/27/11:53:48.978715,137970,1495857228,978532075,0,20,24,23,21,21,17,18,18
2017/05/27/11:53:49.001361,137971,1495857229,1137971,0,19,22,23,20,21,19,18,18
2017/05/27/11:53:49.016490,137972,1495857229,16194105,0,17,21,20,19,23,21,18,18
2017/05/27/11:53:49.038771,137973,1495857229,38583040,0,18,22,19,19,23,21,18,17
2017/05/27/11:53:49.061260,137974,1495857229,61033010,0,16,20,18,18,23,23,17,16
2017/05/27/11:53:49.077725,137975,1495857229,77572107,0,17,19,19,19,23,24,18,17
2017/05/27/11:53:49.098784,137976,1495857229,98542928,0,19,19,17,20,21,22,19,18
2017/05/27/11:53:49.121255,137977,1495857229,121094942,0,19,21,20,20,19,21,20,18
2017/05/27/11:53:49.136326,137978,1495857229,136142969,0,20,20,20,20,20,21,19,19
2017/05/27/11:53:49.158806,137979,1495857229,158581018,0,20,20,20,19,19,19,20,19
2017/05/27/11:53:49.189575,137980,1495857229,189285039,0,20,20,20,21,19,21,20,18
2017/05/27/11:53:49.196363,137981,1495857229,196096897,0,20,22,21,22,20,22,18,18
2017/05/27/11:53:49.218740,137982,1495857229,218544006,0,21,21,20,22,22,21,18,20
2017/05/27/11:53:49.249450,137983,1495857229,249264001,0,20,21,22,22,21,21,19,19
2017/05/27/11:53:49.256243,137984,1495857229,256046056,0,19,20,20,23,21,21,19,19
2017/05/27/11:53:49.278984,137985,1495857229,278690099,0,20,21,21,21,20,18,20,19
2017/05/27/11:53:49.302724,137986,1495857229,302546024,0,18,21,23,20,21,21,24,20
2017/05/27/11:53:49.316298,137987,1495857229,316107988,0,19,19,24,20,19,20,23,20
2017/05/27/11:53:49.338815,137988,1495857229,338609933,0,19,19,24,19,20,20,23,20
2017/05/27/11:53:49.361596,137989,1495857229,361284017,0,21,20,26,19,20,21,23,20
2017/05/27/11:53:49.376186,137990,1495857229,376053094,0,19,19,26,20,20,23,24,21
2017/05/27/11:53:49.398713,137991,1495857229,398560047,0,19,17,25,20,20,21,22,22
2017/05/27/11:53:49.421465,137992,1495857229,421211957,0,20,17,23,20,21,20,21,19
2017/05/27/11:53:49.436382,137993,1495857229,436125040,0,20,17,23,19,19,21,20,19
2017/05/27/11:53:49.458911,137994,1495857229,458625078,0,18,18,24,21,18,21,21,19
2017/05/27/11:53:49.481342,137995,1495857229,481112957,0,20,16,24,21,17,19,22,19
2017/05/27/11:53:49.496372,137996,1495857229,496182918,0,19,17,23,21,15,18,20,19
2017/05/27/11:53:49.520182,137997,1495857229,520044088,0,18,18,24,21,15,20,19,19
2017/05/27/11:53:49.541457,137998,1495857229,541160106,0,18,19,22,22,16,20,20,21
2017/05/27/11:53:49.556324,137999,1495857229,556126117,0,18,17,20,19,17,21,19,21
2017/05/27/11:53:49.580262,138000,1495857229,580070018,0,17,19,19,20,18,22,15,21
2017/05/27/11:53:49.601431,138001,1495857229,601123094,0,19,20,20,18,20,22,16,19
2017/05/27/11:53:49.616217,138002,1495857229,616024971,0,19,20,21,19,21,21,18,19
2017/05/27/11:53:49.638767,138003,1495857229,638592004,0,21,21,22,19,21,21,18,17
2017/05/27/11:53:49.661618,138004,1495857229,661159038,0,22,20,22,20,22,18,18,16
2017/05/27/11:53:49.676175,138005,1495857229,676059961,0,23,19,21,18,22,17,18,17
2017/05/27/11:53:49.698775,138006,1495857229,698616027,0,21,19,21,19,20,16,19,19
2017/05/27/11:53:49.721196,138007,1495857229,721055030,0,22,17,20,18,18,17,18,18
2017/05/27/11:53:49.743977,138008,1495857229,743659019,0,20,17,20,19,18,18,19,19
2017/05/27/11:53:49.758901,138009,1495857229,758646011,0,17,18,19,18,17,19,21,19
2017/05/27/11:53:49.781445,138010,1495857229,781241893,0,20,20,21,20,16,18,20,19
2017/05/27/11:53:49.803760,138011,1495857229,803545951,0,19,19,20,19,17,20,19,16
2017/05/27/11:53:49.818741,138012,1495857229,818572044,0,19,22,20,21,17,21,21,18
2017/05/27/11:53:49.841339,138013,1495857229,841156959,0,22,22,21,20,17,19,19,18
2017/05/27/11:53:49.863738,138014,1495857229,863565921,0,22,25,21,20,18,17,17,19
2017/05/27/11:53:49.878816,138015,1495857229,878660917,0,18,24,22,20,18,16,18,17
2017/05/27/11:53:49.909494,138016,1495857229,909346103,0,19,25,24,21,19,16,20,19
2017/05/27/11:53:49.923741,138017,1495857229,923563003,0,19,21,24,20,19,17,17,17
2017/05/27/11:53:49.938919,138018,1495857229,938636064,0,17,22,24,21,19,18,18,18
2017/05/27/11:53:49.969531,138019,1495857229,969377994,0,16,19,23,21,19,19,20,17
2017/05/27/11:53:49.983877,138020,1495857229,983612060,0,19,18,21,20,19,21,19,19
2017/05/27/11:53:49.998706,138021,1495857229,998562097,0,19,19,19,20,20,20,19,18
2017/05/27/11:53:50.021329,138022,1495857230,21138906,0,20,19,19,21,21,19,21,18
2017/05/27/11:53:50.043858,138023,1495857230,43622016,0,20,20,17,19,20,19,19,18
2017/05/27/11:53:50.058725,138024,1495857230,58541059,0,20,20,19,19,21,20,19,18
2017/05/27/11:53:50.081271,138025,1495857230,81099033,0,18,21,17,19,21,20,19,16
2017/05/27/11:53:50.103757,138026,1495857230,103585004,0,18,19,15,19,19,21,17,17
2017/05/27/11:53:50.118779,138027,1495857230,118582963,0,16,20,18,21,19,20,17,18
2017/05/27/11:53:50.142339,138028,1495857230,142165899,0,18,20,23,22,20,19,18,18
2017/05/27/11:53:50.163722,138029,1495857230,163564920,0,18,18,23,22,21,20,19,18
2017/05/27/11:53:50.186265,138030,1495857230,186129093,0,18,17,23,24,21,18,19,19
2017/05/27/11:53:50.201264,138031,1495857230,201102972,0,20,21,25,22,22,17,19,19
2017/05/27/11:53:50.223853,138032,1495857230,223625898,0,20,20,24,20,20,19,19,18
2017/05/27/11:53:50.240191,138033,1495857230,240045070,0,18,22,19,19,20,20,18,18
2017/05/27/11:53:50.261271,138034,1495857230,261104106,0,19,23,19,19,19,21,18,21
2017/05/27/11:53:50.292622,138035,1495857230,292423963,0,21,23,20,16,18,21,17,20
2017/05/27/11:53:50.298647,138036,1495857230,298512935,0,19,21,20,18,18,22,17,20
2017/05/27/11:53:50.321479,138037,1495857230,321182966,0,19,23,21,17,20,20,17,20
2017/05/27/11:53:50.343721,138038,1495857230,343564987,0,20,22,21,18,21,19,17,20
