time,.header.seq,.header.stamp.secs,.header.stamp.nsecs,.header.frame_id,.ch0,.ch1,.ch2,.ch3,.ch4,.ch5,.ch6,.ch7
2017/05/27/11:51:10.260774,130055,1495857070,257220029,0,291,185,208,170,97,67,117,91
2017/05/27/11:51:10.279842,130056,1495857070,279665946,0,224,193,205,176,100,71,120,90
2017/05/27/11:51:10.302425,130057,1495857070,302253007,0,275,272,260,207,104,70,124,100
2017/05/27/11:51:10.324893,130058,1495857070,324693918,0,454,387,332,247,128,71,116,128
2017/05/27/11:51:10.339881,130059,1495857070,339668035,0,471,475,347,262,137,92,122,113
2017/05/27/11:51:10.362338,130060,1495857070,362152099,0,453,480,350,267,144,97,97,109
2017/05/27/11:51:10.377323,130061,1495857070,377159118,0,471,540,433,344,180,113,102,111
2017/05/27/11:51:10.408759,130062,1495857070,407912015,0,465,560,397,330,183,114,97,108
2017/05/27/11:51:10.422349,130063,1495857070,422159910,0,319,567,379,338,171,110,93,78
2017/05/27/11:51:10.437480,130064,1495857070,437190055,0,398,604,412,375,170,94,77,83
2017/05/27/11:51:10.459840,130065,1495857070,459640026,0,435,624,430,378,171,96,71,86
2017/05/27/11:51:10.482343,130066,1495857070,482140064,0,448,627,393,332,131,76,60,84
2017/05/27/11:51:10.497310,130067,1495857070,497153997,0,463,654,386,309,110,73,60,80
2017/05/27/11:51:10.519958,130068,1495857070,519701957,0,475,607,377,277,113,71,57,78
2017/05/27/11:51:10.542344,130069,1495857070,542164087,0,482,558,343,222,114,84,66,71
2017/05/27/11:51:10.557312,130070,1495857070,557153940,0,562,618,365,251,138,93,70,79
2017/05/27/11:51:10.579817,130071,1495857070,579652070,0,568,602,318,233,167,97,71,84
2017/05/27/11:51:10.602340,130072,1495857070,602183103,0,632,553,317,235,180,97,69,97
2017/05/27/11:51:10.626387,130073,1495857070,626142024,0,725,657,319,248,181,98,72,123
2017/05/27/11:51:10.639847,130074,1495857070,639672040,0,715,653,385,281,196,92,65,123
2017/05/27/11:51:10.662385,130075,1495857070,662184953,0,648,607,427,295,186,85,56,116
2017/05/27/11:51:10.684860,130076,1495857070,684664011,0,676,614,448,298,182,92,59,118
2017/05/27/11:51:10.699862,130077,1495857070,699676990,0,631,619,433,297,173,97,63,112
2017/05/27/11:51:10.738194,130078,1495857070,737905979,0,582,571,483,326,180,97,65,103
2017/05/27/11:51:10.744955,130079,1495857070,744640111,0,676,625,436,298,163,95,64,120
2017/05/27/11:51:10.759889,130080,1495857070,759691953,0,704,605,414,289,174,104,69,124
2017/05/27/11:51:10.790557,130081,1495857070,790405988,0,802,589,408,296,149,98,67,135
2017/05/27/11:51:10.805186,130082,1495857070,804754018,0,828,597,445,305,149,102,69,147
2017/05/27/11:51:10.819852,130083,1495857070,819669008,0,846,590,384,264,135,104,65,137
2017/05/27/11:51:10.850560,130084,1495857070,850353002,0,761,493,377,264,139,106,63,121
2017/05/27/11:51:10.864877,130085,1495857070,864692926,0,772,494,328,224,117,102,63,116
2017/05/27/11:51:10.879909,130086,1495857070,879669904,0,716,484,431,295,137,101,61,111
2017/05/27/11:51:10.904188,130087,1495857070,904043912,0,685,523,390,274,133,92,57,99
2017/05/27/11:51:10.926221,130088,1495857070,924729108,0,659,458,394,283,142,98,59,99
2017/05/27/11:51:10.939888,130089,1495857070,939640998,0,686,453,439,306,158,104,66,105
2017/05/27/11:51:10.963854,130090,1495857070,963650941,0,677,448,434,314,156,98,61,110
2017/05/27/11:51:10.985045,130091,1495857070,984750986,0,640,495,352,246,147,96,63,114
2017/05/27/11:51:11.000246,130092,1495857070,999927997,0,649,468,373,261,153,98,63,114
2017/05/27/11:51:11.022406,130093,1495857071,22206068,0,667,485,413,267,147,91,61,117
2017/05/27/11:51:11.044947,130094,1495857071,44720888,0,666,505,363,240,146,86,57,116
2017/05/27/11:51:11.067417,130095,1495857071,67198991,0,650,539,375,237,135,88,61,114
2017/05/27/11:51:11.083862,130096,1495857071,83633899,0,704,513,379,257,141,98,66,117
2017/05/27/11:51:11.104898,130097,1495857071,104695081,0,772,501,419,312,164,110,73,128
2017/05/27/11:51:11.127352,130098,1495857071,127173900,0,725,495,383,316,172,118,75,124
2017/05/27/11:51:11.144272,130099,1495857071,144093990,0,700,474,385,317,151,110,71,122
2017/05/27/11:51:11.164828,130100,1495857071,164642095,0,699,510,395,323,162,103,79,125
2017/05/27/11:51:11.187413,130101,1495857071,187181949,0,639,511,387,295,159,93,73,111
2017/05/27/11:51:11.203923,130102,1495857071,203636884,0,574,464,327,223,130,77,65,92
2017/05/27/11:51:11.241183,130103,1495857071,240963935,0,544,494,291,190,118,61,65,87
2017/05/27/11:51:11.247463,130104,1495857071,247286081,0,513,518,353,233,144,65,70,84
2017/05/27/11:51:11.263860,130105,1495857071,263647079,0,561,465,402,230,135,66,61,100
2017/05/27/11:51:11.284919,130106,1495857071,284694910,0,501,465,396,233,140,72,62,100
2017/05/27/11:51:11.307430,130107,1495857071,307193040,0,409,490,411,252,168,82,69,98
2017/05/27/11:51:11.323792,130108,1495857071,323636054,0,424,539,460,283,175,80,68,99
2017/05/27/11:51:11.344994,130109,1495857071,344738960,0,453,528,445,255,155,83,61,100
2017/05/27/11:51:11.368849,130110,1495857071,368659019,0,426,555,380,245,158,86,58,93
2017/05/27/11:51:11.384298,130111,1495857071,384108066,0,409,516,389,254,148,81,60,90
2017/05/27/11:51:11.405051,130112,1495857071,404736042,0,437,541,435,290,130,85,61,90
2017/05/27/11:51:11.427438,130113,1495857071,427181959,0,480,532,395,266,123,86,58,91
2017/05/27/11:51:11.444020,130114,1495857071,443631887,0,491,626,399,274,116,78,57,89
2017/05/27/11:51:11.464834,130115,1495857071,464662075,0,425,637,463,300,118,77,61,82
2017/05/27/11:51:11.487373,130116,1495857071,487181901,0,447,682,451,307,140,88,67,89
2017/05/27/11:51:11.511363,130117,1495857071,511142969,0,454,640,407,269,133,73,59,93
2017/05/27/11:51:11.524867,130118,1495857071,524673938,0,470,587,400,262,132,75,61,105
2017/05/27/11:51:11.548855,130119,1495857071,548666000,0,423,558,443,283,161,81,64,110
2017/05/27/11:51:11.571460,130120,1495857071,571161985,0,514,525,399,255,166,80,59,111
2017/05/27/11:51:11.584865,130121,1495857071,584646940,0,497,510,423,252,156,73,54,109
2017/05/27/11:51:11.607349,130122,1495857071,607145071,0,472,507,456,259,159,79,54,106
2017/05/27/11:51:11.624240,130123,1495857071,624042987,0,446,586,467,259,156,80,54,104
2017/05/27/11:51:11.645114,130124,1495857071,644740104,0,458,510,382,216,126,73,51,99
2017/05/27/11:51:11.667343,130125,1495857071,667171955,0,376,525,410,253,143,93,56,100
2017/05/27/11:51:11.683843,130126,1495857071,683653116,0,370,566,393,252,155,93,52,95
2017/05/27/11:51:11.706527,130127,1495857071,706147909,0,374,606,404,262,163,92,50,93
2017/05/27/11:51:11.735142,130128,1495857071,734703063,0,322,598,470,283,167,88,50,78
2017/05/27/11:51:11.744111,130129,1495857071,743662118,0,299,602,472,281,177,94,52,75
2017/05/27/11:51:11.766361,130130,1495857071,766079902,0,278,550,418,248,151,75,45,65
2017/05/27/11:51:11.788846,130131,1495857071,788665056,0,273,475,402,240,139,80,45,64
2017/05/27/11:51:11.804078,130132,1495857071,803628921,0,377,421,338,207,122,75,44,63
2017/05/27/11:51:11.826286,130133,1495857071,826096057,0,395,291,246,187,133,77,47,66
2017/05/27/11:51:11.849114,130134,1495857071,848699092,0,431,261,279,210,140,101,47,64
2017/05/27/11:51:11.864478,130135,1495857071,864108085,0,422,283,298,218,146,101,47,57
2017/05/27/11:51:11.886302,130136,1495857071,886110067,0,439,366,397,240,140,94,44,53
2017/05/27/11:51:11.907353,130137,1495857071,907166004,0,341,369,404,237,137,96,45,52
2017/05/27/11:51:11.930240,130138,1495857071,929797887,0,290,356,388,222,122,98,41,45
2017/05/27/11:51:11.946309,130139,1495857071,946099996,0,214,397,376,208,108,72,43,47
2017/05/27/11:51:11.967427,130140,1495857071,967194080,0,191,422,362,196,107,75,44,47
2017/05/27/11:51:11.989854,130141,1495857071,989665985,0,136,350,268,157,107,74,46,49
2017/05/27/11:51:12.006307,130142,1495857072,6125926,0,116,354,341,206,116,80,54,59
2017/05/27/11:51:12.027476,130143,1495857072,27223110,0,98,351,374,212,121,89,58,63
2017/05/27/11:51:12.049872,130144,1495857072,49670934,0,101,450,413,224,122,87,56,63
2017/05/27/11:51:12.067024,130145,1495857072,66735029,0,99,486,414,217,129,96,58,62
2017/05/27/11:51:12.087342,130146,1495857072,87157011,0,109,560,424,218,128,97,60,64
2017/05/27/11:51:12.110118,130147,1495857072,109714984,0,105,600,373,188,123,97,58,55
2017/05/27/11:51:12.126319,130148,1495857072,126128911,0,105,657,336,185,118,95,54,51
2017/05/27/11:51:12.147669,130149,1495857072,147161960,0,95,586,293,169,121,104,54,50
2017/05/27/11:51:12.177341,130150,1495857072,177170038,0,104,591,326,187,137,102,53,61
2017/05/27/11:51:12.186300,130151,1495857072,186104059,0,126,645,553,328,210,112,63,69
2017/05/27/11:51:12.207360,130152,1495857072,207139968,0,133,648,577,326,222,124,64,74
2017/05/27/11:51:12.237699,130153,1495857072,237168073,0,134,622,577,326,229,124,68,78
2017/05/27/11:51:12.246325,130154,1495857072,246117115,0,135,614,567,331,237,138,75,79
2017/05/27/11:51:12.267270,130155,1495857072,267107963,0,135,629,559,329,235,134,80,72
2017/05/27/11:51:12.290020,130156,1495857072,289738893,0,118,540,357,253,214,154,73,64
2017/05/27/11:51:12.306364,130157,1495857072,306077957,0,134,599,355,275,214,151,72,64
2017/05/27/11:51:12.327509,130158,1495857072,327294111,0,133,570,361,275,210,147,69,59
2017/05/27/11:51:12.349845,130159,1495857072,349664926,0,135,573,358,261,195,131,65,57
2017/05/27/11:51:12.366503,130160,1495857072,366123914,0,129,580,381,274,185,131,71,66
2017/05/27/11:51:12.387325,130161,1495857072,387161016,0,125,564,395,250,139,98,68,64
2017/05/27/11:51:12.412679,130162,1495857072,409759998,0,97,452,390,222,126,93,63,60
2017/05/27/11:51:12.426370,130163,1495857072,426198005,0,107,510,415,225,145,96,68,64
2017/05/27/11:51:12.447334,130164,1495857072,447137117,0,103,518,424,229,153,95,67,63
2017/05/27/11:51:12.469872,130165,1495857072,469671010,0,113,453,402,225,167,99,69,73
2017/05/27/11:51:12.486320,130166,1495857072,486124038,0,116,485,412,223,183,111,82,80
2017/05/27/11:51:12.507433,130167,1495857072,507142066,0,123,539,377,217,179,105,83,80
2017/05/27/11:51:12.531355,130168,1495857072,531157970,0,120,479,362,233,166,112,85,85
2017/05/27/11:51:12.546292,130169,1495857072,546124935,0,125,509,370,236,162,112,86,86
2017/05/27/11:51:12.567378,130170,1495857072,567183017,0,115,568,427,300,162,117,77,73
2017/05/27/11:51:12.591663,130171,1495857072,591465950,0,106,546,368,278,149,105,65,64
2017/05/27/11:51:12.606306,130172,1495857072,606122016,0,100,492,358,282,153,102,63,70
2017/05/27/11:51:12.627902,130173,1495857072,627237081,0,95,513,348,277,172,97,58,62
2017/05/27/11:51:12.649827,130174,1495857072,649636983,0,87,498,413,309,178,91,58,66
2017/05/27/11:51:12.666302,130175,1495857072,666121006,0,79,408,385,255,175,81,55,66
2017/05/27/11:51:12.694970,130176,1495857072,694698095,0,84,392,379,253,171,86,59,69
2017/05/27/11:51:12.710238,130177,1495857072,710036039,0,94,441,390,257,169,84,60,65
2017/05/27/11:51:12.726356,130178,1495857072,726134061,0,118,515,401,261,148,73,55,68
2017/05/27/11:51:12.748812,130179,1495857072,748619079,0,123,555,374,218,147,73,56,68
2017/05/27/11:51:12.770045,130180,1495857072,769753932,0,136,562,384,217,147,81,58,70
2017/05/27/11:51:12.786363,130181,1495857072,786072969,0,138,590,380,204,145,86,54,75
2017/05/27/11:51:12.807363,130182,1495857072,807166099,0,134,586,430,212,142,83,54,75
2017/05/27/11:51:12.829842,130183,1495857072,829664945,0,113,539,436,225,155,94,57,74
2017/05/27/11:51:12.846440,130184,1495857072,846117973,0,111,488,398,220,160,123,57,70
2017/05/27/11:51:12.867336,130185,1495857072,867175102,0,95,468,357,203,161,116,56,67
2017/05/27/11:51:12.889885,130186,1495857072,889698982,0,123,413,369,228,162,108,55,62
2017/05/27/11:51:12.906353,130187,1495857072,906116962,0,134,406,311,214,169,114,59,63
2017/05/27/11:51:12.927277,130188,1495857072,927115917,0,148,419,289,199,210,129,85,81
2017/05/27/11:51:12.951343,130189,1495857072,951105117,0,158,428,300,228,243,116,84,89
2017/05/27/11:51:12.966273,130190,1495857072,966078996,0,178,497,372,258,236,115,84,90
2017/05/27/11:51:12.987321,130191,1495857072,987133026,0,155,518,362,256,237,121,85,88
2017/05/27/11:51:13.009895,130192,1495857073,9691953,0,141,521,359,265,245,126,83,88
2017/05/27/11:51:13.026282,130193,1495857073,26093959,0,129,470,362,272,212,111,65,76
2017/05/27/11:51:13.047419,130194,1495857073,47195911,0,121,469,434,292,165,95,61,66
2017/05/27/11:51:13.069871,130195,1495857073,69689989,0,97,431,363,271,180,95,58,63
2017/05/27/11:51:13.086347,130196,1495857073,86078882,0,99,449,359,263,195,94,60,63
2017/05/27/11:51:13.107624,130197,1495857073,107254028,0,99,405,357,271,198,110,58,60
2017/05/27/11:51:13.129851,130198,1495857073,129667043,0,123,442,407,308,211,117,54,57
2017/05/27/11:51:13.149648,130199,1495857073,149363040,0,124,536,345,279,215,158,80,67
2017/05/27/11:51:13.167530,130200,1495857073,167265892,0,131,579,366,267,201,160,85,71
2017/05/27/11:51:13.189836,130201,1495857073,189652919,0,132,557,366,270,193,157,87,71
2017/05/27/11:51:13.206329,130202,1495857073,206134080,0,142,564,359,259,176,140,86,75
2017/05/27/11:51:13.227342,130203,1495857073,227165937,0,120,540,295,184,147,133,81,69
2017/05/27/11:51:13.249852,130204,1495857073,249650955,0,120,452,290,182,133,83,58,63
2017/05/27/11:51:13.266344,130205,1495857073,266133069,0,106,358,259,184,135,83,59,67
2017/05/27/11:51:13.287308,130206,1495857073,287136077,0,114,411,284,226,173,86,56,70
2017/05/27/11:51:13.311460,130207,1495857073,311116933,0,111,506,335,240,171,84,57,72
2017/05/27/11:51:13.326352,130208,1495857073,326148033,0,115,519,351,247,183,96,60,78
2017/05/27/11:51:13.347461,130209,1495857073,347239971,0,108,541,367,250,191,98,60,76
2017/05/27/11:51:13.369833,130210,1495857073,369651079,0,110,569,378,263,197,94,54,69
2017/05/27/11:51:13.386320,130211,1495857073,386157989,0,97,535,355,216,145,88,52,63
2017/05/27/11:51:13.407326,130212,1495857073,407146930,0,90,458,307,180,163,107,54,56
2017/05/27/11:51:13.429816,130213,1495857073,429640054,0,102,501,293,176,151,92,52,49
2017/05/27/11:51:13.454468,130214,1495857073,454297065,0,108,518,244,166,144,92,56,56
2017/05/27/11:51:13.470476,130215,1495857073,470279932,0,106,539,269,170,135,95,62,62
2017/05/27/11:51:13.489791,130216,1495857073,489630937,0,106,547,266,167,144,114,66,66
2017/05/27/11:51:13.512337,130217,1495857073,512140989,0,111,581,291,182,139,101,66,66
2017/05/27/11:51:13.529279,130218,1495857073,529088973,0,93,545,366,236,159,105,68,72
2017/05/27/11:51:13.549798,130219,1495857073,549621105,0,93,527,365,230,158,108,65,69
2017/05/27/11:51:13.572504,130220,1495857073,572215080,0,116,535,335,208,167,107,60,64
2017/05/27/11:51:13.588781,130221,1495857073,588601112,0,117,532,359,226,169,87,59,70
2017/05/27/11:51:13.609904,130222,1495857073,609678030,0,113,468,350,231,154,81,57,75
2017/05/27/11:51:13.632358,130223,1495857073,632169961,0,116,457,279,202,144,81,54,74
2017/05/27/11:51:13.648850,130224,1495857073,648672103,0,120,388,266,212,149,76,54,75
2017/05/27/11:51:13.677368,130225,1495857073,677141904,0,104,341,276,214,139,79,54,78
2017/05/27/11:51:13.692329,130226,1495857073,692154884,0,100,311,245,210,134,82,47,69
2017/05/27/11:51:13.708829,130227,1495857073,708642959,0,96,356,270,211,137,105,49,65
2017/05/27/11:51:13.731319,130228,1495857073,731116056,0,100,351,248,183,142,110,50,69
2017/05/27/11:51:13.753852,130229,1495857073,753643035,0,106,371,249,167,141,113,52,66
2017/05/27/11:51:13.768797,130230,1495857073,768630027,0,111,392,238,167,149,118,54,66
2017/05/27/11:51:13.789887,130231,1495857073,789683103,0,123,481,341,189,154,117,58,67
2017/05/27/11:51:13.812353,130232,1495857073,812164068,0,126,487,319,174,153,101,61,71
2017/05/27/11:51:13.828931,130233,1495857073,828697919,0,118,506,331,191,133,96,58,64
2017/05/27/11:51:13.850144,130234,1495857073,849725008,0,106,489,319,190,129,92,56,70
2017/05/27/11:51:13.872545,130235,1495857073,872191905,0,105,466,331,206,128,84,61,72
2017/05/27/11:51:13.888800,130236,1495857073,888607978,0,106,372,245,194,122,95,71,86
2017/05/27/11:51:13.909899,130237,1495857073,909672021,0,105,353,258,200,129,100,73,84
2017/05/27/11:51:13.932601,130238,1495857073,932192087,0,106,327,256,183,126,106,77,86
2017/05/27/11:51:13.956682,130239,1495857073,956151008,0,110,360,296,209,143,107,79,81
2017/05/27/11:51:13.970119,130240,1495857073,969669103,0,105,337,294,206,136,103,75,75
2017/05/27/11:51:13.992336,130241,1495857073,992132902,0,97,346,276,185,133,92,64,61
2017/05/27/11:51:14.008937,130242,1495857074,8586883,0,103,334,245,179,129,90,55,57
2017/05/27/11:51:14.029942,130243,1495857074,29735088,0,109,336,236,175,123,73,49,52
2017/05/27/11:51:14.052553,130244,1495857074,52246093,0,105,324,190,154,115,80,52,50
2017/05/27/11:51:14.068753,130245,1495857074,68584918,0,101,322,162,140,112,93,62,61
2017/05/27/11:51:14.090172,130246,1495857074,89719057,0,98,303,173,139,113,97,63,61
2017/05/27/11:51:14.112675,130247,1495857074,112200975,0,87,315,182,139,119,101,66,61
2017/05/27/11:51:14.128834,130248,1495857074,128642082,0,78,327,163,140,130,111,65,59
2017/05/27/11:51:14.149828,130249,1495857074,149657011,0,89,380,281,173,127,108,64,63
2017/05/27/11:51:14.179952,130250,1495857074,179681062,0,88,455,299,173,127,99,54,54
2017/05/27/11:51:14.188841,130251,1495857074,188641071,0,88,455,297,175,128,98,52,51
2017/05/27/11:51:14.210185,130252,1495857074,209712982,0,94,445,314,175,115,82,48,47
2017/05/27/11:51:14.232297,130253,1495857074,232124090,0,99,448,352,212,119,73,52,47
2017/05/27/11:51:14.248960,130254,1495857074,248689889,0,102,486,290,200,124,80,52,49
2017/05/27/11:51:14.269817,130255,1495857074,269649028,0,100,457,281,197,125,86,54,51
2017/05/27/11:51:14.292322,130256,1495857074,292135000,0,104,472,285,196,127,91,54,50
2017/05/27/11:51:14.308807,130257,1495857074,308633089,0,117,538,288,203,132,101,59,56
2017/05/27/11:51:14.329767,130258,1495857074,329622030,0,122,580,248,162,121,101,58,61
2017/05/27/11:51:14.352371,130259,1495857074,352163076,0,123,531,236,140,110,91,55,58
2017/05/27/11:51:14.368865,130260,1495857074,368594884,0,131,511,226,151,120,84,50,56
2017/05/27/11:51:14.389807,130261,1495857074,389614105,0,132,499,214,174,121,77,51,56
2017/05/27/11:51:14.412631,130262,1495857074,412137031,0,119,437,190,159,121,66,46,53
2017/05/27/11:51:14.434792,130263,1495857074,434621095,0,122,396,218,194,120,70,47,53
2017/05/27/11:51:14.449924,130264,1495857074,449701070,0,106,363,202,194,118,69,46,51
2017/05/27/11:51:14.472397,130265,1495857074,472135066,0,99,364,248,197,104,66,51,56
2017/05/27/11:51:14.494874,130266,1495857074,494657039,0,102,424,266,183,102,67,51,58
2017/05/27/11:51:14.510071,130267,1495857074,509766101,0,107,419,268,184,89,64,49,56
2017/05/27/11:51:14.532549,130268,1495857074,532238006,0,102,386,247,159,94,60,47,55
2017/05/27/11:51:14.555037,130269,1495857074,554817914,0,103,405,255,173,124,64,46,55
2017/05/27/11:51:14.569840,130270,1495857074,569663047,0,103,427,211,163,129,66,42,50
2017/05/27/11:51:14.592348,130271,1495857074,592132091,0,98,407,185,154,125,64,40,48
2017/05/27/11:51:14.614886,130272,1495857074,614665985,0,91,387,167,151,126,69,39,45
2017/05/27/11:51:14.629844,130273,1495857074,629678010,0,93,401,196,147,119,63,35,40
2017/05/27/11:51:14.652524,130274,1495857074,652249097,0,92,376,184,118,96,68,45,44
2017/05/27/11:51:14.674893,130275,1495857074,674694061,0,90,362,188,112,88,74,47,42
2017/05/27/11:51:14.689856,130276,1495857074,689647912,0,87,339,192,120,102,74,48,43
2017/05/27/11:51:14.712306,130277,1495857074,712114095,0,81,378,238,127,100,71,51,46
2017/05/27/11:51:14.736347,130278,1495857074,736148118,0,76,384,230,121,100,72,52,47
2017/05/27/11:51:14.751481,130279,1495857074,751185894,0,75,461,235,150,113,66,48,41
2017/05/27/11:51:14.772326,130280,1495857074,772145032,0,66,441,236,152,112,71,48,40
2017/05/27/11:51:14.794830,130281,1495857074,794641017,0,75,469,251,175,105,73,48,39
2017/05/27/11:51:14.811330,130282,1495857074,811120033,0,82,453,262,196,116,86,56,51
2017/05/27/11:51:14.832311,130283,1495857074,832150936,0,92,461,268,204,122,90,57,53
2017/05/27/11:51:14.854901,130284,1495857074,854671955,0,95,391,270,199,112,93,57,61
2017/05/27/11:51:14.872000,130285,1495857074,871789932,0,111,448,323,223,124,90,66,66
2017/05/27/11:51:14.892365,130286,1495857074,892162084,0,106,421,335,210,124,93,65,66
2017/05/27/11:51:14.914833,130287,1495857074,914638042,0,103,426,296,188,118,92,60,57
2017/05/27/11:51:14.931313,130288,1495857074,931108951,0,90,403,271,180,113,87,58,53
2017/05/27/11:51:14.952322,130289,1495857074,952125072,0,93,391,266,163,108,78,53,45
2017/05/27/11:51:14.974853,130290,1495857074,974644899,0,79,303,200,131,104,81,41,39
2017/05/27/11:51:14.991317,130291,1495857074,991110086,0,86,291,170,118,95,75,42,40
2017/05/27/11:51:15.013778,130292,1495857075,13596057,0,90,297,181,143,97,63,37,37
2017/05/27/11:51:15.034844,130293,1495857075,34657955,0,103,375,217,142,97,61,38,39
2017/05/27/11:51:15.053586,130294,1495857075,53287029,0,105,419,245,156,119,75,38,40
2017/05/27/11:51:15.072430,130295,1495857075,72141885,0,108,417,284,180,120,68,46,51
2017/05/27/11:51:15.094786,130296,1495857075,94603061,0,111,427,274,197,125,76,44,52
2017/05/27/11:51:15.111253,130297,1495857075,111089944,0,106,403,292,190,127,80,46,55
2017/05/27/11:51:15.132496,130298,1495857075,132205009,0,92,327,277,198,134,84,47,56
2017/05/27/11:51:15.154819,130299,1495857075,154654979,0,85,317,261,190,108,71,47,56
2017/05/27/11:51:15.171379,130300,1495857075,171099901,0,82,336,214,167,108,66,36,46
2017/05/27/11:51:15.192483,130301,1495857075,192212104,0,73,351,235,165,132,66,44,51
2017/05/27/11:51:15.214775,130302,1495857075,214617013,0,78,407,226,170,141,70,48,51
2017/05/27/11:51:15.231264,130303,1495857075,231076955,0,88,462,253,182,135,67,50,51
2017/05/27/11:51:15.252382,130304,1495857075,252103090,0,93,462,260,186,136,72,49,53
2017/05/27/11:51:15.274788,130305,1495857075,274601936,0,94,479,263,186,128,72,50,54
2017/05/27/11:51:15.291341,130306,1495857075,291121959,0,98,484,254,190,105,61,44,50
2017/05/27/11:51:15.312327,130307,1495857075,312122106,0,94,439,244,174,85,54,39,51
2017/05/27/11:51:15.334795,130308,1495857075,334614038,0,93,413,208,149,81,58,39,51
2017/05/27/11:51:15.357591,130309,1495857075,357259035,0,89,411,208,144,88,55,40,47
2017/05/27/11:51:15.372295,130310,1495857075,372111082,0,86,400,227,146,89,56,39,45
2017/05/27/11:51:15.394839,130311,1495857075,394623994,0,89,420,307,168,102,64,41,47
2017/05/27/11:51:15.417318,130312,1495857075,417113065,0,101,422,322,186,103,62,41,48
2017/05/27/11:51:15.432579,130313,1495857075,432248115,0,92,377,331,187,103,66,40,47
2017/05/27/11:51:15.454889,130314,1495857075,454592943,0,87,334,328,184,95,65,41,48
2017/05/27/11:51:15.477649,130315,1495857075,477230072,0,93,329,333,208,118,67,41,47
2017/05/27/11:51:15.492352,130316,1495857075,492151975,0,86,324,260,167,99,61,39,41
2017/05/27/11:51:15.514986,130317,1495857075,514710903,0,75,342,232,152,99,66,39,36
2017/05/27/11:51:15.537436,130318,1495857075,537219047,0,73,376,215,146,103,62,43,44
2017/05/27/11:51:15.552308,130319,1495857075,552139043,0,83,454,309,210,124,78,53,50
2017/05/27/11:51:15.574906,130320,1495857075,574692964,0,80,481,309,193,103,75,52,51
2017/05/27/11:51:15.597300,130321,1495857075,597146034,0,77,426,305,200,109,76,55,56
2017/05/27/11:51:15.612362,130322,1495857075,612145900,0,89,459,338,210,109,73,57,58
2017/05/27/11:51:15.634922,130323,1495857075,634639978,0,96,437,343,221,112,70,55,54
2017/05/27/11:51:15.657378,130324,1495857075,657180070,0,94,379,269,191,91,51,46,48
2017/05/27/11:51:15.672323,130325,1495857075,672126054,0,96,371,282,207,96,54,46,50
2017/05/27/11:51:15.695045,130326,1495857075,694749116,0,98,393,305,203,95,56,45,45
2017/05/27/11:51:15.725514,130327,1495857075,725306987,0,94,406,272,187,91,58,44,41
2017/05/27/11:51:15.732460,130328,1495857075,732207059,0,87,421,288,198,86,58,39,41
2017/05/27/11:51:15.754847,130329,1495857075,754648923,0,80,411,302,189,81,56,40,43
2017/05/27/11:51:15.777450,130330,1495857075,777179956,0,86,457,281,152,76,59,45,44
2017/05/27/11:51:15.799904,130331,1495857075,799691915,0,86,454,256,156,88,63,47,46
2017/05/27/11:51:15.814742,130332,1495857075,814589977,0,76,420,258,170,105,71,49,48
2017/05/27/11:51:15.837280,130333,1495857075,837111949,0,84,451,249,158,103,71,50,47
2017/05/27/11:51:15.852302,130334,1495857075,852118968,0,91,508,258,161,109,76,51,49
2017/05/27/11:51:15.875000,130335,1495857075,874732017,0,82,473,239,170,113,77,49,46
2017/05/27/11:51:15.897283,130336,1495857075,897098064,0,77,479,257,177,102,77,44,44
2017/05/27/11:51:15.912477,130337,1495857075,912130117,0,79,481,266,187,113,74,43,45
2017/05/27/11:51:15.934813,130338,1495857075,934619903,0,82,495,281,193,118,77,43,48
2017/05/27/11:51:15.958937,130339,1495857075,958625078,0,88,455,247,184,116,72,42,47
2017/05/27/11:51:15.972417,130340,1495857075,972202062,0,84,439,269,206,120,66,40,48
2017/05/27/11:51:16.002366,130341,1495857076,2142906,0,97,564,312,249,149,88,56,57
2017/05/27/11:51:16.017280,130342,1495857076,17126083,0,97,549,304,241,132,85,55,55
2017/05/27/11:51:16.032333,130343,1495857076,32147884,0,91,536,287,230,127,82,52,52
2017/05/27/11:51:16.055047,130344,1495857076,54727077,0,78,521,298,232,131,84,52,51
2017/05/27/11:51:16.077275,130345,1495857076,77095031,0,81,554,297,215,127,88,53,49
2017/05/27/11:51:16.093787,130346,1495857076,93597888,0,68,421,235,158,90,59,35,38
2017/05/27/11:51:16.122410,130347,1495857076,122142076,0,65,420,230,149,99,61,38,38
2017/05/27/11:51:16.137591,130348,1495857076,137234926,0,71,404,226,150,101,69,50,48
2017/05/27/11:51:16.153778,130349,1495857076,153568983,0,72,408,209,151,110,75,51,49
2017/05/27/11:51:16.174994,130350,1495857076,174659967,0,71,323,178,137,106,75,51,56
2017/05/27/11:51:16.197249,130351,1495857076,197084903,0,69,353,175,125,102,74,51,57
2017/05/27/11:51:16.213989,130352,1495857076,213665008,0,69,337,174,131,120,74,47,55
2017/05/27/11:51:16.235209,130353,1495857076,234564065,0,65,304,158,123,133,71,36,46
2017/05/27/11:51:16.257278,130354,1495857076,257092952,0,73,368,158,130,130,66,39,45
2017/05/27/11:51:16.273757,130355,1495857076,273569107,0,82,418,176,154,170,63,39,37
2017/05/27/11:51:16.295268,130356,1495857076,294715881,0,85,399,175,162,172,67,41,36
2017/05/27/11:51:16.324961,130357,1495857076,324706077,0,88,444,170,157,175,74,47,37
2017/05/27/11:51:16.339887,130358,1495857076,339689970,0,86,499,169,164,186,76,50,38
2017/05/27/11:51:16.354783,130359,1495857076,354553937,0,81,460,153,150,184,79,49,37
2017/05/27/11:51:16.377635,130360,1495857076,377219915,0,75,427,128,131,161,77,50,41
2017/05/27/11:51:16.407778,130361,1495857076,407563924,0,74,407,126,150,204,87,50,41
2017/05/27/11:51:16.416339,130362,1495857076,416142940,0,95,422,163,180,205,88,53,46
2017/05/27/11:51:16.437505,130363,1495857076,437145948,0,105,392,183,192,204,83,51,65
2017/05/27/11:51:16.459918,130364,1495857076,459676027,0,108,407,216,221,215,85,58,73
2017/05/27/11:51:16.474875,130365,1495857076,474622011,0,110,412,226,225,207,85,56,72
2017/05/27/11:51:16.497374,130366,1495857076,497189044,0,112,413,237,232,167,74,55,74
2017/05/27/11:51:16.519711,130367,1495857076,519582986,0,103,354,223,224,147,63,54,82
2017/05/27/11:51:16.535133,130368,1495857076,534590005,0,100,329,246,216,124,58,52,78
2017/05/27/11:51:16.564909,130369,1495857076,564692020,0,119,329,266,238,127,53,58,87
2017/05/27/11:51:16.579787,130370,1495857076,579617023,0,137,376,294,252,152,59,62,95
2017/05/27/11:51:16.602548,130371,1495857076,602231979,0,145,433,293,250,158,61,64,94
2017/05/27/11:51:16.617372,130372,1495857076,617197990,0,145,469,297,246,156,58,58,87
2017/05/27/11:51:16.640025,130373,1495857076,639739990,0,153,495,296,305,247,85,68,100
2017/05/27/11:51:16.654957,130374,1495857076,654756069,0,152,482,269,280,244,83,73,130
2017/05/27/11:51:16.677429,130375,1495857076,677223920,0,140,437,240,265,233,82,74,128
2017/05/27/11:51:16.699786,130376,1495857076,699644088,0,127,373,225,250,229,79,72,131
2017/05/27/11:51:16.714825,130377,1495857076,714632034,0,124,319,212,244,231,81,73,133
2017/05/27/11:51:16.737305,130378,1495857076,737162113,0,114,327,186,159,132,61,65,118
2017/05/27/11:51:16.759748,130379,1495857076,759617090,0,93,331,158,122,111,57,53,71
2017/05/27/11:51:16.774781,130380,1495857076,774626016,0,76,315,136,108,94,50,83,80
2017/05/27/11:51:16.797289,130381,1495857076,797100067,0,78,335,132,98,86,49,105,79
2017/05/27/11:51:16.819974,130382,1495857076,819677114,0,112,375,125,82,68,83,181,84
2017/05/27/11:51:16.835130,130383,1495857076,834609031,0,143,364,106,65,50,81,186,88
2017/05/27/11:51:16.857257,130384,1495857076,857119083,0,146,348,110,65,55,81,188,86
2017/05/27/11:51:16.879819,130385,1495857076,879652976,0,153,348,109,61,53,82,177,71
2017/05/27/11:51:16.896304,130386,1495857076,896128892,0,151,327,108,57,54,83,167,65
2017/05/27/11:51:16.917364,130387,1495857076,917154073,0,126,278,97,53,48,43,79,54
2017/05/27/11:51:16.939781,130388,1495857076,939594030,0,81,260,86,54,51,37,72,48
2017/05/27/11:51:16.957050,130389,1495857076,956424951,0,73,265,71,45,40,37,63,77
2017/05/27/11:51:16.977216,130390,1495857076,977099895,0,68,276,74,43,36,33,59,80
2017/05/27/11:51:16.999804,130391,1495857076,999644041,0,72,303,82,40,37,29,51,79
2017/05/27/11:51:17.016227,130392,1495857077,16069889,0,70,316,82,41,36,27,48,77
2017/05/27/11:51:17.037335,130393,1495857077,37180900,0,64,260,70,40,30,27,37,76
2017/05/27/11:51:17.059745,130394,1495857077,59617996,0,61,237,77,45,29,26,29,46
2017/05/27/11:51:17.076245,130395,1495857077,76069116,0,76,229,87,56,31,25,27,38
2017/05/27/11:51:17.097319,130396,1495857077,97121000,0,118,227,98,74,36,28,28,45
2017/05/27/11:51:17.119825,130397,1495857077,119682073,0,118,199,99,74,36,28,27,45
2017/05/27/11:51:17.136320,130398,1495857077,136106014,0,125,216,103,73,36,25,25,43
2017/05/27/11:51:17.157370,130399,1495857077,157094955,0,213,231,203,131,57,30,26,56
2017/05/27/11:51:17.179986,130400,1495857077,179639101,0,368,314,270,165,67,35,32,92
2017/05/27/11:51:17.196454,130401,1495857077,196149110,0,374,302,268,162,64,33,31,92
2017/05/27/11:51:17.217312,130402,1495857077,217139005,0,402,301,270,163,65,33,32,97
2017/05/27/11:51:17.239771,130403,1495857077,239612102,0,500,312,281,166,65,34,32,103
2017/05/27/11:51:17.262347,130404,1495857077,262134075,0,546,306,277,149,53,29,35,117
2017/05/27/11:51:17.277274,130405,1495857077,277138948,0,552,245,238,138,49,27,35,108
2017/05/27/11:51:17.300034,130406,1495857077,299865007,0,554,236,245,135,49,27,35,110
2017/05/27/11:51:17.322261,130407,1495857077,322119951,0,569,236,246,137,48,26,36,110
2017/05/27/11:51:17.337653,130408,1495857077,337208032,0,501,213,240,136,48,26,40,118
2017/05/27/11:51:17.359821,130409,1495857077,359637022,0,460,230,220,121,46,30,40,103
2017/05/27/11:51:17.390818,130410,1495857077,390413045,0,374,214,242,113,43,27,37,93
2017/05/27/11:51:17.397362,130411,1495857077,397150039,0,369,236,252,119,45,28,37,89
2017/05/27/11:51:17.419775,130412,1495857077,419606924,0,345,269,247,116,43,29,39,93
2017/05/27/11:51:17.442333,130413,1495857077,442117929,0,378,268,242,113,43,29,36,83
2017/05/27/11:51:17.457657,130414,1495857077,457237005,0,451,288,217,124,43,26,34,83
2017/05/27/11:51:17.485223,130415,1495857077,485009908,0,434,277,212,107,40,28,34,78
2017/05/27/11:51:17.502368,130416,1495857077,502152919,0,429,261,194,102,38,27,36,81
2017/05/27/11:51:17.517267,130417,1495857077,517126083,0,431,231,201,109,42,28,35,81
2017/05/27/11:51:17.539860,130418,1495857077,539593935,0,530,280,215,115,43,26,36,87
2017/05/27/11:51:17.562304,130419,1495857077,562138080,0,471,236,207,119,47,25,34,88
2017/05/27/11:51:17.577359,130420,1495857077,577167987,0,477,253,184,123,50,27,35,86
2017/05/27/11:51:17.599765,130421,1495857077,599569082,0,483,252,191,124,51,28,32,84
2017/05/27/11:51:17.622445,130422,1495857077,622169971,0,536,269,187,118,49,28,31,80
2017/05/27/11:51:17.637451,130423,1495857077,637206077,0,451,246,186,119,49,29,30,67
2017/05/27/11:51:17.660031,130424,1495857077,659737110,0,437,255,186,102,46,30,29,56
2017/05/27/11:51:17.682328,130425,1495857077,682120084,0,433,239,164,93,37,29,27,57
2017/05/27/11:51:17.704890,130426,1495857077,704659938,0,428,233,156,88,33,26,27,54
2017/05/27/11:51:17.719994,130427,1495857077,719746112,0,370,206,167,100,40,26,25,46
2017/05/27/11:51:17.742309,130428,1495857077,742115974,0,314,167,167,112,46,26,28,59
2017/05/27/11:51:17.757463,130429,1495857077,757208108,0,294,174,175,117,48,27,29,59
2017/05/27/11:51:17.779821,130430,1495857077,779630899,0,271,175,192,123,51,24,30,58
2017/05/27/11:51:17.802340,130431,1495857077,802131891,0,282,169,201,150,58,26,31,58
2017/05/27/11:51:17.817378,130432,1495857077,817207098,0,249,212,201,149,57,26,30,57
2017/05/27/11:51:17.839854,130433,1495857077,839668989,0,272,223,194,140,51,24,26,42
2017/05/27/11:51:17.862390,130434,1495857077,862170934,0,292,235,197,135,52,21,25,42
2017/05/27/11:51:17.877293,130435,1495857077,877079010,0,293,234,174,141,55,24,25,41
2017/05/27/11:51:17.899987,130436,1495857077,899648904,0,272,239,166,115,51,24,25,40
2017/05/27/11:51:17.922292,130437,1495857077,922103881,0,256,239,156,109,52,24,26,43
2017/05/27/11:51:17.937298,130438,1495857077,937119007,0,238,242,155,109,53,24,28,53
2017/05/27/11:51:17.959824,130439,1495857077,959619045,0,186,227,152,113,51,27,26,50
2017/05/27/11:51:17.982376,130440,1495857077,982163906,0,185,227,144,98,47,26,25,50
2017/05/27/11:51:17.997329,130441,1495857077,997126102,0,201,226,138,96,45,26,25,56
2017/05/27/11:51:18.019786,130442,1495857078,19607067,0,221,196,149,96,41,25,24,55
2017/05/27/11:51:18.042443,130443,1495857078,42268037,0,199,175,165,117,49,27,22,46
2017/05/27/11:51:18.066230,130444,1495857078,66037893,0,195,156,154,109,44,23,23,47
2017/05/27/11:51:18.079920,130445,1495857078,79658985,0,206,145,157,110,47,23,25,47
2017/05/27/11:51:18.102479,130446,1495857078,102152109,0,194,150,161,118,48,23,24,43
2017/05/27/11:51:18.118847,130447,1495857078,118618965,0,198,169,200,135,52,25,27,50
2017/05/27/11:51:18.139932,130448,1495857078,139703989,0,191,172,196,119,47,26,30,48
2017/05/27/11:51:18.170026,130449,1495857078,169759035,0,195,184,195,118,48,28,31,48
2017/05/27/11:51:18.178685,130450,1495857078,178553104,0,208,186,195,116,48,28,30,51
2017/05/27/11:51:18.201365,130451,1495857078,201139926,0,196,181,200,120,47,30,30,46
2017/05/27/11:51:18.222568,130452,1495857078,222103118,0,160,151,160,102,44,30,27,36
2017/05/27/11:51:18.244789,130453,1495857078,244605064,0,151,179,151,108,43,29,25,38
2017/05/27/11:51:18.260148,130454,1495857078,259819030,0,142,175,150,117,49,29,22,35
2017/05/27/11:51:18.282434,130455,1495857078,282196044,0,96,169,162,121,49,30,23,31
2017/05/27/11:51:18.304869,130456,1495857078,304672002,0,92,170,163,120,54,29,26,33
2017/05/27/11:51:18.319770,130457,1495857078,319581031,0,81,167,172,129,55,28,25,32
2017/05/27/11:51:18.343799,130458,1495857078,343595027,0,68,147,188,130,57,29,27,30
2017/05/27/11:51:18.364941,130459,1495857078,364686012,0,70,139,187,124,56,28,28,31
2017/05/27/11:51:18.379799,130460,1495857078,379625082,0,62,151,174,120,52,26,27,30
2017/05/27/11:51:18.402339,130461,1495857078,402148962,0,56,173,157,111,47,26,24,26
2017/05/27/11:51:18.424853,130462,1495857078,424681901,0,69,178,144,110,46,26,24,28
2017/05/27/11:51:18.439869,130463,1495857078,439589977,0,99,216,128,104,43,25,21,28
2017/05/27/11:51:18.462474,130464,1495857078,462166070,0,102,221,134,94,36,27,19,26
2017/05/27/11:51:18.484783,130465,1495857078,484569072,0,106,228,141,95,37,29,20,26
2017/05/27/11:51:18.499744,130466,1495857078,499607086,0,111,237,162,118,47,30,22,28
2017/05/27/11:51:18.522265,130467,1495857078,522108078,0,142,258,158,108,45,29,24,33
2017/05/27/11:51:18.544760,130468,1495857078,544588088,0,130,238,144,100,44,29,25,30
2017/05/27/11:51:18.561949,130469,1495857078,561779975,0,131,255,161,113,47,27,25,31
2017/05/27/11:51:18.582272,130470,1495857078,582099914,0,129,249,161,123,53,29,26,31
2017/05/27/11:51:18.604914,130471,1495857078,604686975,0,124,240,141,102,48,28,26,36
2017/05/27/11:51:18.619739,130472,1495857078,619600057,0,77,217,138,101,46,28,22,30
2017/05/27/11:51:18.642288,130473,1495857078,642117023,0,78,192,139,104,47,27,22,33
2017/05/27/11:51:18.664901,130474,1495857078,664629936,0,69,180,143,104,46,28,22,35
2017/05/27/11:51:18.679767,130475,1495857078,679619073,0,74,233,165,106,44,26,23,35
2017/05/27/11:51:18.702424,130476,1495857078,702241897,0,74,209,165,100,41,26,22,30
2017/05/27/11:51:18.724784,130477,1495857078,724615097,0,76,209,160,100,42,25,23,29
2017/05/27/11:51:18.739778,130478,1495857078,739594936,0,58,203,157,96,41,24,23,26
2017/05/27/11:51:18.762270,130479,1495857078,762080907,0,54,185,127,84,40,23,21,24
2017/05/27/11:51:18.784820,130480,1495857078,784616947,0,44,131,91,66,37,24,22,22
2017/05/27/11:51:18.802656,130481,1495857078,802510976,0,44,145,92,69,36,23,21,22
2017/05/27/11:51:18.822340,130482,1495857078,822155952,0,36,145,107,86,37,23,20,22
2017/05/27/11:51:18.844848,130483,1495857078,844624042,0,44,155,111,89,37,26,21,24
2017/05/27/11:51:18.859799,130484,1495857078,859596967,0,43,158,115,106,40,25,24,25
2017/05/27/11:51:18.882323,130485,1495857078,882126092,0,42,133,118,110,47,26,25,26
2017/05/27/11:51:18.904843,130486,1495857078,904627084,0,44,150,121,108,45,26,25,26
2017/05/27/11:51:18.919978,130487,1495857078,919709920,0,51,185,114,97,45,26,25,26
2017/05/27/11:51:18.942267,130488,1495857078,942089080,0,50,189,119,106,46,24,24,24
2017/05/27/11:51:18.964906,130489,1495857078,964626073,0,51,190,104,88,47,25,23,23
2017/05/27/11:51:18.979761,130490,1495857078,979610919,0,53,205,120,89,42,23,20,23
2017/05/27/11:51:19.002595,130491,1495857079,2228021,0,54,189,115,90,42,24,20,22
2017/05/27/11:51:19.024786,130492,1495857079,24585008,0,49,152,132,89,42,25,20,22
2017/05/27/11:51:19.039977,130493,1495857079,39635896,0,48,185,134,76,41,26,19,24
2017/05/27/11:51:19.062279,130494,1495857079,62072992,0,58,201,135,71,35,25,22,26
2017/05/27/11:51:19.084921,130495,1495857079,84707021,0,56,188,113,62,30,23,22,24
2017/05/27/11:51:19.100016,130496,1495857079,99734067,0,57,185,110,58,29,22,20,27
2017/05/27/11:51:19.122452,130497,1495857079,122203111,0,55,199,91,73,29,20,22,28
2017/05/27/11:51:19.144771,130498,1495857079,144579887,0,57,155,86,76,33,19,22,28
2017/05/27/11:51:19.168541,130499,1495857079,167229890,0,46,131,85,76,35,21,21,27
2017/05/27/11:51:19.182512,130500,1495857079,182177066,0,48,152,86,74,36,22,21,27
2017/05/27/11:51:19.206235,130501,1495857079,206072092,0,47,154,88,75,38,22,22,24
2017/05/27/11:51:19.227380,130502,1495857079,227144002,0,47,133,78,51,36,23,20,24
2017/05/27/11:51:19.242395,130503,1495857079,242091894,0,52,160,78,49,31,21,21,24
2017/05/27/11:51:19.265012,130504,1495857079,264740943,0,52,163,77,47,29,20,19,24
2017/05/27/11:51:19.287427,130505,1495857079,287193059,0,51,140,73,44,27,18,20,24
2017/05/27/11:51:19.305338,130506,1495857079,305073976,0,49,138,72,42,23,19,20,23
2017/05/27/11:51:19.324827,130507,1495857079,324595928,0,49,145,67,46,30,19,22,24
2017/05/27/11:51:19.355483,130508,1495857079,355271100,0,37,111,57,58,35,21,20,22
2017/05/27/11:51:19.362332,130509,1495857079,362133026,0,39,101,63,66,35,21,20,22
2017/05/27/11:51:19.384794,130510,1495857079,384593963,0,37,96,64,68,36,22,19,22
2017/05/27/11:51:19.407378,130511,1495857079,407172918,0,35,99,61,69,36,23,19,22
2017/05/27/11:51:19.422278,130512,1495857079,422086000,0,37,111,65,65,31,22,19,21
2017/05/27/11:51:19.444900,130513,1495857079,444642066,0,36,109,62,49,25,22,19,21
2017/05/27/11:51:19.467305,130514,1495857079,467124938,0,31,104,60,40,26,22,18,19
2017/05/27/11:51:19.482465,130515,1495857079,482131958,0,30,110,71,36,27,21,19,21
2017/05/27/11:51:19.504983,130516,1495857079,504671096,0,34,109,77,38,26,20,19,22
2017/05/27/11:51:19.527275,130517,1495857079,527112960,0,31,88,80,38,25,21,18,21
2017/05/27/11:51:19.542225,130518,1495857079,542078971,0,31,85,77,41,26,20,19,21
2017/05/27/11:51:19.564783,130519,1495857079,564601898,0,37,102,70,39,26,22,20,22
2017/05/27/11:51:19.587334,130520,1495857079,587210893,0,39,116,67,45,27,22,18,20
2017/05/27/11:51:19.602314,130521,1495857079,602118015,0,37,111,60,43,29,22,18,21
2017/05/27/11:51:19.624782,130522,1495857079,624608039,0,48,148,53,42,30,21,17,20
2017/05/27/11:51:19.647482,130523,1495857079,647212028,0,49,152,52,36,29,22,19,21
2017/05/27/11:51:19.662295,130524,1495857079,662139892,0,46,156,52,42,31,21,17,22
2017/05/27/11:51:19.684812,130525,1495857079,684626102,0,45,144,39,38,30,21,17,21
2017/05/27/11:51:19.707294,130526,1495857079,707132101,0,44,145,51,40,30,20,18,20
2017/05/27/11:51:19.722429,130527,1495857079,722162961,0,32,133,52,40,29,20,21,22
2017/05/27/11:51:19.744967,130528,1495857079,744641065,0,35,138,55,43,31,18,20,22
2017/05/27/11:51:19.767517,130529,1495857079,767245054,0,35,140,66,41,29,19,20,21
2017/05/27/11:51:19.782319,130530,1495857079,782114028,0,35,145,69,37,27,20,21,23
2017/05/27/11:51:19.804899,130531,1495857079,804616928,0,38,164,67,39,29,20,22,22
2017/05/27/11:51:19.827694,130532,1495857079,827334880,0,38,147,71,50,31,20,21,21
2017/05/27/11:51:19.842399,130533,1495857079,842130899,0,35,138,70,48,31,21,20,22
2017/05/27/11:51:19.864753,130534,1495857079,864566087,0,34,127,66,45,30,21,21,22
2017/05/27/11:51:19.887450,130535,1495857079,887219905,0,36,156,65,46,33,21,21,21
2017/05/27/11:51:19.909809,130536,1495857079,909596920,0,32,140,66,47,31,20,21,23
2017/05/27/11:51:19.924749,130537,1495857079,924575090,0,31,137,71,50,29,21,21,23
2017/05/27/11:51:19.947269,130538,1495857079,947088956,0,31,140,82,62,30,21,21,23
2017/05/27/11:51:19.962329,130539,1495857079,962131023,0,29,140,78,65,30,21,21,22
2017/05/27/11:51:19.984932,130540,1495857079,984622955,0,29,98,76,67,27,21,23,21
2017/05/27/11:51:20.007302,130541,1495857080,7100105,0,31,143,77,67,28,21,21,18
2017/05/27/11:51:20.022497,130542,1495857080,22135019,0,32,155,77,63,28,21,21,20
2017/05/27/11:51:20.044796,130543,1495857080,44574975,0,33,161,72,58,26,20,22,18
2017/05/27/11:51:20.067487,130544,1495857080,67235946,0,33,176,73,58,27,19,21,18
2017/05/27/11:51:20.089898,130545,1495857080,89688062,0,31,195,70,56,29,20,20,19
2017/05/27/11:51:20.117374,130546,1495857080,117067098,0,33,168,68,53,30,22,19,23
2017/05/27/11:51:20.127266,130547,1495857080,127109050,0,34,166,59,46,31,24,20,20
2017/05/27/11:51:20.149814,130548,1495857080,149569034,0,34,165,59,40,30,24,19,20
2017/05/27/11:51:20.164990,130549,1495857080,164644002,0,33,158,60,37,29,24,21,21
2017/05/27/11:51:20.187281,130550,1495857080,187092065,0,31,140,71,44,28,23,19,21
2017/05/27/11:51:20.209809,130551,1495857080,209629058,0,33,150,76,54,26,24,20,17
2017/05/27/11:51:20.226252,130552,1495857080,226058959,0,35,160,83,62,26,23,21,19
2017/05/27/11:51:20.247268,130553,1495857080,247107028,0,37,161,77,60,27,23,21,19
2017/05/27/11:51:20.269800,130554,1495857080,269620895,0,44,194,84,64,28,23,20,22
2017/05/27/11:51:20.284765,130555,1495857080,284575939,0,46,192,77,62,29,23,23,21
2017/05/27/11:51:20.307236,130556,1495857080,307068109,0,46,183,73,55,30,22,23,23
2017/05/27/11:51:20.330100,130557,1495857080,329740047,0,45,177,71,58,29,21,23,22
2017/05/27/11:51:20.345025,130558,1495857080,344646930,0,44,182,71,59,30,22,22,23
2017/05/27/11:51:20.367448,130559,1495857080,367203950,0,38,138,59,55,30,20,25,21
2017/05/27/11:51:20.389895,130560,1495857080,389671087,0,43,147,60,53,28,19,25,23
2017/05/27/11:51:20.404804,130561,1495857080,404589891,0,47,172,61,52,28,19,24,22
2017/05/27/11:51:20.427313,130562,1495857080,427128076,0,55,179,75,57,32,18,25,23
2017/05/27/11:51:20.449827,130563,1495857080,449605941,0,57,194,75,62,32,18,25,21
2017/05/27/11:51:20.464988,130564,1495857080,464659929,0,58,192,78,63,32,19,24,20
2017/05/27/11:51:20.487242,130565,1495857080,487081050,0,54,183,78,65,33,20,22,20
2017/05/27/11:51:20.509865,130566,1495857080,509641885,0,50,156,76,64,32,20,21,19
2017/05/27/11:51:20.525083,130567,1495857080,524704933,0,39,143,52,48,26,21,20,19
2017/05/27/11:51:20.547278,130568,1495857080,547096967,0,34,110,67,53,25,21,20,19
2017/05/27/11:51:20.569808,130569,1495857080,569617986,0,33,106,73,53,25,22,17,19
2017/05/27/11:51:20.584752,130570,1495857080,584580898,0,34,102,75,52,25,21,19,19
2017/05/27/11:51:20.607415,130571,1495857080,607135057,0,39,113,80,53,25,20,19,19
2017/05/27/11:51:20.629848,130572,1495857080,629615068,0,38,114,80,53,26,20,19,19
2017/05/27/11:51:20.644997,130573,1495857080,644615888,0,38,118,79,46,26,20,18,18
2017/05/27/11:51:20.667261,130574,1495857080,667108058,0,37,119,77,53,27,21,20,19
2017/05/27/11:51:20.689872,130575,1495857080,689654111,0,35,128,78,54,29,23,19,18
2017/05/27/11:51:20.705284,130576,1495857080,704663038,0,32,134,77,54,29,24,20,20
2017/05/27/11:51:20.728814,130577,1495857080,728571891,0,29,127,78,54,29,24,20,20
2017/05/27/11:51:20.749770,130578,1495857080,749581098,0,30,118,65,50,30,25,20,23
2017/05/27/11:51:20.764763,130579,1495857080,764585018,0,31,147,62,53,29,24,18,22
2017/05/27/11:51:20.787498,130580,1495857080,787138938,0,33,157,61,56,31,26,19,24
2017/05/27/11:51:20.809997,130581,1495857080,809669971,0,34,159,62,57,30,25,18,22
2017/05/27/11:51:20.824949,130582,1495857080,824780941,0,36,166,62,55,30,23,18,23
2017/05/27/11:51:20.847259,130583,1495857080,847084045,0,37,168,65,55,30,23,17,22
2017/05/27/11:51:20.869787,130584,1495857080,869637966,0,37,179,71,55,32,23,19,21
2017/05/27/11:51:20.884900,130585,1495857080,884680986,0,39,166,66,52,29,18,18,20
2017/05/27/11:51:20.907468,130586,1495857080,907232046,0,36,158,67,55,33,18,19,22
2017/05/27/11:51:20.929742,130587,1495857080,929605960,0,36,152,68,58,32,20,17,23
2017/05/27/11:51:20.944811,130588,1495857080,944598913,0,38,161,71,60,32,22,20,23
2017/05/27/11:51:20.967641,130589,1495857080,967381000,0,41,136,67,54,30,20,19,24
2017/05/27/11:51:20.990047,130590,1495857080,989696025,0,38,135,67,54,29,22,20,24
2017/05/27/11:51:21.008639,130591,1495857081,4605054,0,42,137,60,50,25,22,20,22
2017/05/27/11:51:21.027293,130592,1495857081,27098894,0,45,152,76,62,26,21,21,23
2017/05/27/11:51:21.049780,130593,1495857081,49555063,0,43,138,76,59,27,19,18,24
2017/05/27/11:51:21.072467,130594,1495857081,72227954,0,39,118,72,56,29,21,18,24
2017/05/27/11:51:21.087343,130595,1495857081,87153911,0,41,124,75,55,29,21,18,23
2017/05/27/11:51:21.109808,130596,1495857081,109596967,0,37,120,74,55,29,22,18,23
2017/05/27/11:51:21.132351,130597,1495857081,132164955,0,33,128,63,37,28,21,18,21
2017/05/27/11:51:21.147331,130598,1495857081,147130012,0,32,126,58,40,27,21,18,19
2017/05/27/11:51:21.169864,130599,1495857081,169640064,0,32,129,56,37,23,20,19,18
2017/05/27/11:51:21.192353,130600,1495857081,192135095,0,29,123,52,38,22,20,19,20
2017/05/27/11:51:21.207472,130601,1495857081,207165956,0,31,124,51,35,20,18,18,21
2017/05/27/11:51:21.229796,130602,1495857081,229599952,0,30,99,40,31,21,18,19,22
2017/05/27/11:51:21.252424,130603,1495857081,252202987,0,32,103,47,28,20,17,19,23
2017/05/27/11:51:21.267355,130604,1495857081,267143964,0,31,102,48,28,21,18,19,22
2017/05/27/11:51:21.289989,130605,1495857081,289714097,0,33,113,49,22,22,18,18,24
2017/05/27/11:51:21.312294,130606,1495857081,312083005,0,31,99,54,26,23,19,19,22
2017/05/27/11:51:21.327464,130607,1495857081,327166080,0,34,116,57,29,21,19,17,22
2017/05/27/11:51:21.350000,130608,1495857081,349657058,0,33,113,50,28,23,19,17,22
2017/05/27/11:51:21.372270,130609,1495857081,372107028,0,38,125,56,31,22,18,17,22
2017/05/27/11:51:21.387290,130610,1495857081,387106895,0,40,131,59,35,22,18,16,21
2017/05/27/11:51:21.409754,130611,1495857081,409579992,0,38,131,53,33,22,21,17,21
2017/05/27/11:51:21.432398,130612,1495857081,432149887,0,36,109,52,30,24,21,18,22
2017/05/27/11:51:21.447292,130613,1495857081,447101116,0,39,121,53,30,23,22,18,20
2017/05/27/11:51:21.469876,130614,1495857081,469641923,0,35,105,55,32,24,24,18,20
2017/05/27/11:51:21.492270,130615,1495857081,492098093,0,37,101,58,28,24,23,18,19
2017/05/27/11:51:21.507271,130616,1495857081,507097959,0,38,101,59,29,23,20,17,19
2017/05/27/11:51:21.530061,130617,1495857081,529702901,0,40,110,58,30,22,20,18,19
2017/05/27/11:51:21.552313,130618,1495857081,552122116,0,41,111,60,31,23,24,16,20
2017/05/27/11:51:21.567274,130619,1495857081,567104101,0,40,115,51,28,21,22,17,19
2017/05/27/11:51:21.589769,130620,1495857081,589607954,0,36,107,44,31,23,23,18,20
2017/05/27/11:51:21.612509,130621,1495857081,612238883,0,39,116,48,29,22,24,17,21
2017/05/27/11:51:21.627263,130622,1495857081,627104997,0,37,110,47,30,23,25,17,21
2017/05/27/11:51:21.649766,130623,1495857081,649561882,0,34,101,52,33,24,18,19,22
2017/05/27/11:51:21.672306,130624,1495857081,672122955,0,36,106,57,35,27,20,20,23
2017/05/27/11:51:21.687513,130625,1495857081,687201976,0,42,131,54,33,26,19,19,22
2017/05/27/11:51:21.710059,130626,1495857081,709691047,0,38,125,50,34,29,21,20,21
2017/05/27/11:51:21.732361,130627,1495857081,732145071,0,38,131,52,33,28,22,20,21
2017/05/27/11:51:21.747322,130628,1495857081,747129917,0,37,126,45,32,27,21,20,19
2017/05/27/11:51:21.769824,130629,1495857081,769608020,0,35,129,40,29,26,20,20,18
2017/05/27/11:51:21.792338,130630,1495857081,792157888,0,28,105,53,34,28,21,20,18
2017/05/27/11:51:21.807279,130631,1495857081,807122945,0,33,108,58,35,28,19,19,20
2017/05/27/11:51:21.829717,130632,1495857081,829591035,0,33,97,56,34,29,19,23,18
2017/05/27/11:51:21.852339,130633,1495857081,852121114,0,35,106,55,35,29,20,20,19
2017/05/27/11:51:21.867484,130634,1495857081,867292881,0,37,102,54,34,27,20,20,18
2017/05/27/11:51:21.889854,130635,1495857081,889652967,0,39,104,49,29,24,21,21,18
2017/05/27/11:51:21.912322,130636,1495857081,912120103,0,34,109,45,27,20,20,21,17
