time,.header.seq,.header.stamp.secs,.header.stamp.nsecs,.header.frame_id,.ch0,.ch1,.ch2,.ch3,.ch4,.ch5,.ch6,.ch7
2017/05/27/11:51:32.607912,131169,1495857092,607717990,0,169,168,126,52,48,94,189,119
2017/05/27/11:51:32.622187,131170,1495857092,621997117,0,232,162,108,49,55,93,153,115
2017/05/27/11:51:32.637349,131171,1495857092,637065887,0,213,135,92,43,53,111,166,130
2017/05/27/11:51:32.661135,131172,1495857092,660959005,0,216,130,89,42,55,112,156,122
2017/05/27/11:51:32.685204,131173,1495857092,685034990,0,236,175,132,94,65,100,158,141
2017/05/27/11:51:32.697178,131174,1495857092,696994066,0,230,182,137,102,81,104,163,142
2017/05/27/11:51:32.719787,131175,1495857092,719578027,0,162,162,141,106,82,103,163,136
2017/05/27/11:51:32.742194,131176,1495857092,742001056,0,160,177,156,118,87,87,152,119
2017/05/27/11:51:32.757157,131177,1495857092,757005929,0,177,221,235,164,104,88,147,121
2017/05/27/11:51:32.779727,131178,1495857092,779520988,0,159,216,239,169,107,81,119,116
2017/05/27/11:51:32.802224,131179,1495857092,802062988,0,160,220,254,183,103,80,120,118
2017/05/27/11:51:32.824717,131180,1495857092,824556112,0,179,241,286,193,99,80,131,119
2017/05/27/11:51:32.839692,131181,1495857092,839555978,0,226,246,300,188,103,78,131,120
2017/05/27/11:51:32.862609,131182,1495857092,862118005,0,271,262,281,173,92,72,127,116
2017/05/27/11:51:32.884741,131183,1495857092,884533882,0,283,255,266,155,85,71,108,74
2017/05/27/11:51:32.899702,131184,1495857092,899517059,0,325,314,255,137,93,75,104,72
2017/05/27/11:51:32.930442,131185,1495857092,930222988,0,340,389,269,158,109,72,84,68
2017/05/27/11:51:32.937175,131186,1495857092,936996936,0,392,440,273,197,118,72,69,68
2017/05/27/11:51:32.959761,131187,1495857092,959547042,0,363,524,283,224,137,75,68,66
2017/05/27/11:51:32.990554,131188,1495857092,990261077,0,353,524,287,230,139,75,64,64
2017/05/27/11:51:32.997434,131189,1495857092,997144937,0,330,534,290,230,133,67,49,61
2017/05/27/11:51:33.019688,131190,1495857093,19494056,0,399,506,384,289,134,62,44,71
2017/05/27/11:51:33.050340,131191,1495857093,50168991,0,363,517,390,299,145,67,48,71
2017/05/27/11:51:33.057124,131192,1495857093,56957006,0,384,489,383,281,136,68,49,74
2017/05/27/11:51:33.079982,131193,1495857093,79668998,0,397,505,385,279,136,67,47,73
2017/05/27/11:51:33.102349,131194,1495857093,102066040,0,466,510,392,282,138,68,46,75
2017/05/27/11:51:33.117332,131195,1495857093,116981983,0,416,564,290,210,126,69,46,73
2017/05/27/11:51:33.139644,131196,1495857093,139463901,0,536,694,322,174,99,60,46,86
2017/05/27/11:51:33.163783,131197,1495857093,163501977,0,533,668,308,163,89,61,49,87
2017/05/27/11:51:33.177191,131198,1495857093,177009105,0,537,684,306,169,93,63,52,90
2017/05/27/11:51:33.215597,131199,1495857093,215329885,0,532,660,318,173,89,60,55,93
2017/05/27/11:51:33.222135,131200,1495857093,221997022,0,597,640,297,169,96,60,54,104
2017/05/27/11:51:33.237274,131201,1495857093,237104892,0,520,451,283,188,99,57,48,97
2017/05/27/11:51:33.259927,131202,1495857093,259610891,0,510,440,287,192,96,47,42,93
2017/05/27/11:51:33.282254,131203,1495857093,282051086,0,522,409,302,198,92,42,37,91
2017/05/27/11:51:33.297303,131204,1495857093,297101020,0,592,409,287,201,100,50,38,93
2017/05/27/11:51:33.328658,131205,1495857093,328490972,0,532,388,307,218,107,56,41,76
2017/05/27/11:51:33.342369,131206,1495857093,342103004,0,493,425,263,199,116,59,43,74
2017/05/27/11:51:33.381234,131207,1495857093,380961894,0,537,431,242,191,115,62,45,77
2017/05/27/11:51:33.382553,131208,1495857093,382442951,0,537,478,242,180,129,72,49,77
2017/05/27/11:51:33.402252,131209,1495857093,402040958,0,449,494,268,192,128,72,47,77
2017/05/27/11:51:33.441181,131210,1495857093,441006898,0,464,497,275,193,121,69,44,77
2017/05/27/11:51:33.442524,131211,1495857093,442436933,0,519,519,290,196,110,68,43,82
2017/05/27/11:51:33.462127,131212,1495857093,461996078,0,497,510,293,203,135,73,44,81
2017/05/27/11:51:33.492920,131213,1495857093,492741107,0,626,547,295,220,135,71,45,105
2017/05/27/11:51:33.499677,131214,1495857093,499495029,0,657,535,261,210,140,72,51,99
2017/05/27/11:51:33.522328,131215,1495857093,522053003,0,641,568,253,213,147,72,56,99
2017/05/27/11:51:33.544725,131216,1495857093,544536113,0,616,527,248,209,149,78,60,93
2017/05/27/11:51:33.559667,131217,1495857093,559530973,0,665,609,260,209,126,75,59,98
2017/05/27/11:51:33.582331,131218,1495857093,582055091,0,547,577,258,205,125,80,61,72
2017/05/27/11:51:33.604608,131219,1495857093,604476928,0,483,660,349,240,120,75,74,78
2017/05/27/11:51:33.619837,131220,1495857093,619620084,0,583,651,364,226,112,76,69,88
2017/05/27/11:51:33.642303,131221,1495857093,642079114,0,562,641,351,222,109,72,66,87
2017/05/27/11:51:33.664692,131222,1495857093,664494037,0,499,576,343,218,111,73,66,86
2017/05/27/11:51:33.679659,131223,1495857093,679498910,0,526,549,330,206,113,71,63,91
2017/05/27/11:51:33.711096,131224,1495857093,710748910,0,526,434,239,162,107,69,45,91
2017/05/27/11:51:33.724822,131225,1495857093,724647045,0,491,394,210,175,111,68,48,86
2017/05/27/11:51:33.739650,131226,1495857093,739501953,0,529,521,262,200,121,68,49,92
2017/05/27/11:51:33.770317,131227,1495857093,770174026,0,549,507,308,212,123,67,57,93
2017/05/27/11:51:33.784707,131228,1495857093,784507036,0,515,512,360,242,122,63,57,86
2017/05/27/11:51:33.799772,131229,1495857093,799557924,0,534,524,358,236,119,63,52,82
2017/05/27/11:51:33.823697,131230,1495857093,823491096,0,471,505,349,227,121,61,49,74
2017/05/27/11:51:33.844675,131231,1495857093,844501972,0,444,385,319,207,114,58,48,64
2017/05/27/11:51:33.859800,131232,1495857093,859560966,0,415,410,281,194,116,60,50,64
2017/05/27/11:51:33.883651,131233,1495857093,883471012,0,397,389,258,173,104,62,50,64
2017/05/27/11:51:33.904715,131234,1495857093,904505968,0,362,384,259,179,116,67,56,64
2017/05/27/11:51:33.919837,131235,1495857093,919604063,0,371,389,257,171,114,72,60,65
2017/05/27/11:51:33.942217,131236,1495857093,942055940,0,380,384,267,175,116,75,69,70
2017/05/27/11:51:33.964854,131237,1495857093,964550018,0,389,409,267,170,118,76,74,77
2017/05/27/11:51:33.995344,131238,1495857093,995210886,0,392,425,308,218,141,82,77,78
2017/05/27/11:51:34.002250,131239,1495857094,1991987,0,397,524,347,234,141,82,76,80
2017/05/27/11:51:34.024667,131240,1495857094,24513006,0,376,515,335,229,135,79,80,83
2017/05/27/11:51:34.048856,131241,1495857094,48459053,0,338,599,340,227,131,80,73,87
2017/05/27/11:51:34.063635,131242,1495857094,63471078,0,307,564,355,235,122,73,62,82
2017/05/27/11:51:34.084685,131243,1495857094,84516048,0,323,564,298,177,93,72,61,80
2017/05/27/11:51:34.101918,131244,1495857094,101687908,0,411,518,274,154,85,85,58,85
2017/05/27/11:51:34.122200,131245,1495857094,122019052,0,418,516,344,202,101,89,56,88
2017/05/27/11:51:34.161121,131246,1495857094,160887956,0,417,425,329,213,103,87,57,82
2017/05/27/11:51:34.162607,131247,1495857094,162434101,0,409,419,328,232,110,90,57,77
2017/05/27/11:51:34.182388,131248,1495857094,182018995,0,391,394,337,245,117,79,53,78
2017/05/27/11:51:34.214530,131249,1495857094,214200973,0,302,365,325,242,113,69,55,72
2017/05/27/11:51:34.219597,131250,1495857094,219479084,0,279,420,311,223,106,66,49,67
2017/05/27/11:51:34.242367,131251,1495857094,242069005,0,270,401,335,233,110,67,43,63
2017/05/27/11:51:34.274499,131252,1495857094,274229049,0,264,400,363,233,130,79,45,58
2017/05/27/11:51:34.279637,131253,1495857094,279450893,0,275,452,352,218,121,78,44,54
2017/05/27/11:51:34.302356,131254,1495857094,302026033,0,235,417,345,222,117,74,44,55
2017/05/27/11:51:34.326219,131255,1495857094,326045989,0,219,424,296,208,116,69,42,51
2017/05/27/11:51:34.347142,131256,1495857094,346981048,0,215,431,280,197,117,69,46,49
2017/05/27/11:51:34.362362,131257,1495857094,362092971,0,225,420,244,189,95,63,43,50
2017/05/27/11:51:34.384817,131258,1495857094,384504079,0,295,390,231,194,114,68,50,68
2017/05/27/11:51:34.407525,131259,1495857094,407107114,0,359,406,243,204,133,71,50,64
2017/05/27/11:51:34.438063,131260,1495857094,437825918,0,441,358,278,227,135,71,51,62
2017/05/27/11:51:34.444787,131261,1495857094,444530010,0,519,366,287,221,133,74,49,64
2017/05/27/11:51:34.467180,131262,1495857094,467008113,0,634,365,297,235,143,71,50,64
2017/05/27/11:51:34.491138,131263,1495857094,490957021,0,629,394,346,254,143,72,46,49
2017/05/27/11:51:34.504596,131264,1495857094,504466056,0,598,370,347,244,127,69,45,50
2017/05/27/11:51:34.527284,131265,1495857094,527045965,0,545,417,354,238,124,70,46,52
2017/05/27/11:51:34.551079,131266,1495857094,550955057,0,482,400,337,231,124,79,50,56
2017/05/27/11:51:34.564816,131267,1495857094,564472913,0,305,413,311,194,112,86,50,55
2017/05/27/11:51:34.603486,131268,1495857094,603368043,0,229,355,270,190,105,86,51,54
2017/05/27/11:51:34.605035,131269,1495857094,604938983,0,188,411,325,253,120,97,50,50
2017/05/27/11:51:34.624674,131270,1495857094,624485015,0,161,379,292,238,111,97,47,48
2017/05/27/11:51:34.663608,131271,1495857094,663449048,0,128,459,292,237,114,89,48,55
2017/05/27/11:51:34.665080,131272,1495857094,664940118,0,117,437,307,247,113,80,48,56
2017/05/27/11:51:34.684619,131273,1495857094,684442996,0,118,444,299,234,109,89,46,55
2017/05/27/11:51:34.715506,131274,1495857094,715250015,0,118,479,299,187,99,98,56,60
2017/05/27/11:51:34.722244,131275,1495857094,722059965,0,112,456,322,197,108,100,55,62
2017/05/27/11:51:34.745029,131276,1495857094,744555950,0,88,434,327,196,117,98,54,50
2017/05/27/11:51:34.776886,131277,1495857094,776732921,0,101,514,307,185,116,121,56,51
2017/05/27/11:51:34.782174,131278,1495857094,781969070,0,105,559,322,177,116,119,57,52
2017/05/27/11:51:34.804709,131279,1495857094,804483890,0,126,590,266,162,132,106,52,57
2017/05/27/11:51:34.829312,131280,1495857094,829001903,0,127,600,230,149,133,112,52,54
2017/05/27/11:51:34.842382,131281,1495857094,842045068,0,121,554,218,152,128,129,56,58
2017/05/27/11:51:34.880746,131282,1495857094,880364894,0,126,559,396,215,160,117,60,67
2017/05/27/11:51:34.887255,131283,1495857094,887023925,0,121,525,387,214,170,117,64,69
2017/05/27/11:51:34.902160,131284,1495857094,902000904,0,98,437,383,205,155,119,64,62
2017/05/27/11:51:34.932894,131285,1495857094,932677984,0,96,429,392,208,153,118,63,60
2017/05/27/11:51:34.947225,131286,1495857094,947004079,0,96,458,427,223,181,128,76,65
2017/05/27/11:51:34.962204,131287,1495857094,962011098,0,75,407,281,173,171,130,71,53
2017/05/27/11:51:34.994527,131288,1495857094,994193077,0,78,411,273,169,164,132,66,51
2017/05/27/11:51:35.007234,131289,1495857095,7034063,0,69,386,343,217,183,130,71,52
2017/05/27/11:51:35.022501,131290,1495857095,22125959,0,98,489,476,252,187,125,71,57
2017/05/27/11:51:35.046412,131291,1495857095,46070098,0,104,503,457,244,163,98,55,50
2017/05/27/11:51:35.067159,131292,1495857095,66998004,0,108,510,460,242,171,103,57,53
2017/05/27/11:51:35.106229,131293,1495857095,105951070,0,106,505,470,256,178,117,56,57
2017/05/27/11:51:35.107533,131294,1495857095,107413053,0,109,510,426,234,207,125,47,56
2017/05/27/11:51:35.127219,131295,1495857095,126988887,0,85,433,267,195,207,127,50,51
2017/05/27/11:51:35.158087,131296,1495857095,157788038,0,94,507,250,188,201,125,47,51
2017/05/27/11:51:35.164660,131297,1495857095,164474964,0,108,534,291,204,200,125,48,53
2017/05/27/11:51:35.188868,131298,1495857095,188556909,0,120,553,283,198,200,112,60,56
2017/05/27/11:51:35.217934,131299,1495857095,217680931,0,125,640,300,187,152,102,63,56
2017/05/27/11:51:35.224766,131300,1495857095,224526882,0,126,613,302,192,167,108,62,58
2017/05/27/11:51:35.247211,131301,1495857095,247029066,0,116,527,319,197,168,109,61,57
2017/05/27/11:51:35.271131,131302,1495857095,270947933,0,99,543,305,201,152,97,61,55
2017/05/27/11:51:35.284803,131303,1495857095,284548997,0,81,515,312,201,134,89,51,43
2017/05/27/11:51:35.331058,131304,1495857095,330852031,0,74,425,274,195,137,88,45,39
2017/05/27/11:51:35.332556,131305,1495857095,332427978,0,75,436,295,209,115,79,45,43
2017/05/27/11:51:35.344738,131306,1495857095,344516038,0,74,476,323,209,116,80,44,44
2017/05/27/11:51:35.382883,131307,1495857095,382679939,0,71,415,300,187,100,80,39,44
2017/05/27/11:51:35.389796,131308,1495857095,389512062,0,79,422,279,195,127,82,42,51
2017/05/27/11:51:35.404903,131309,1495857095,404627084,0,75,393,294,207,131,86,53,53
2017/05/27/11:51:35.435641,131310,1495857095,435441017,0,82,410,299,209,145,89,55,53
2017/05/27/11:51:35.449786,131311,1495857095,449563026,0,86,442,267,200,153,88,58,54
2017/05/27/11:51:35.464880,131312,1495857095,464560985,0,84,422,252,206,162,77,57,51
2017/05/27/11:51:35.495558,131313,1495857095,495266914,0,76,456,259,189,162,85,52,46
2017/05/27/11:51:35.509695,131314,1495857095,509521961,0,79,472,248,169,156,77,42,45
2017/05/27/11:51:35.524685,131315,1495857095,524470090,0,68,456,200,151,147,78,39,39
2017/05/27/11:51:35.548738,131316,1495857095,548533916,0,60,379,170,151,134,75,41,38
2017/05/27/11:51:35.569808,131317,1495857095,569509029,0,71,426,183,144,135,91,43,37
2017/05/27/11:51:35.600377,131318,1495857095,600198984,0,71,405,210,168,130,84,47,43
2017/05/27/11:51:35.607082,131319,1495857095,606970071,0,81,417,242,172,126,88,51,44
2017/05/27/11:51:35.629678,131320,1495857095,629534959,0,84,447,255,158,126,105,55,49
2017/05/27/11:51:35.652308,131321,1495857095,651998043,0,91,522,290,167,136,109,53,46
2017/05/27/11:51:35.667118,131322,1495857095,666954994,0,83,485,287,163,122,96,51,45
2017/05/27/11:51:35.689727,131323,1495857095,689505100,0,84,466,264,143,110,90,47,39
2017/05/27/11:51:35.713604,131324,1495857095,713433027,0,95,537,251,142,109,88,46,42
2017/05/27/11:51:35.727216,131325,1495857095,727005958,0,105,539,241,144,118,81,47,40
2017/05/27/11:51:35.749778,131326,1495857095,749545097,0,103,520,211,143,117,82,47,45
2017/05/27/11:51:35.766157,131327,1495857095,765953063,0,112,597,216,148,127,85,50,48
2017/05/27/11:51:35.795418,131328,1495857095,795192003,0,111,601,231,144,123,85,49,48
2017/05/27/11:51:35.826108,131329,1495857095,825938940,0,107,586,271,144,131,91,47,47
2017/05/27/11:51:35.827570,131330,1495857095,827419042,0,95,577,277,149,120,79,45,46
2017/05/27/11:51:35.847138,131331,1495857095,846972942,0,93,531,258,140,116,74,42,46
2017/05/27/11:51:35.881245,131332,1495857095,881015062,0,86,436,259,158,120,71,41,45
2017/05/27/11:51:35.885062,131333,1495857095,884514093,0,88,431,253,149,118,78,44,50
2017/05/27/11:51:35.907113,131334,1495857095,906945943,0,73,362,215,152,116,102,47,51
2017/05/27/11:51:35.938025,131335,1495857095,937668085,0,83,363,207,162,130,106,51,55
2017/05/27/11:51:35.944919,131336,1495857095,944544076,0,96,400,235,165,127,106,54,53
2017/05/27/11:51:35.967533,131337,1495857095,967156887,0,96,406,219,143,129,111,54,53
2017/05/27/11:51:35.991184,131338,1495857095,990971088,0,114,472,224,169,144,105,57,51
2017/05/27/11:51:36.004665,131339,1495857096,4473924,0,123,525,215,163,146,98,54,50
2017/05/27/11:51:36.027494,131340,1495857096,27079105,0,129,577,226,162,131,89,49,48
2017/05/27/11:51:36.051192,131341,1495857096,50942897,0,119,549,197,159,127,89,49,47
2017/05/27/11:51:36.065031,131342,1495857096,64548969,0,119,579,230,175,112,85,46,44
2017/05/27/11:51:36.103269,131343,1495857096,102782011,0,100,530,235,156,95,88,44,44
2017/05/27/11:51:36.109814,131344,1495857096,109508991,0,87,514,251,156,90,62,44,43
2017/05/27/11:51:36.124926,131345,1495857096,124536037,0,70,454,234,137,87,63,42,41
2017/05/27/11:51:36.170992,131346,1495857096,170830011,0,65,466,237,134,96,69,41,40
2017/05/27/11:51:36.172555,131347,1495857096,172420978,0,57,415,213,110,96,68,42,41
2017/05/27/11:51:36.192307,131348,1495857096,192068099,0,61,409,200,108,94,64,42,41
2017/05/27/11:51:36.216904,131349,1495857096,216639995,0,75,393,175,123,90,63,42,42
2017/05/27/11:51:36.230052,131350,1495857096,229582071,0,74,398,178,133,101,69,41,42
2017/05/27/11:51:36.268546,131351,1495857096,268351078,0,80,417,218,150,115,65,40,43
2017/05/27/11:51:36.270040,131352,1495857096,269898891,0,90,482,223,158,116,67,43,45
2017/05/27/11:51:36.289744,131353,1495857096,289511919,0,96,525,281,180,121,65,40,46
2017/05/27/11:51:36.329241,131354,1495857096,329026937,0,86,475,278,171,128,73,41,43
2017/05/27/11:51:36.330719,131355,1495857096,330593109,0,89,472,292,167,138,77,42,44
2017/05/27/11:51:36.349762,131356,1495857096,349549055,0,86,440,260,152,118,75,44,43
2017/05/27/11:51:36.380616,131357,1495857096,380284070,0,81,388,251,142,120,75,42,39
2017/05/27/11:51:36.387323,131358,1495857096,387058973,0,70,371,186,108,128,75,38,32
2017/05/27/11:51:36.409691,131359,1495857096,409495115,0,65,370,218,130,130,80,37,35
2017/05/27/11:51:36.433886,131360,1495857096,433679103,0,62,366,211,137,117,73,36,38
2017/05/27/11:51:36.447234,131361,1495857096,447004079,0,61,378,208,139,124,76,36,39
2017/05/27/11:51:36.469788,131362,1495857096,469580888,0,58,368,204,150,124,74,34,40
2017/05/27/11:51:36.492164,131363,1495857096,491960048,0,60,324,223,159,115,73,38,42
2017/05/27/11:51:36.507281,131364,1495857096,507076025,0,67,351,199,139,97,57,38,41
2017/05/27/11:51:36.545381,131365,1495857096,545192956,0,69,349,185,137,117,66,37,38
2017/05/27/11:51:36.552169,131366,1495857096,551983118,0,70,341,191,136,115,63,35,38
2017/05/27/11:51:36.567158,131367,1495857096,566981077,0,90,419,205,142,117,66,35,39
2017/05/27/11:51:36.600262,131368,1495857096,600100994,0,89,409,178,155,121,65,32,37
2017/05/27/11:51:36.612380,131369,1495857096,612109899,0,83,379,160,152,125,66,31,35
2017/05/27/11:51:36.627200,131370,1495857096,626986026,0,82,377,176,157,116,71,35,36
2017/05/27/11:51:36.659266,131371,1495857096,659111022,0,80,397,223,193,121,69,39,35
2017/05/27/11:51:36.672187,131372,1495857096,672007083,0,56,393,230,190,120,69,40,37
2017/05/27/11:51:36.687132,131373,1495857096,686985015,0,65,402,234,173,113,68,42,40
2017/05/27/11:51:36.709956,131374,1495857096,709561109,0,69,406,256,187,120,68,44,41
2017/05/27/11:51:36.732169,131375,1495857096,731988906,0,78,460,278,186,103,50,42,39
2017/05/27/11:51:36.747225,131376,1495857096,747045040,0,88,506,268,157,95,55,38,39
2017/05/27/11:51:36.771119,131377,1495857096,770950078,0,89,441,261,143,114,65,37,37
2017/05/27/11:51:36.792111,131378,1495857096,791963100,0,84,438,249,133,109,63,34,35
2017/05/27/11:51:36.822894,131379,1495857096,822670936,0,81,437,224,138,106,64,34,33
2017/05/27/11:51:36.829990,131380,1495857096,829777956,0,75,405,202,144,111,62,32,34
2017/05/27/11:51:36.852415,131381,1495857096,852046966,0,65,327,181,147,108,62,35,33
2017/05/27/11:51:36.874652,131382,1495857096,874465942,0,72,352,179,147,86,52,35,34
2017/05/27/11:51:36.889666,131383,1495857096,889463901,0,74,363,208,159,92,63,38,34
2017/05/27/11:51:36.912211,131384,1495857096,912014961,0,76,358,215,147,83,61,36,34
2017/05/27/11:51:36.936102,131385,1495857096,935914993,0,87,380,203,131,74,64,36,38
2017/05/27/11:51:36.949763,131386,1495857096,949470996,0,87,383,199,121,76,63,34,38
2017/05/27/11:51:36.988677,131387,1495857096,988357067,0,79,357,188,128,75,61,35,38
2017/05/27/11:51:36.990110,131388,1495857096,989926099,0,84,397,170,119,72,53,32,37
2017/05/27/11:51:37.009688,131389,1495857097,9490966,0,87,394,176,113,70,52,33,37
2017/05/27/11:51:37.048599,131390,1495857097,48341989,0,72,351,184,114,77,57,34,34
2017/05/27/11:51:37.050076,131391,1495857097,49930095,0,76,402,193,119,82,55,38,35
2017/05/27/11:51:37.069930,131392,1495857097,69502115,0,78,446,205,112,83,54,36,31
2017/05/27/11:51:37.100332,131393,1495857097,100164890,0,68,424,219,121,89,57,39,36
2017/05/27/11:51:37.113388,131394,1495857097,113172054,0,61,437,222,139,94,58,37,33
2017/05/27/11:51:37.129690,131395,1495857097,129489898,0,66,433,230,147,91,55,37,35
2017/05/27/11:51:37.152315,131396,1495857097,152079105,0,61,377,224,141,82,52,33,35
2017/05/27/11:51:37.174789,131397,1495857097,174504995,0,59,352,221,141,85,59,34,38
2017/05/27/11:51:37.189729,131398,1495857097,189531087,0,73,442,217,135,73,58,35,36
2017/05/27/11:51:37.212256,131399,1495857097,212045907,0,73,450,203,114,69,59,38,38
2017/05/27/11:51:37.235662,131400,1495857097,235477924,0,69,442,210,105,73,60,38,37
2017/05/27/11:51:37.265807,131401,1495857097,265295028,0,69,458,226,121,77,66,39,36
2017/05/27/11:51:37.272286,131402,1495857097,272082090,0,71,434,236,152,79,59,38,38
2017/05/27/11:51:37.294705,131403,1495857097,294521093,0,58,327,232,155,81,58,35,37
2017/05/27/11:51:37.309808,131404,1495857097,309561967,0,61,342,234,155,81,59,33,36
2017/05/27/11:51:37.332361,131405,1495857097,332061052,0,61,347,218,154,91,59,32,35
2017/05/27/11:51:37.354719,131406,1495857097,354494094,0,62,368,204,141,91,55,34,35
2017/05/27/11:51:37.381182,131407,1495857097,380971908,0,70,395,237,153,102,58,36,33
2017/05/27/11:51:37.393653,131408,1495857097,393441915,0,72,422,240,152,106,57,35,34
2017/05/27/11:51:37.414696,131409,1495857097,414499998,0,84,415,245,154,104,58,38,35
2017/05/27/11:51:37.433234,131410,1495857097,432952880,0,83,401,251,149,95,51,38,33
2017/05/27/11:51:37.452175,131411,1495857097,451961040,0,80,370,245,148,91,49,36,34
2017/05/27/11:51:37.491071,131412,1495857097,490859985,0,73,376,198,101,74,45,32,31
2017/05/27/11:51:37.492601,131413,1495857097,492432117,0,74,365,209,116,85,45,33,28
2017/05/27/11:51:37.512196,131414,1495857097,511991024,0,62,372,195,109,83,47,29,31
2017/05/27/11:51:37.543089,131415,1495857097,542773962,0,64,373,190,116,77,44,31,33
2017/05/27/11:51:37.549922,131416,1495857097,549587965,0,73,453,185,135,87,50,34,34
2017/05/27/11:51:37.580411,131417,1495857097,580195903,0,71,432,194,134,87,48,35,35
2017/05/27/11:51:37.602870,131418,1495857097,602674007,0,71,421,196,123,74,56,41,39
2017/05/27/11:51:37.609680,131419,1495857097,609519958,0,79,488,206,129,81,55,41,37
2017/05/27/11:51:37.633210,131420,1495857097,633008003,0,82,501,203,130,81,57,39,37
2017/05/27/11:51:37.654720,131421,1495857097,654506921,0,80,415,210,115,73,56,35,36
2017/05/27/11:51:37.669633,131422,1495857097,669445991,0,86,450,222,126,75,59,35,36
2017/05/27/11:51:37.692146,131423,1495857097,691941976,0,90,478,221,129,73,53,26,34
2017/05/27/11:51:37.714898,131424,1495857097,714613914,0,86,422,241,143,68,53,32,40
2017/05/27/11:51:37.729725,131425,1495857097,729521989,0,83,416,239,145,65,54,32,40
2017/05/27/11:51:37.768066,131426,1495857097,767807960,0,83,445,235,145,64,53,36,43
2017/05/27/11:51:37.774685,131427,1495857097,774498939,0,81,426,220,133,59,50,36,42
2017/05/27/11:51:37.789595,131428,1495857097,789433956,0,78,399,190,125,63,49,36,42
2017/05/27/11:51:37.820440,131429,1495857097,820183038,0,81,426,221,119,64,55,38,42
2017/05/27/11:51:37.834684,131430,1495857097,834486007,0,80,425,238,122,75,53,39,41
2017/05/27/11:51:37.849689,131431,1495857097,849507093,0,82,421,255,136,73,51,37,41
2017/05/27/11:51:37.880394,131432,1495857097,880194902,0,90,416,253,142,74,50,37,45
2017/05/27/11:51:37.894737,131433,1495857097,894570112,0,90,412,252,141,72,49,37,44
2017/05/27/11:51:37.909659,131434,1495857097,909503936,0,81,342,194,129,70,44,35,40
2017/05/27/11:51:37.933684,131435,1495857097,933449983,0,80,381,216,131,67,45,34,40
2017/05/27/11:51:37.954614,131436,1495857097,954461097,0,73,354,199,128,75,47,34,37
2017/05/27/11:51:37.969740,131437,1495857097,969506025,0,67,384,208,124,75,47,35,33
2017/05/27/11:51:37.992367,131438,1495857097,992042064,0,65,384,215,122,75,45,36,33
2017/05/27/11:51:38.014865,131439,1495857098,14559984,0,67,375,226,122,76,42,34,31
2017/05/27/11:51:38.045393,131440,1495857098,45196056,0,68,334,188,115,80,41,35,31
2017/05/27/11:51:38.052284,131441,1495857098,52047014,0,69,340,177,107,73,40,33,32
2017/05/27/11:51:38.074638,131442,1495857098,74472904,0,76,369,179,124,73,41,31,29
2017/05/27/11:51:38.098856,131443,1495857098,98510026,0,77,358,174,126,79,44,32,32
2017/05/27/11:51:38.112145,131444,1495857098,111915111,0,75,383,171,129,78,41,29,31
2017/05/27/11:51:38.134634,131445,1495857098,134438037,0,74,383,159,125,74,42,29,30
2017/05/27/11:51:38.157498,131446,1495857098,157116889,0,88,416,175,130,92,47,33,31
2017/05/27/11:51:38.172177,131447,1495857098,171989917,0,79,355,156,114,94,45,32,32
2017/05/27/11:51:38.210489,131448,1495857098,210294961,0,73,335,178,125,89,46,30,30
2017/05/27/11:51:38.217180,131449,1495857098,217021942,0,73,341,179,133,87,49,31,31
2017/05/27/11:51:38.232164,131450,1495857098,231997013,0,83,359,192,149,86,46,31,31
2017/05/27/11:51:38.262806,131451,1495857098,262648105,0,74,355,202,147,76,43,27,29
2017/05/27/11:51:38.277209,131452,1495857098,276998043,0,73,354,207,146,71,44,30,28
2017/05/27/11:51:38.292282,131453,1495857098,291987895,0,76,394,247,162,74,42,30,27
2017/05/27/11:51:38.322851,131454,1495857098,322695970,0,82,421,259,160,80,41,30,30
2017/05/27/11:51:38.337120,131455,1495857098,336963891,0,72,393,250,140,80,43,29,29
2017/05/27/11:51:38.352194,131456,1495857098,352001905,0,66,374,242,137,73,42,29,29
2017/05/27/11:51:38.376192,131457,1495857098,375941991,0,83,490,272,151,78,40,29,37
2017/05/27/11:51:38.397307,131458,1495857098,397057056,0,85,472,232,137,75,39,27,37
2017/05/27/11:51:38.412228,131459,1495857098,412004947,0,85,431,222,146,89,46,28,37
2017/05/27/11:51:38.436691,131460,1495857098,436429977,0,86,448,225,150,85,49,34,38
2017/05/27/11:51:38.457191,131461,1495857098,457015037,0,91,451,223,153,83,49,34,38
2017/05/27/11:51:38.472246,131462,1495857098,472028970,0,75,340,196,145,85,47,31,33
2017/05/27/11:51:38.494686,131463,1495857098,494473934,0,77,406,206,137,86,50,35,35
2017/05/27/11:51:38.517164,131464,1495857098,516988992,0,83,472,209,129,73,46,35,36
2017/05/27/11:51:38.539692,131465,1495857098,539484977,0,81,485,208,132,76,43,34,38
2017/05/27/11:51:38.554751,131466,1495857098,554518938,0,78,478,212,138,83,44,37,39
2017/05/27/11:51:38.577311,131467,1495857098,577060937,0,75,467,228,162,89,45,40,37
2017/05/27/11:51:38.601135,131468,1495857098,600956916,0,70,424,204,158,91,45,38,35
2017/05/27/11:51:38.614648,131469,1495857098,614392995,0,64,417,202,157,92,46,38,33
2017/05/27/11:51:38.653556,131470,1495857098,653352975,0,64,379,217,171,92,46,35,30
2017/05/27/11:51:38.655110,131471,1495857098,654922008,0,62,377,212,172,90,46,34,32
2017/05/27/11:51:38.674686,131472,1495857098,674483060,0,62,389,184,141,76,45,32,33
2017/05/27/11:51:38.713618,131473,1495857098,713406085,0,66,353,188,139,71,43,32,35
2017/05/27/11:51:38.715036,131474,1495857098,714895009,0,60,271,182,132,65,36,32,39
2017/05/27/11:51:38.734808,131475,1495857098,734498977,0,65,320,194,115,63,36,35,43
2017/05/27/11:51:38.766881,131476,1495857098,766380071,0,78,346,200,97,56,36,35,41
2017/05/27/11:51:38.772114,131477,1495857098,771965026,0,84,341,200,98,60,37,37,42
2017/05/27/11:51:38.794709,131478,1495857098,794482946,0,81,360,216,125,60,39,38,42
2017/05/27/11:51:38.817233,131479,1495857098,817039012,0,84,399,228,137,61,40,37,39
2017/05/27/11:51:38.832130,131480,1495857098,831928014,0,88,391,223,140,65,39,35,35
2017/05/27/11:51:38.854862,131481,1495857098,854549884,0,89,393,242,161,68,42,31,34
2017/05/27/11:51:38.877153,131482,1495857098,876986026,0,84,365,243,166,66,40,29,32
2017/05/27/11:51:38.892329,131483,1495857098,892054080,0,90,377,228,144,62,38,26,30
2017/05/27/11:51:38.930423,131484,1495857098,930212020,0,87,353,242,149,58,39,25,28
2017/05/27/11:51:38.937208,131485,1495857098,937000036,0,83,326,230,141,55,39,25,27
2017/05/27/11:51:38.952137,131486,1495857098,951948881,0,72,308,208,114,51,36,25,27
2017/05/27/11:51:38.990387,131487,1495857098,990201950,0,78,339,219,118,51,38,26,30
2017/05/27/11:51:38.997101,131488,1495857098,996933937,0,73,332,251,147,65,42,31,35
2017/05/27/11:51:39.012886,131489,1495857099,12706041,0,69,316,217,139,72,43,32,37
2017/05/27/11:51:39.044348,131490,1495857099,44145107,0,70,347,217,140,70,45,32,36
2017/05/27/11:51:39.057312,131491,1495857099,57142972,0,80,394,219,155,70,47,35,38
2017/05/27/11:51:39.081155,131492,1495857099,80981016,0,74,406,208,160,81,56,37,38
2017/05/27/11:51:39.096154,131493,1495857099,95980882,0,75,402,161,137,81,63,35,33
2017/05/27/11:51:39.117218,131494,1495857099,117008924,0,82,427,172,129,75,64,36,35
2017/05/27/11:51:39.156081,131495,1495857099,155870914,0,81,425,188,151,88,61,36,37
2017/05/27/11:51:39.157562,131496,1495857099,157418012,0,67,372,183,151,101,67,36,36
2017/05/27/11:51:39.177182,131497,1495857099,177014112,0,71,395,176,139,97,61,34,34
2017/05/27/11:51:39.207934,131498,1495857099,207715034,0,71,390,172,141,95,53,34,34
2017/05/27/11:51:39.223013,131499,1495857099,222769021,0,66,387,189,141,97,53,34,32
2017/05/27/11:51:39.237161,131500,1495857099,236979961,0,62,367,171,152,120,55,34,30
2017/05/27/11:51:39.267937,131501,1495857099,267678976,0,64,360,156,138,125,53,37,34
2017/05/27/11:51:39.274676,131502,1495857099,274476051,0,52,286,159,136,122,53,38,36
2017/05/27/11:51:39.297160,131503,1495857099,296977996,0,48,279,159,131,124,53,38,35
2017/05/27/11:51:39.322770,131504,1495857099,322362899,0,49,274,160,132,124,49,38,36
2017/05/27/11:51:39.334650,131505,1495857099,334455966,0,65,294,161,98,96,49,39,37
2017/05/27/11:51:39.357270,131506,1495857099,357033014,0,89,336,166,116,103,42,35,33
2017/05/27/11:51:39.379671,131507,1495857099,379503965,0,97,371,185,134,169,49,33,33
2017/05/27/11:51:39.394564,131508,1495857099,394399881,0,156,527,288,170,183,57,36,55
2017/05/27/11:51:39.432931,131509,1495857099,432665109,0,171,563,298,193,197,62,39,61
2017/05/27/11:51:39.439770,131510,1495857099,439510107,0,170,568,313,204,200,62,41,65
2017/05/27/11:51:39.462148,131511,1495857099,461962938,0,182,664,354,200,189,60,40,73
2017/05/27/11:51:39.487123,131512,1495857099,486732006,0,183,672,346,200,135,53,44,76
2017/05/27/11:51:39.499712,131513,1495857099,499445915,0,138,564,280,176,112,42,41,65
2017/05/27/11:51:39.514798,131514,1495857099,514458894,0,120,537,267,174,94,41,38,65
2017/05/27/11:51:39.538794,131515,1495857099,538449048,0,136,622,294,225,116,52,40,72
2017/05/27/11:51:39.559708,131516,1495857099,559524059,0,108,512,258,252,119,55,42,65
2017/05/27/11:51:39.574829,131517,1495857099,574541091,0,111,498,259,263,125,58,40,68
2017/05/27/11:51:39.600297,131518,1495857099,599941015,0,116,536,252,266,123,58,38,65
2017/05/27/11:51:39.627193,131519,1495857099,626983880,0,113,500,236,248,117,54,37,60
2017/05/27/11:51:39.649665,131520,1495857099,649496078,0,87,355,163,190,79,40,29,49
2017/05/27/11:51:39.658604,131521,1495857099,658456087,0,79,321,131,140,66,37,27,47
2017/05/27/11:51:39.679951,131522,1495857099,679564952,0,73,318,112,94,47,27,25,39
2017/05/27/11:51:39.711245,131523,1495857099,710953950,0,65,270,96,76,39,28,24,39
2017/05/27/11:51:39.718600,131524,1495857099,718408107,0,66,272,79,73,34,27,23,36
2017/05/27/11:51:39.739615,131525,1495857099,739430904,0,66,276,76,66,35,28,25,33
2017/05/27/11:51:39.763757,131526,1495857099,763453006,0,68,273,74,67,33,27,24,29
2017/05/27/11:51:39.778644,131527,1495857099,778450012,0,59,229,70,62,35,28,23,25
2017/05/27/11:51:39.799745,131528,1495857099,799554109,0,55,161,60,53,31,25,24,24
2017/05/27/11:51:39.823585,131529,1495857099,823401927,0,52,146,54,48,32,27,24,25
2017/05/27/11:51:39.838706,131530,1495857099,838443040,0,51,125,50,47,31,26,23,23
2017/05/27/11:51:39.859637,131531,1495857099,859443902,0,49,164,44,38,30,25,23,23
2017/05/27/11:51:39.882440,131532,1495857099,882082939,0,45,184,38,37,27,24,23,25
2017/05/27/11:51:39.898613,131533,1495857099,898433923,0,47,193,85,58,28,24,21,26
2017/05/27/11:51:39.927184,131534,1495857099,926976919,0,48,194,120,108,40,25,22,29
2017/05/27/11:51:39.942397,131535,1495857099,942089080,0,44,196,133,114,41,23,21,28
2017/05/27/11:51:39.958632,131536,1495857099,958463907,0,41,157,137,116,42,25,21,29
2017/05/27/11:51:39.987206,131537,1495857099,987003087,0,48,138,140,118,43,23,21,29
2017/05/27/11:51:40.002163,131538,1495857100,1960992,0,125,132,135,129,53,26,24,34
2017/05/27/11:51:40.018631,131539,1495857100,18454074,0,127,129,149,149,55,24,23,31
2017/05/27/11:51:40.041092,131540,1495857100,40929079,0,134,148,148,151,59,28,26,33
2017/05/27/11:51:40.062341,131541,1495857100,62057018,0,151,143,163,161,61,27,28,37
2017/05/27/11:51:40.078591,131542,1495857100,78397989,0,159,145,177,168,63,28,27,36
2017/05/27/11:51:40.101153,131543,1495857100,100944042,0,143,157,212,229,83,36,34,35
2017/05/27/11:51:40.122187,131544,1495857100,121973991,0,160,172,207,214,85,41,35,39
2017/05/27/11:51:40.146119,131545,1495857100,145916938,0,163,159,220,218,85,38,35,40
2017/05/27/11:51:40.161220,131546,1495857100,160938978,0,152,159,214,215,85,39,35,40
2017/05/27/11:51:40.182133,131547,1495857100,181935071,0,214,170,212,238,90,41,36,47
2017/05/27/11:51:40.206169,131548,1495857100,205976009,0,225,156,194,173,66,32,31,48
2017/05/27/11:51:40.221127,131549,1495857100,220984935,0,232,140,190,155,59,27,33,49
2017/05/27/11:51:40.242331,131550,1495857100,242029905,0,235,136,177,145,55,27,31,50
2017/05/27/11:51:40.258604,131551,1495857100,258429050,0,245,124,179,155,54,30,31,52
2017/05/27/11:51:40.281173,131552,1495857100,280951023,0,207,126,182,150,56,28,30,51
2017/05/27/11:51:40.309767,131553,1495857100,309487104,0,223,122,179,151,58,32,31,54
2017/05/27/11:51:40.324852,131554,1495857100,324547052,0,218,129,175,157,58,34,26,54
2017/05/27/11:51:40.341136,131555,1495857100,340897083,0,261,155,178,162,58,34,26,61
2017/05/27/11:51:40.369664,131556,1495857100,369493007,0,273,165,180,155,57,36,27,61
2017/05/27/11:51:40.384720,131557,1495857100,384502887,0,277,159,182,145,52,37,28,63
2017/05/27/11:51:40.401076,131558,1495857100,400923013,0,364,219,189,145,50,35,27,82
2017/05/27/11:51:40.431350,131559,1495857100,430938959,0,366,211,183,139,45,33,26,82
2017/05/27/11:51:40.444632,131560,1495857100,444451093,0,351,196,181,133,45,32,27,80
2017/05/27/11:51:40.461336,131561,1495857100,460974931,0,368,197,192,136,45,29,25,79
2017/05/27/11:51:40.482089,131562,1495857100,481930971,0,439,227,189,118,42,29,26,83
2017/05/27/11:51:40.512374,131563,1495857100,512059926,0,377,187,166,118,41,28,24,61
2017/05/27/11:51:40.521191,131564,1495857100,520919084,0,396,204,158,111,42,28,24,59
2017/05/27/11:51:40.544035,131565,1495857100,543514966,0,384,213,150,113,43,29,24,55
2017/05/27/11:51:40.564641,131566,1495857100,564471960,0,365,219,137,102,45,27,24,56
2017/05/27/11:51:40.588969,131567,1495857100,588491916,0,303,191,139,105,46,25,22,45
2017/05/27/11:51:40.602132,131568,1495857100,601969957,0,270,176,188,114,50,26,26,43
2017/05/27/11:51:40.624598,131569,1495857100,624459028,0,228,164,194,117,50,26,27,42
2017/05/27/11:51:40.641120,131570,1495857100,640940904,0,226,143,193,116,50,26,26,38
2017/05/27/11:51:40.662119,131571,1495857100,661930084,0,215,143,200,118,48,25,29,35
2017/05/27/11:51:40.684810,131572,1495857100,684490919,0,176,156,235,130,44,24,32,41
2017/05/27/11:51:40.708503,131573,1495857100,708370923,0,188,161,209,121,41,24,31,43
2017/05/27/11:51:40.722219,131574,1495857100,721998929,0,199,172,212,130,45,23,30,42
2017/05/27/11:51:40.744558,131575,1495857100,744426965,0,195,177,212,136,48,25,30,43
2017/05/27/11:51:40.762006,131576,1495857100,761470079,0,183,161,206,142,48,25,28,41
2017/05/27/11:51:40.782091,131577,1495857100,781920909,0,189,140,170,131,53,29,26,34
2017/05/27/11:51:40.804673,131578,1495857100,804510116,0,194,163,160,129,50,27,27,34
2017/05/27/11:51:40.821152,131579,1495857100,820928096,0,186,152,157,119,47,27,28,32
2017/05/27/11:51:40.842154,131580,1495857100,841969966,0,181,153,196,146,53,28,29,34
2017/05/27/11:51:40.873527,131581,1495857100,873404026,0,179,171,207,149,58,29,29,34
2017/05/27/11:51:40.881083,131582,1495857100,880908966,0,192,200,202,142,54,29,30,40
2017/05/27/11:51:40.903665,131583,1495857100,903424978,0,175,186,204,146,55,29,27,38
2017/05/27/11:51:40.932157,131584,1495857100,931962013,0,173,187,204,152,58,29,26,39
2017/05/27/11:51:40.941020,131585,1495857100,940874099,0,177,192,226,162,60,33,28,40
2017/05/27/11:51:40.962198,131586,1495857100,961982011,0,183,190,211,149,55,35,28,42
2017/05/27/11:51:40.986162,131587,1495857100,985933065,0,136,168,200,145,54,33,26,39
2017/05/27/11:51:41.001089,131588,1495857101,929117,0,213,169,221,155,60,38,29,47
2017/05/27/11:51:41.022087,131589,1495857101,21935939,0,218,173,223,160,62,40,31,51
2017/05/27/11:51:41.044605,131590,1495857101,44439077,0,219,165,171,126,53,37,28,49
2017/05/27/11:51:41.061166,131591,1495857101,60935020,0,236,152,167,127,52,35,29,53
2017/05/27/11:51:41.097852,131592,1495857101,97619056,0,267,150,186,133,53,33,29,55
2017/05/27/11:51:41.104610,131593,1495857101,104444980,0,262,149,157,130,49,30,28,51
2017/05/27/11:51:41.128605,131594,1495857101,128447055,0,270,143,155,130,50,30,26,50
2017/05/27/11:51:41.151016,131595,1495857101,150882005,0,273,144,151,118,54,32,26,50
2017/05/27/11:51:41.164721,131596,1495857101,164480924,0,258,180,149,116,53,31,26,53
2017/05/27/11:51:41.185230,131597,1495857101,185036897,0,239,213,136,123,56,33,27,50
2017/05/27/11:51:41.209622,131598,1495857101,209464073,0,164,204,123,106,53,33,27,48
2017/05/27/11:51:41.224613,131599,1495857101,224441051,0,139,198,116,94,49,30,27,44
2017/05/27/11:51:41.241097,131600,1495857101,240891933,0,148,208,116,118,54,28,29,49
2017/05/27/11:51:41.263579,131601,1495857101,263422012,0,143,178,136,135,57,29,28,42
2017/05/27/11:51:41.284667,131602,1495857101,284497022,0,122,117,132,126,53,25,26,46
2017/05/27/11:51:41.301085,131603,1495857101,300935029,0,128,132,139,131,55,23,23,44
2017/05/27/11:51:41.322114,131604,1495857101,321927070,0,130,175,145,131,55,23,26,48
2017/05/27/11:51:41.344717,131605,1495857101,344466924,0,119,169,150,110,46,24,24,43
2017/05/27/11:51:41.376281,131606,1495857101,375941038,0,134,168,141,95,44,26,26,46
2017/05/27/11:51:41.383559,131607,1495857101,383393049,0,223,202,160,109,45,28,29,50
2017/05/27/11:51:41.404546,131608,1495857101,404380083,0,225,211,156,98,41,26,29,49
2017/05/27/11:51:41.421101,131609,1495857101,420907974,0,228,185,146,96,42,27,27,48
2017/05/27/11:51:41.443645,131610,1495857101,443423032,0,228,183,137,98,42,26,26,49
2017/05/27/11:51:41.464668,131611,1495857101,464451074,0,225,230,134,99,39,24,26,46
2017/05/27/11:51:41.481544,131612,1495857101,481374979,0,128,200,101,82,36,22,23,35
2017/05/27/11:51:41.503603,131613,1495857101,503413915,0,118,181,102,85,38,26,25,36
2017/05/27/11:51:41.540622,131614,1495857101,540282964,0,103,177,103,84,36,24,25,32
2017/05/27/11:51:41.554733,131615,1495857101,554523944,0,87,175,116,83,36,22,25,31
2017/05/27/11:51:41.563664,131616,1495857101,563478946,0,82,140,138,91,37,23,25,29
2017/05/27/11:51:41.584906,131617,1495857101,584577083,0,92,152,156,95,39,23,24,31
2017/05/27/11:51:41.607107,131618,1495857101,606926918,0,88,155,172,100,43,23,22,33
2017/05/27/11:51:41.623772,131619,1495857101,623456001,0,97,156,173,98,42,24,23,33
2017/05/27/11:51:41.652131,131620,1495857101,651916980,0,127,168,161,93,40,23,23,34
2017/05/27/11:51:41.668350,131621,1495857101,668082952,0,131,139,144,83,38,24,23,33
2017/05/27/11:51:41.683628,131622,1495857101,683403015,0,121,130,131,95,38,23,23,30
2017/05/27/11:51:41.706105,131623,1495857101,705899000,0,123,122,110,89,31,22,24,27
2017/05/27/11:51:41.727184,131624,1495857101,726969003,0,124,156,105,94,30,22,23,28
2017/05/27/11:51:41.743601,131625,1495857101,743412017,0,126,160,110,102,30,22,23,27
2017/05/27/11:51:41.764845,131626,1495857101,764523983,0,113,165,100,100,34,21,21,27
2017/05/27/11:51:41.787152,131627,1495857101,786951065,0,113,180,101,83,34,23,21,27
2017/05/27/11:51:41.803646,131628,1495857101,803425073,0,112,192,114,93,37,23,21,29
2017/05/27/11:51:41.824618,131629,1495857101,824439048,0,109,194,113,89,36,21,21,29
2017/05/27/11:51:41.847337,131630,1495857101,847068071,0,78,190,113,84,37,23,20,26
2017/05/27/11:51:41.863638,131631,1495857101,863421916,0,74,181,117,85,35,23,20,26
2017/05/27/11:51:41.884710,131632,1495857101,884438991,0,72,170,131,105,40,26,20,28
2017/05/27/11:51:41.907106,131633,1495857101,906939983,0,68,159,117,94,38,27,19,25
2017/05/27/11:51:41.923657,131634,1495857101,923471927,0,72,150,114,93,36,27,19,24
2017/05/27/11:51:41.944718,131635,1495857101,944509983,0,76,149,111,98,41,29,21,26
2017/05/27/11:51:41.967147,131636,1495857101,966942071,0,80,162,110,105,43,30,23,25
2017/05/27/11:51:41.983665,131637,1495857101,983403921,0,86,157,73,82,40,27,23,24
2017/05/27/11:51:42.004694,131638,1495857102,4491090,0,89,161,63,80,38,26,22,26
2017/05/27/11:51:42.027133,131639,1495857102,26923894,0,80,128,64,80,40,26,23,26
2017/05/27/11:51:42.049717,131640,1495857102,49403905,0,70,121,146,105,47,25,25,26
2017/05/27/11:51:42.064810,131641,1495857102,64476966,0,86,102,147,96,45,25,23,28
2017/05/27/11:51:42.087121,131642,1495857102,86919069,0,81,102,158,95,43,24,24,30
2017/05/27/11:51:42.109676,131643,1495857102,109482049,0,81,90,161,95,43,23,25,31
2017/05/27/11:51:42.124604,131644,1495857102,124413013,0,87,96,163,95,43,24,26,31
2017/05/27/11:51:42.147303,131645,1495857102,147041082,0,83,100,91,53,32,21,24,30
2017/05/27/11:51:42.163770,131646,1495857102,163439989,0,60,108,80,46,29,20,24,26
2017/05/27/11:51:42.184575,131647,1495857102,184379100,0,70,98,53,38,29,22,23,27
2017/05/27/11:51:42.207065,131648,1495857102,206907033,0,70,103,43,35,27,22,23,24
2017/05/27/11:51:42.223629,131649,1495857102,223428010,0,89,110,55,39,27,22,22,24
2017/05/27/11:51:42.244804,131650,1495857102,244565010,0,90,91,55,38,25,22,20,25
2017/05/27/11:51:42.267218,131651,1495857102,267005920,0,93,93,55,39,24,21,21,26
2017/05/27/11:51:42.283590,131652,1495857102,283390998,0,91,98,56,38,23,22,20,24
2017/05/27/11:51:42.304688,131653,1495857102,304461956,0,94,98,55,38,24,21,17,24
2017/05/27/11:51:42.327239,131654,1495857102,326967954,0,82,81,35,30,22,21,16,22
2017/05/27/11:51:42.343641,131655,1495857102,343426942,0,80,84,31,26,23,20,17,22
2017/05/27/11:51:42.364575,131656,1495857102,364443063,0,77,97,49,33,23,20,16,21
2017/05/27/11:51:42.387252,131657,1495857102,386956930,0,68,97,51,37,24,19,17,21
2017/05/27/11:51:42.403591,131658,1495857102,403412103,0,66,95,52,37,25,20,19,22
2017/05/27/11:51:42.424642,131659,1495857102,424436092,0,48,98,52,37,24,19,20,21
2017/05/27/11:51:42.447205,131660,1495857102,446994066,0,58,96,53,38,24,21,20,23
2017/05/27/11:51:42.463723,131661,1495857102,463481903,0,55,71,34,30,24,21,21,23
2017/05/27/11:51:42.484629,131662,1495857102,484438896,0,56,66,36,28,25,21,22,23
2017/05/27/11:51:42.507123,131663,1495857102,506941080,0,55,125,48,31,25,20,23,22
2017/05/27/11:51:42.523662,131664,1495857102,523400068,0,58,128,47,32,26,21,24,23
2017/05/27/11:51:42.544696,131665,1495857102,544456005,0,48,128,48,30,24,18,23,21
2017/05/27/11:51:42.567123,131666,1495857102,566947937,0,45,127,48,30,24,19,23,20
2017/05/27/11:51:42.583610,131667,1495857102,583437919,0,46,127,45,29,21,19,22,19
2017/05/27/11:51:42.604641,131668,1495857102,604427099,0,44,72,32,24,21,20,21,20
2017/05/27/11:51:42.627070,131669,1495857102,626868009,0,42,94,38,19,22,20,19,22
2017/05/27/11:51:42.643575,131670,1495857102,643374919,0,45,103,37,22,22,21,20,22
2017/05/27/11:51:42.664621,131671,1495857102,664433956,0,50,106,38,23,22,19,20,22
2017/05/27/11:51:42.688770,131672,1495857102,686980962,0,48,107,37,22,22,18,21,22
2017/05/27/11:51:42.703620,131673,1495857102,703389883,0,43,118,51,31,23,16,21,21
2017/05/27/11:51:42.724715,131674,1495857102,724478006,0,44,98,57,35,24,17,22,19
2017/05/27/11:51:42.747201,131675,1495857102,747000932,0,46,92,55,36,25,18,22,20
2017/05/27/11:51:42.763682,131676,1495857102,763403892,0,44,89,55,35,25,20,20,21
2017/05/27/11:51:42.788169,131677,1495857102,787957906,0,45,97,89,45,28,21,19,19
2017/05/27/11:51:42.807166,131678,1495857102,806950092,0,48,90,84,42,28,24,19,21
2017/05/27/11:51:42.829635,131679,1495857102,829421997,0,48,86,78,39,27,25,18,20
2017/05/27/11:51:42.844681,131680,1495857102,844480037,0,49,92,79,38,28,26,20,20
2017/05/27/11:51:42.867211,131681,1495857102,866997003,0,47,92,80,38,28,25,21,22
2017/05/27/11:51:42.889662,131682,1495857102,889450073,0,46,81,41,27,26,25,21,23
2017/05/27/11:51:42.904710,131683,1495857102,904519081,0,41,86,37,23,25,24,21,22
2017/05/27/11:51:42.927115,131684,1495857102,926898002,0,46,100,43,22,25,23,21,22
2017/05/27/11:51:42.949623,131685,1495857102,949418067,0,41,102,48,22,24,23,19,21
2017/05/27/11:51:42.964634,131686,1495857102,964432001,0,40,101,50,24,25,24,24,21
2017/05/27/11:51:42.987124,131687,1495857102,986915111,0,44,104,50,24,24,24,25,22
2017/05/27/11:51:43.009622,131688,1495857103,9416103,0,45,98,52,27,24,25,26,22
2017/05/27/11:51:43.024884,131689,1495857103,24570941,0,41,86,48,28,22,26,35,32
2017/05/27/11:51:43.047152,131690,1495857103,46969890,0,41,75,42,28,22,25,37,33
2017/05/27/11:51:43.069620,131691,1495857103,69434881,0,50,74,37,25,21,24,34,32
2017/05/27/11:51:43.084640,131692,1495857103,84419965,0,49,76,40,24,21,25,35,32
2017/05/27/11:51:43.107340,131693,1495857103,107067108,0,45,66,35,22,22,22,35,32
2017/05/27/11:51:43.129628,131694,1495857103,129421949,0,42,73,34,22,21,22,26,23
2017/05/27/11:51:43.146090,131695,1495857103,145912885,0,44,100,37,22,23,22,23,22
2017/05/27/11:51:43.167131,131696,1495857103,166938066,0,40,120,41,24,22,20,22,22
2017/05/27/11:51:43.189657,131697,1495857103,189461946,0,46,127,39,24,22,22,21,21
2017/05/27/11:51:43.206039,131698,1495857103,205909013,0,46,126,39,23,21,22,23,22
2017/05/27/11:51:43.227224,131699,1495857103,226946115,0,47,122,53,32,23,21,22,23
2017/05/27/11:51:43.249552,131700,1495857103,249416112,0,50,116,58,34,22,22,23,25
2017/05/27/11:51:43.266207,131701,1495857103,265923976,0,47,97,56,34,22,23,23,24
2017/05/27/11:51:43.287257,131702,1495857103,286906957,0,43,87,54,33,22,20,24,25
2017/05/27/11:51:43.309920,131703,1495857103,309432983,0,43,90,55,34,23,20,20,24
2017/05/27/11:51:43.332119,131704,1495857103,331901073,0,41,86,41,27,21,20,20,23
2017/05/27/11:51:43.347212,131705,1495857103,346960067,0,41,104,34,24,21,21,19,22
2017/05/27/11:51:43.369643,131706,1495857103,369460105,0,41,112,34,23,22,20,19,22
2017/05/27/11:51:43.386089,131707,1495857103,385902881,0,43,144,45,23,22,21,23,24
2017/05/27/11:51:43.407074,131708,1495857103,406907081,0,43,149,45,22,21,20,23,22
2017/05/27/11:51:43.429599,131709,1495857103,429399967,0,42,147,45,25,23,20,24,22
2017/05/27/11:51:43.446096,131710,1495857103,445874929,0,41,145,43,24,23,18,24,22
2017/05/27/11:51:43.467184,131711,1495857103,466963052,0,41,148,43,24,23,20,24,23
2017/05/27/11:51:43.489622,131712,1495857103,489423036,0,35,119,34,24,24,19,21,21
2017/05/27/11:51:43.506055,131713,1495857103,505882978,0,37,111,33,23,22,19,22,21
2017/05/27/11:51:43.527090,131714,1495857103,526906013,0,39,116,31,20,20,18,22,23
2017/05/27/11:51:43.549669,131715,1495857103,549470901,0,33,86,31,20,19,18,22,23
2017/05/27/11:51:43.566243,131716,1495857103,565948963,0,30,63,29,21,20,18,23,23
2017/05/27/11:51:43.587109,131717,1495857103,586925983,0,31,67,26,21,20,19,22,23
2017/05/27/11:51:43.609893,131718,1495857103,609570980,0,29,77,30,22,21,20,21,24
2017/05/27/11:51:43.626160,131719,1495857103,625952005,0,28,76,33,23,21,22,25,22
2017/05/27/11:51:43.647248,131720,1495857103,647013902,0,29,73,30,24,21,22,27,22
2017/05/27/11:51:43.669589,131721,1495857103,669415950,0,28,73,31,24,19,22,26,21
2017/05/27/11:51:43.686133,131722,1495857103,685920000,0,27,65,33,25,19,22,24,19
2017/05/27/11:51:43.707187,131723,1495857103,707016944,0,28,64,29,23,18,20,26,18
2017/05/27/11:51:43.729624,131724,1495857103,729437112,0,33,88,32,22,18,18,22,18
2017/05/27/11:51:43.752128,131725,1495857103,751945018,0,34,93,31,20,17,16,22,20
2017/05/27/11:51:43.767133,131726,1495857103,766962051,0,35,99,31,20,18,17,24,21
2017/05/27/11:51:43.791118,131727,1495857103,790909051,0,35,101,30,19,19,17,25,22
2017/05/27/11:51:43.812191,131728,1495857103,811922073,0,34,102,33,20,19,18,24,23
2017/05/27/11:51:43.827355,131729,1495857103,827100992,0,30,90,35,21,18,18,24,22
2017/05/27/11:51:43.849632,131730,1495857103,849432945,0,30,104,36,22,20,21,21,21
2017/05/27/11:51:43.872446,131731,1495857103,872049093,0,31,99,36,21,21,20,18,21
2017/05/27/11:51:43.887206,131732,1495857103,886995077,0,28,96,38,24,21,21,19,20
2017/05/27/11:51:43.912775,131733,1495857103,909519910,0,31,96,39,24,22,22,21,19
2017/05/27/11:51:43.932153,131734,1495857103,931951045,0,41,96,35,24,23,22,21,20
2017/05/27/11:51:43.947145,131735,1495857103,946933031,0,41,89,37,24,22,21,21,20
2017/05/27/11:51:43.969692,131736,1495857103,969465017,0,42,91,36,24,21,22,23,23
2017/05/27/11:51:43.992146,131737,1495857103,991954088,0,44,117,61,34,24,21,23,24
2017/05/27/11:51:44.007148,131738,1495857104,6961107,0,42,112,62,37,25,22,23,24
2017/05/27/11:51:44.029646,131739,1495857104,29444932,0,33,104,62,37,25,22,25,23
2017/05/27/11:51:44.052110,131740,1495857104,51928997,0,30,103,62,38,26,23,27,22
2017/05/27/11:51:44.067263,131741,1495857104,67008972,0,30,105,63,38,26,22,27,19
2017/05/27/11:51:44.089735,131742,1495857104,89411020,0,34,105,38,27,25,24,26,20
2017/05/27/11:51:44.112076,131743,1495857104,111896991,0,32,104,35,22,24,21,24,18
2017/05/27/11:51:44.127095,131744,1495857104,126919031,0,35,109,32,24,25,23,35,23
2017/05/27/11:51:44.161213,131745,1495857104,160995006,0,36,107,30,24,23,22,36,24
2017/05/27/11:51:44.172306,131746,1495857104,171962022,0,43,141,36,25,24,22,36,24
2017/05/27/11:51:44.187150,131747,1495857104,186940908,0,38,120,34,24,22,20,36,24
2017/05/27/11:51:44.209649,131748,1495857104,209453105,0,40,123,36,24,23,20,37,26
2017/05/27/11:51:44.232176,131749,1495857104,231981992,0,38,122,40,22,22,20,28,23
2017/05/27/11:51:44.247025,131750,1495857104,246881008,0,42,154,46,22,23,19,26,24
2017/05/27/11:51:44.269695,131751,1495857104,269491910,0,34,131,42,20,23,20,25,23
2017/05/27/11:51:44.292294,131752,1495857104,292009115,0,35,133,42,23,24,19,25,22
