time,.header.seq,.header.stamp.secs,.header.stamp.nsecs,.header.frame_id,.ch0,.ch1,.ch2,.ch3,.ch4,.ch5,.ch6,.ch7
2017/05/27/11:49:55.424407,126323,1495856995,424173116,0,34,66,72,46,33,72,164,128
2017/05/27/11:49:55.445454,126324,1495856995,445240974,0,39,73,83,72,43,70,139,113
2017/05/27/11:49:55.460349,126325,1495856995,460170984,0,41,99,87,79,48,44,97,61
2017/05/27/11:49:55.484508,126326,1495856995,484191894,0,64,121,86,78,49,53,122,79
2017/05/27/11:49:55.505515,126327,1495856995,505215883,0,72,144,79,83,51,50,120,78
2017/05/27/11:49:55.536102,126328,1495856995,535902976,0,120,182,130,160,82,57,124,78
2017/05/27/11:49:55.542837,126329,1495856995,542681932,0,173,196,188,189,100,65,121,84
2017/05/27/11:49:55.565636,126330,1495856995,565280914,0,186,208,189,190,102,63,113,82
2017/05/27/11:49:55.587935,126331,1495856995,587699890,0,199,207,210,209,129,65,105,95
2017/05/27/11:49:55.603200,126332,1495856995,602752923,0,210,306,255,231,137,68,106,94
2017/05/27/11:49:55.625501,126333,1495856995,625323057,0,209,310,312,249,136,67,101,91
2017/05/27/11:49:55.641849,126334,1495856995,641658067,0,262,355,299,263,133,66,104,87
2017/05/27/11:49:55.663001,126335,1495856995,662761926,0,313,374,322,286,142,74,104,90
2017/05/27/11:49:55.701783,126336,1495856995,701577901,0,440,598,384,306,129,75,73,78
2017/05/27/11:49:55.703280,126337,1495856995,703139066,0,445,613,374,306,139,78,68,78
2017/05/27/11:49:55.722886,126338,1495856995,722704887,0,446,627,340,271,139,82,65,76
2017/05/27/11:49:55.761817,126339,1495856995,761620998,0,434,725,386,248,131,79,54,79
2017/05/27/11:49:55.763269,126340,1495856995,763124942,0,439,733,396,252,130,73,50,78
2017/05/27/11:49:55.782806,126341,1495856995,782656908,0,446,743,373,229,125,71,52,77
2017/05/27/11:49:55.814055,126342,1495856995,813858985,0,464,789,398,218,114,76,50,80
2017/05/27/11:49:55.827889,126343,1495856995,827667951,0,472,811,386,219,107,79,52,82
2017/05/27/11:49:55.843059,126344,1495856995,842760086,0,518,746,523,388,168,92,58,88
2017/05/27/11:49:55.865509,126345,1495856995,865283966,0,543,758,537,417,192,98,59,93
2017/05/27/11:49:55.887841,126346,1495856995,887665987,0,485,655,540,429,195,93,52,86
2017/05/27/11:49:55.902879,126347,1495856995,902689933,0,480,550,530,443,202,93,55,85
2017/05/27/11:49:55.926834,126348,1495856995,926623106,0,517,602,641,529,226,95,61,93
2017/05/27/11:49:55.947907,126349,1495856995,947705030,0,458,569,505,425,192,90,56,85
2017/05/27/11:49:55.962864,126350,1495856995,962663888,0,407,552,481,380,169,83,56,80
2017/05/27/11:49:55.985294,126351,1495856995,985141038,0,372,509,462,373,171,84,56,71
2017/05/27/11:49:56.007818,126352,1495856996,7684946,0,383,521,451,353,162,77,52,71
2017/05/27/11:49:56.023030,126353,1495856996,22861003,0,346,428,363,265,150,86,45,66
2017/05/27/11:49:56.045819,126354,1495856996,45656919,0,347,444,402,276,144,87,44,71
2017/05/27/11:49:56.067793,126355,1495856996,67670106,0,330,449,393,273,136,90,45,68
2017/05/27/11:49:56.091757,126356,1495856996,91615915,0,313,400,384,275,137,91,49,66
2017/05/27/11:49:56.105344,126357,1495856996,105142116,0,416,427,451,351,171,103,60,81
2017/05/27/11:49:56.127965,126358,1495856996,127763032,0,396,423,413,339,159,92,63,79
2017/05/27/11:49:56.142813,126359,1495856996,142673015,0,399,408,390,330,168,103,64,76
2017/05/27/11:49:56.165324,126360,1495856996,165170907,0,421,389,402,344,181,110,66,80
2017/05/27/11:49:56.196494,126361,1495856996,196285963,0,417,394,472,369,191,113,69,84
2017/05/27/11:49:56.204319,126362,1495856996,204144954,0,300,388,439,335,186,110,64,71
2017/05/27/11:49:56.225311,126363,1495856996,225183963,0,322,364,440,324,191,109,59,70
2017/05/27/11:49:56.256518,126364,1495856996,256350994,0,312,324,416,310,184,96,62,68
2017/05/27/11:49:56.263000,126365,1495856996,262710094,0,384,345,410,300,170,90,61,68
2017/05/27/11:49:56.285271,126366,1495856996,285132884,0,397,375,378,289,175,90,62,68
2017/05/27/11:49:56.318264,126367,1495856996,317615032,0,390,406,370,261,155,85,60,73
2017/05/27/11:49:56.323015,126368,1495856996,322714090,0,367,405,328,227,135,81,59,69
2017/05/27/11:49:56.345560,126369,1495856996,345264911,0,365,417,346,256,136,76,53,66
2017/05/27/11:49:56.369282,126370,1495856996,369147062,0,292,404,368,274,138,72,49,64
2017/05/27/11:49:56.382838,126371,1495856996,382683992,0,287,396,307,233,106,67,45,62
2017/05/27/11:49:56.405297,126372,1495856996,405163049,0,319,305,273,222,100,72,45,60
2017/05/27/11:49:56.427912,126373,1495856996,427714109,0,322,323,300,238,109,72,46,64
2017/05/27/11:49:56.442887,126374,1495856996,442679882,0,302,364,308,212,110,80,47,65
2017/05/27/11:49:56.481037,126375,1495856996,480865955,0,283,367,394,234,126,81,48,63
2017/05/27/11:49:56.487768,126376,1495856996,487643957,0,273,400,398,232,132,93,50,59
2017/05/27/11:49:56.502965,126377,1495856996,502731084,0,211,421,419,246,131,86,47,52
2017/05/27/11:49:56.535230,126378,1495856996,534826040,0,239,475,444,265,127,89,54,57
2017/05/27/11:49:56.548117,126379,1495856996,547727108,0,256,441,445,281,133,88,57,61
2017/05/27/11:49:56.570402,126380,1495856996,570167064,0,228,450,390,266,134,99,60,63
2017/05/27/11:49:56.586984,126381,1495856996,586707115,0,218,406,435,306,139,94,62,72
2017/05/27/11:49:56.607975,126382,1495856996,607798099,0,234,426,410,288,132,96,65,74
2017/05/27/11:49:56.624593,126383,1495856996,624221086,0,192,381,370,253,131,97,60,70
2017/05/27/11:49:56.645385,126384,1495856996,645210027,0,181,374,358,247,130,91,55,64
2017/05/27/11:49:56.667884,126385,1495856996,667676925,0,180,394,364,239,124,84,55,65
2017/05/27/11:49:56.682825,126386,1495856996,682687997,0,172,403,317,193,122,86,46,57
2017/05/27/11:49:56.706870,126387,1495856996,706657886,0,151,375,344,210,129,82,47,54
2017/05/27/11:49:56.736316,126388,1495856996,735891103,0,151,413,391,234,127,77,49,50
2017/05/27/11:49:56.758582,126389,1495856996,758388996,0,134,423,415,246,130,83,51,49
2017/05/27/11:49:56.765376,126390,1495856996,765182971,0,130,406,398,240,125,93,51,50
2017/05/27/11:49:56.787898,126391,1495856996,787713050,0,128,466,447,263,139,91,57,50
2017/05/27/11:49:56.811802,126392,1495856996,811616897,0,117,514,442,259,137,90,56,51
2017/05/27/11:49:56.827821,126393,1495856996,827649116,0,103,473,485,288,171,101,55,54
2017/05/27/11:49:56.847855,126394,1495856996,847664117,0,99,477,456,262,169,99,55,55
2017/05/27/11:49:56.871836,126395,1495856996,871670961,0,93,458,468,262,170,91,53,50
2017/05/27/11:49:56.885408,126396,1495856996,885220050,0,85,392,411,234,165,94,49,45
2017/05/27/11:49:56.923577,126397,1495856996,923392057,0,86,365,411,254,184,103,53,48
2017/05/27/11:49:56.938556,126398,1495856996,938388109,0,77,347,344,212,155,95,52,41
2017/05/27/11:49:56.953016,126399,1495856996,952698945,0,78,339,361,227,149,93,52,42
2017/05/27/11:49:56.967953,126400,1495856996,967746973,0,79,368,373,252,162,97,51,41
2017/05/27/11:49:56.990493,126401,1495856996,990276098,0,79,376,374,253,147,102,54,43
2017/05/27/11:49:57.005445,126402,1495856997,5230903,0,71,351,387,229,130,102,48,36
2017/05/27/11:49:57.036832,126403,1495856997,36606073,0,76,345,384,244,143,108,47,38
2017/05/27/11:49:57.050489,126404,1495856997,50168991,0,76,331,362,231,142,108,45,35
2017/05/27/11:49:57.065398,126405,1495856997,65206050,0,68,334,306,192,116,98,43,32
2017/05/27/11:49:57.089797,126406,1495856997,89603900,0,66,325,297,191,123,83,37,31
2017/05/27/11:49:57.110384,126407,1495856997,110177993,0,65,323,342,259,135,72,38,34
2017/05/27/11:49:57.125378,126408,1495856997,125179052,0,74,399,317,246,121,68,38,35
2017/05/27/11:49:57.149752,126409,1495856997,149594068,0,72,411,316,246,122,72,40,39
2017/05/27/11:49:57.170495,126410,1495856997,170236110,0,69,378,301,241,123,86,46,39
2017/05/27/11:49:57.185457,126411,1495856997,185173034,0,89,428,356,275,120,90,48,45
2017/05/27/11:49:57.207841,126412,1495856997,207638025,0,86,402,279,213,105,88,47,42
2017/05/27/11:49:57.230621,126413,1495856997,230182886,0,79,362,257,202,101,89,50,43
2017/05/27/11:49:57.252979,126414,1495856997,252696037,0,79,356,257,196,96,84,48,41
2017/05/27/11:49:57.268155,126415,1495856997,267904043,0,87,381,268,214,98,75,41,45
2017/05/27/11:49:57.290358,126416,1495856997,290167093,0,72,322,193,169,102,71,39,41
2017/05/27/11:49:57.307846,126417,1495856997,306623935,0,71,331,201,171,89,71,36,42
2017/05/27/11:49:57.327797,126418,1495856997,327658891,0,76,320,202,167,99,65,37,45
2017/05/27/11:49:57.358832,126419,1495856997,358479976,0,93,423,215,174,104,65,38,45
2017/05/27/11:49:57.367218,126420,1495856997,365119934,0,95,401,219,169,100,58,38,43
2017/05/27/11:49:57.388007,126421,1495856997,387732028,0,99,456,240,164,99,55,38,42
2017/05/27/11:49:57.410348,126422,1495856997,410152912,0,110,514,249,165,107,63,39,45
2017/05/27/11:49:57.434355,126423,1495856997,434165954,0,112,516,256,157,107,82,34,43
2017/05/27/11:49:57.447957,126424,1495856997,447729110,0,102,452,259,172,149,81,36,44
2017/05/27/11:49:57.478561,126425,1495856997,478415966,0,163,454,256,163,152,81,38,46
2017/05/27/11:49:57.485538,126426,1495856997,485265016,0,199,425,289,176,157,84,39,49
2017/05/27/11:49:57.507915,126427,1495856997,507704019,0,201,388,283,166,221,91,40,48
2017/05/27/11:49:57.538630,126428,1495856997,538414955,0,201,372,267,181,241,85,45,50
2017/05/27/11:49:57.545423,126429,1495856997,545273065,0,199,425,279,172,230,87,43,48
2017/05/27/11:49:57.567831,126430,1495856997,567646980,0,156,422,274,174,246,94,44,44
2017/05/27/11:49:57.590343,126431,1495856997,590154886,0,112,405,237,176,251,93,42,43
2017/05/27/11:49:57.606793,126432,1495856997,606646060,0,108,376,227,195,267,82,42,42
2017/05/27/11:49:57.635659,126433,1495856997,635451078,0,100,359,233,200,257,78,36,40
2017/05/27/11:49:57.650449,126434,1495856997,650204896,0,112,359,211,195,249,78,38,43
2017/05/27/11:49:57.667756,126435,1495856997,667594909,0,106,382,241,203,238,72,38,45
2017/05/27/11:49:57.687873,126436,1495856997,687666893,0,93,372,235,192,234,81,43,43
2017/05/27/11:49:57.710661,126437,1495856997,710202932,0,107,420,234,177,164,90,46,42
2017/05/27/11:49:57.732986,126438,1495856997,732724905,0,110,431,299,192,159,93,47,39
2017/05/27/11:49:57.755580,126439,1495856997,755256891,0,101,384,308,195,170,98,49,47
2017/05/27/11:49:57.770301,126440,1495856997,770147085,0,105,405,291,189,178,95,46,46
2017/05/27/11:49:57.793099,126441,1495856997,792675971,0,107,399,275,182,184,85,44,49
2017/05/27/11:49:57.809361,126442,1495856997,809161901,0,86,347,299,186,170,81,41,48
2017/05/27/11:49:57.830495,126443,1495856997,830233097,0,81,348,273,160,173,85,46,51
2017/05/27/11:49:57.861073,126444,1495856997,860878944,0,77,314,260,157,168,87,45,42
2017/05/27/11:49:57.867888,126445,1495856997,867682933,0,73,273,250,143,153,91,54,43
2017/05/27/11:49:57.890665,126446,1495856997,890273094,0,86,382,297,169,143,92,56,43
2017/05/27/11:49:57.921507,126447,1495856997,921359062,0,87,454,285,208,142,85,56,46
2017/05/27/11:49:57.928046,126448,1495856997,927637100,0,94,450,247,209,133,78,54,44
2017/05/27/11:49:57.950315,126449,1495856997,950162887,0,95,448,245,229,129,81,55,46
2017/05/27/11:49:57.981912,126450,1495856997,981384038,0,88,508,283,234,137,81,48,45
2017/05/27/11:49:57.987986,126451,1495856997,987766027,0,74,434,232,211,132,80,49,47
2017/05/27/11:49:58.010528,126452,1495856998,10237932,0,69,341,233,184,143,85,51,48
2017/05/27/11:49:58.032851,126453,1495856998,32685995,0,66,364,259,175,142,81,49,47
2017/05/27/11:49:58.047843,126454,1495856998,47719955,0,74,396,274,158,125,72,47,46
2017/05/27/11:49:58.070328,126455,1495856998,70164918,0,80,300,256,167,126,74,51,45
2017/05/27/11:49:58.092915,126456,1495856998,92730998,0,92,374,269,170,138,86,48,48
2017/05/27/11:49:58.107839,126457,1495856998,107669115,0,97,397,248,151,127,81,49,49
2017/05/27/11:49:58.146162,126458,1495856998,145944118,0,98,386,241,154,122,82,52,51
2017/05/27/11:49:58.152953,126459,1495856998,152729988,0,94,397,226,135,128,80,49,52
2017/05/27/11:49:58.167858,126460,1495856998,167718887,0,90,391,215,130,119,73,44,50
2017/05/27/11:49:58.190305,126461,1495856998,190175056,0,77,381,215,130,100,58,43,43
2017/05/27/11:49:58.213398,126462,1495856998,212663888,0,74,387,210,127,132,60,37,39
2017/05/27/11:49:58.227887,126463,1495856998,227730035,0,73,416,211,160,138,52,33,34
2017/05/27/11:49:58.251829,126464,1495856998,251635074,0,70,397,245,196,138,51,32,33
2017/05/27/11:49:58.273278,126465,1495856998,272794008,0,67,395,239,197,157,58,37,40
2017/05/27/11:49:58.287778,126466,1495856998,287662982,0,74,391,225,197,163,60,36,41
2017/05/27/11:49:58.310431,126467,1495856998,310199975,0,70,381,236,197,153,67,38,41
2017/05/27/11:49:58.332860,126468,1495856998,332672119,0,70,371,238,201,151,69,40,47
2017/05/27/11:49:58.347877,126469,1495856998,347659111,0,94,467,344,250,164,74,44,49
2017/05/27/11:49:58.370671,126470,1495856998,370239019,0,101,489,341,248,152,75,44,47
2017/05/27/11:49:58.392859,126471,1495856998,392688035,0,101,460,351,259,161,85,48,47
2017/05/27/11:49:58.408079,126472,1495856998,407752037,0,116,494,363,262,154,76,50,48
2017/05/27/11:49:58.430519,126473,1495856998,430272102,0,116,480,348,236,150,80,51,45
2017/05/27/11:49:58.452886,126474,1495856998,452676057,0,96,394,248,163,138,80,50,43
2017/05/27/11:49:58.469342,126475,1495856998,469151973,0,94,413,257,161,140,83,50,41
2017/05/27/11:49:58.490334,126476,1495856998,490158081,0,91,410,244,144,128,75,45,46
2017/05/27/11:49:58.512894,126477,1495856998,512686014,0,80,396,259,158,121,80,47,48
2017/05/27/11:49:58.527929,126478,1495856998,527719974,0,79,384,264,185,127,84,48,50
2017/05/27/11:49:58.550329,126479,1495856998,550158977,0,78,359,219,173,162,97,55,50
2017/05/27/11:49:58.572799,126480,1495856998,572660923,0,74,298,201,171,168,129,57,51
2017/05/27/11:49:58.587806,126481,1495856998,587649106,0,73,329,198,171,176,136,61,46
2017/05/27/11:49:58.618515,126482,1495856998,618396043,0,74,338,151,160,179,137,63,43
2017/05/27/11:49:58.641120,126483,1495856998,640949010,0,74,342,226,166,189,138,63,42
2017/05/27/11:49:58.655625,126484,1495856998,655245065,0,75,355,232,163,159,143,68,41
2017/05/27/11:49:58.670245,126485,1495856998,670126914,0,74,378,231,163,195,131,67,44
2017/05/27/11:49:58.692948,126486,1495856998,692745923,0,73,349,235,166,192,126,65,44
2017/05/27/11:49:58.715443,126487,1495856998,715255022,0,62,277,235,155,193,122,60,41
2017/05/27/11:49:58.730716,126488,1495856998,730271100,0,57,254,153,113,194,120,61,38
2017/05/27/11:49:58.752899,126489,1495856998,752693891,0,52,231,145,110,202,136,57,38
2017/05/27/11:49:58.775651,126490,1495856998,775296926,0,46,172,147,103,163,120,57,32
2017/05/27/11:49:58.790436,126491,1495856998,790241003,0,39,138,138,97,164,124,61,32
2017/05/27/11:49:58.812870,126492,1495856998,812686920,0,41,169,145,101,179,128,72,36
2017/05/27/11:49:58.835379,126493,1495856998,835205078,0,45,178,160,113,168,136,73,41
2017/05/27/11:49:58.850367,126494,1495856998,850137948,0,44,179,162,106,163,112,66,40
2017/05/27/11:49:58.872891,126495,1495856998,872629880,0,46,184,165,115,167,115,68,41
2017/05/27/11:49:58.895650,126496,1495856998,895337104,0,44,169,166,119,182,125,69,42
2017/05/27/11:49:58.910365,126497,1495856998,910142898,0,42,134,148,120,171,130,61,41
2017/05/27/11:49:58.932821,126498,1495856998,932637929,0,39,120,141,125,205,123,66,38
2017/05/27/11:49:58.955324,126499,1495856998,955172061,0,45,137,146,131,206,113,66,39
2017/05/27/11:49:58.970312,126500,1495856998,970185041,0,50,145,154,142,210,124,68,41
2017/05/27/11:49:58.992942,126501,1495856998,992702960,0,55,159,181,158,204,111,70,45
2017/05/27/11:49:59.015366,126502,1495856999,15177965,0,58,164,183,163,209,106,72,46
2017/05/27/11:49:59.030373,126503,1495856999,30188083,0,55,170,169,154,206,107,65,45
2017/05/27/11:49:59.052848,126504,1495856999,52659034,0,49,156,170,152,205,111,70,46
2017/05/27/11:49:59.075479,126505,1495856999,75285911,0,43,144,188,158,203,98,72,48
2017/05/27/11:49:59.090367,126506,1495856999,90186119,0,39,124,158,136,218,124,71,42
2017/05/27/11:49:59.112985,126507,1495856999,112760066,0,36,138,149,125,207,118,66,40
2017/05/27/11:49:59.135504,126508,1495856999,135164976,0,36,121,149,115,172,117,69,42
2017/05/27/11:49:59.150258,126509,1495856999,150121927,0,40,124,159,129,197,116,64,44
2017/05/27/11:49:59.172976,126510,1495856999,172733068,0,44,166,134,101,193,135,63,42
2017/05/27/11:49:59.195379,126511,1495856999,195187091,0,44,179,137,102,170,113,57,44
2017/05/27/11:49:59.210338,126512,1495856999,210155010,0,45,166,148,106,204,126,60,48
2017/05/27/11:49:59.232999,126513,1495856999,232724905,0,48,169,147,111,210,125,62,47
2017/05/27/11:49:59.255323,126514,1495856999,255135059,0,46,164,130,99,195,124,60,44
2017/05/27/11:49:59.270346,126515,1495856999,270168066,0,41,128,119,98,188,101,53,41
2017/05/27/11:49:59.292967,126516,1495856999,292725086,0,39,110,114,91,185,97,53,39
2017/05/27/11:49:59.315807,126517,1495856999,315464973,0,36,103,120,101,174,83,51,33
2017/05/27/11:49:59.330446,126518,1495856999,330212116,0,38,106,127,114,183,87,48,34
2017/05/27/11:49:59.352901,126519,1495856999,352689981,0,35,97,114,109,164,77,49,36
2017/05/27/11:49:59.375629,126520,1495856999,375289916,0,35,80,107,112,196,85,50,36
2017/05/27/11:49:59.390534,126521,1495856999,390265941,0,37,76,106,112,208,111,69,44
2017/05/27/11:49:59.412888,126522,1495856999,412699937,0,38,80,101,100,186,109,72,46
2017/05/27/11:49:59.435341,126523,1495856999,435162067,0,36,96,132,93,177,108,73,45
2017/05/27/11:49:59.450553,126524,1495856999,450237035,0,38,111,151,98,180,115,74,43
2017/05/27/11:49:59.472828,126525,1495856999,472688913,0,37,117,167,99,156,111,73,43
2017/05/27/11:49:59.495517,126526,1495856999,495233058,0,36,118,175,103,156,83,53,36
2017/05/27/11:49:59.511815,126527,1495856999,511567115,0,36,117,167,106,189,91,47,34
2017/05/27/11:49:59.533088,126528,1495856999,532800912,0,32,94,145,97,201,93,43,32
2017/05/27/11:49:59.555494,126529,1495856999,555191993,0,29,70,132,91,210,87,37,32
2017/05/27/11:49:59.570319,126530,1495856999,570151090,0,32,61,134,104,221,92,38,37
2017/05/27/11:49:59.592928,126531,1495856999,592732906,0,33,60,129,105,204,95,39,37
2017/05/27/11:49:59.623684,126532,1495856999,623409032,0,32,72,131,116,193,97,48,40
2017/05/27/11:49:59.641339,126533,1495856999,641103982,0,36,86,142,123,172,89,49,41
2017/05/27/11:49:59.652888,126534,1495856999,652689933,0,38,83,144,133,215,105,57,44
2017/05/27/11:49:59.675349,126535,1495856999,675182104,0,36,89,134,137,196,101,58,40
2017/05/27/11:49:59.697932,126536,1495856999,697717905,0,34,89,134,134,212,96,60,40
2017/05/27/11:49:59.714326,126537,1495856999,714173078,0,34,79,138,127,203,87,53,36
2017/05/27/11:49:59.735483,126538,1495856999,735192060,0,30,62,128,117,213,91,60,41
2017/05/27/11:49:59.757848,126539,1495856999,757656097,0,31,83,127,105,183,89,56,39
2017/05/27/11:49:59.772898,126540,1495856999,772686958,0,30,89,137,108,178,87,55,38
2017/05/27/11:49:59.795420,126541,1495856999,795193910,0,30,93,160,118,168,87,51,38
2017/05/27/11:49:59.817891,126542,1495856999,817722082,0,28,93,170,122,166,91,51,39
2017/05/27/11:49:59.833035,126543,1495856999,832755088,0,30,96,163,125,163,94,38,31
2017/05/27/11:49:59.855367,126544,1495856999,855175018,0,29,78,158,124,146,75,37,31
2017/05/27/11:49:59.877836,126545,1495856999,877682924,0,30,62,139,104,159,81,36,32
2017/05/27/11:49:59.892886,126546,1495856999,892667055,0,30,61,130,103,173,83,37,31
2017/05/27/11:49:59.915478,126547,1495856999,915219068,0,31,60,109,92,181,78,36,28
2017/05/27/11:49:59.937978,126548,1495856999,937812089,0,31,59,114,96,171,86,42,32
2017/05/27/11:49:59.952949,126549,1495856999,952708959,0,31,63,127,111,165,89,43,35
2017/05/27/11:49:59.975380,126550,1495856999,975169897,0,29,64,130,109,166,79,44,34
2017/05/27/11:49:59.997847,126551,1495856999,997649908,0,31,59,112,97,151,79,45,36
2017/05/27/11:50:00.012936,126552,1495857000,12720108,0,31,57,121,105,172,97,53,39
2017/05/27/11:50:00.035616,126553,1495857000,35423994,0,31,55,118,103,176,87,52,37
2017/05/27/11:50:00.057835,126554,1495857000,57643890,0,29,47,109,99,176,89,52,35
2017/05/27/11:50:00.074297,126555,1495857000,74136018,0,31,48,113,108,185,98,51,35
2017/05/27/11:50:00.095513,126556,1495857000,95222949,0,31,53,110,107,191,100,49,36
2017/05/27/11:50:00.126021,126557,1495857000,125859022,0,30,50,101,107,186,88,48,36
2017/05/27/11:50:00.137216,126558,1495857000,137022972,0,31,49,110,120,184,90,47,36
2017/05/27/11:50:00.155397,126559,1495857000,155174970,0,32,53,108,117,188,89,49,37
2017/05/27/11:50:00.178062,126560,1495857000,177733898,0,31,52,110,112,174,79,50,38
2017/05/27/11:50:00.194976,126561,1495857000,194761037,0,30,47,110,113,170,78,50,36
2017/05/27/11:50:00.215386,126562,1495857000,215171098,0,33,63,119,117,153,98,46,33
2017/05/27/11:50:00.238013,126563,1495857000,237803936,0,34,64,115,108,177,97,42,33
2017/05/27/11:50:00.252799,126564,1495857000,252620935,0,34,62,114,104,173,97,39,30
2017/05/27/11:50:00.275333,126565,1495857000,275158882,0,34,64,104,105,198,104,40,29
2017/05/27/11:50:00.297793,126566,1495857000,297646999,0,33,64,108,109,203,110,40,28
2017/05/27/11:50:00.312913,126567,1495857000,312696933,0,30,61,126,118,204,89,38,28
2017/05/27/11:50:00.335609,126568,1495857000,335427045,0,30,60,146,131,199,85,46,33
2017/05/27/11:50:00.358161,126569,1495857000,357736110,0,31,65,164,136,206,84,45,36
2017/05/27/11:50:00.372890,126570,1495857000,372684001,0,30,63,164,137,186,78,48,39
2017/05/27/11:50:00.399493,126571,1495857000,395180940,0,33,63,171,141,187,67,49,40
2017/05/27/11:50:00.418562,126572,1495857000,418281078,0,33,56,153,131,181,105,53,41
2017/05/27/11:50:00.433023,126573,1495857000,432691097,0,28,64,138,122,166,110,48,36
2017/05/27/11:50:00.455571,126574,1495857000,455156087,0,27,59,121,118,172,108,50,32
2017/05/27/11:50:00.477957,126575,1495857000,477698087,0,30,60,122,112,165,108,43,28
2017/05/27/11:50:00.492848,126576,1495857000,492628097,0,25,63,128,114,177,109,45,27
2017/05/27/11:50:00.515483,126577,1495857000,515217065,0,27,60,126,106,172,80,39,27
2017/05/27/11:50:00.537840,126578,1495857000,537664890,0,28,57,118,88,166,80,42,31
2017/05/27/11:50:00.563645,126579,1495857000,560242891,0,27,54,112,83,163,85,42,33
2017/05/27/11:50:00.575310,126580,1495857000,575113058,0,26,60,123,109,161,85,45,34
2017/05/27/11:50:00.598143,126581,1495857000,597780942,0,28,63,111,104,136,93,44,37
2017/05/27/11:50:00.620300,126582,1495857000,620109081,0,28,62,120,117,158,88,49,40
2017/05/27/11:50:00.635269,126583,1495857000,635086059,0,27,56,111,121,174,93,47,38
2017/05/27/11:50:00.658182,126584,1495857000,657752990,0,29,56,115,122,164,90,46,37
2017/05/27/11:50:00.680899,126585,1495857000,680114984,0,29,54,124,108,164,101,55,39
2017/05/27/11:50:00.695340,126586,1495857000,695135116,0,30,43,124,105,177,93,57,38
2017/05/27/11:50:00.717924,126587,1495857000,717632055,0,28,48,112,96,162,101,55,36
2017/05/27/11:50:00.740401,126588,1495857000,740190982,0,28,50,117,99,166,91,52,34
2017/05/27/11:50:00.755461,126589,1495857000,755234956,0,27,49,112,98,183,99,54,34
2017/05/27/11:50:00.778093,126590,1495857000,777692079,0,28,45,88,97,218,94,47,33
2017/05/27/11:50:00.800376,126591,1495857000,800158977,0,26,55,99,99,207,98,46,33
2017/05/27/11:50:00.822980,126592,1495857000,822716951,0,29,51,99,94,217,96,45,33
2017/05/27/11:50:00.838918,126593,1495857000,838769912,0,28,52,95,87,214,94,46,33
2017/05/27/11:50:00.860476,126594,1495857000,860228061,0,31,54,132,112,201,87,50,38
2017/05/27/11:50:00.875318,126595,1495857000,875139951,0,30,58,144,117,165,75,47,35
2017/05/27/11:50:00.897837,126596,1495857000,897646903,0,32,53,135,119,175,86,46,34
2017/05/27/11:50:00.920297,126597,1495857000,920139074,0,29,53,136,116,155,81,47,34
2017/05/27/11:50:00.935330,126598,1495857000,935194969,0,31,54,140,119,182,90,47,34
2017/05/27/11:50:00.957926,126599,1495857000,957703113,0,30,58,156,109,194,93,40,31
2017/05/27/11:50:00.980321,126600,1495857000,980168104,0,32,57,148,96,191,96,41,32
2017/05/27/11:50:00.995306,126601,1495857000,995153903,0,28,53,149,85,229,91,40,32
2017/05/27/11:50:01.017805,126602,1495857001,17680883,0,30,55,156,110,235,89,37,31
2017/05/27/11:50:01.040453,126603,1495857001,40158033,0,30,52,150,109,212,83,37,30
2017/05/27/11:50:01.055537,126604,1495857001,55210113,0,32,71,133,100,207,81,39,34
2017/05/27/11:50:01.077884,126605,1495857001,77703952,0,28,67,130,102,211,76,38,33
2017/05/27/11:50:01.100305,126606,1495857001,100167036,0,31,69,121,106,163,76,39,34
2017/05/27/11:50:01.115488,126607,1495857001,115180015,0,31,70,111,84,166,75,45,36
2017/05/27/11:50:01.137883,126608,1495857001,137743949,0,34,80,118,89,155,78,49,39
2017/05/27/11:50:01.160583,126609,1495857001,160300970,0,32,70,93,110,144,76,47,35
2017/05/27/11:50:01.175263,126610,1495857001,175116062,0,32,72,95,113,167,86,52,34
2017/05/27/11:50:01.197812,126611,1495857001,197608947,0,36,88,95,113,175,86,51,33
2017/05/27/11:50:01.220299,126612,1495857001,220114946,0,38,100,95,118,167,89,48,34
2017/05/27/11:50:01.235660,126613,1495857001,235235929,0,39,111,153,125,191,95,44,32
2017/05/27/11:50:01.257812,126614,1495857001,257627010,0,49,169,156,115,215,100,49,37
2017/05/27/11:50:01.280303,126615,1495857001,280145883,0,70,271,162,120,194,91,44,49
2017/05/27/11:50:01.295390,126616,1495857001,295185089,0,71,274,166,120,195,88,43,49
2017/05/27/11:50:01.317781,126617,1495857001,317656040,0,75,281,173,147,217,87,49,52
2017/05/27/11:50:01.340445,126618,1495857001,340217113,0,74,278,136,143,201,78,52,56
2017/05/27/11:50:01.355358,126619,1495857001,355175971,0,70,256,142,134,171,78,46,52
2017/05/27/11:50:01.377837,126620,1495857001,377666950,0,51,158,140,128,175,79,48,42
2017/05/27/11:50:01.400352,126621,1495857001,400182962,0,53,154,144,130,167,71,45,42
2017/05/27/11:50:01.417043,126622,1495857001,416719913,0,47,135,136,105,146,64,38,35
2017/05/27/11:50:01.437957,126623,1495857001,437792062,0,46,131,125,95,145,61,35,34
2017/05/27/11:50:01.460518,126624,1495857001,460253000,0,43,123,113,101,195,51,39,36
2017/05/27/11:50:01.482856,126625,1495857001,482640981,0,48,144,115,106,191,51,38,41
2017/05/27/11:50:01.497934,126626,1495857001,497741937,0,41,141,124,105,182,52,38,39
2017/05/27/11:50:01.520542,126627,1495857001,520226001,0,68,226,143,194,203,88,56,52
2017/05/27/11:50:01.542849,126628,1495857001,542673110,0,92,335,162,212,207,95,56,55
2017/05/27/11:50:01.559440,126629,1495857001,559149026,0,144,409,202,254,198,101,55,73
2017/05/27/11:50:01.588577,126630,1495857001,588354110,0,150,427,207,261,196,102,58,77
2017/05/27/11:50:01.602803,126631,1495857001,602624893,0,165,487,267,282,200,102,60,84
2017/05/27/11:50:01.617838,126632,1495857001,617649078,0,184,596,287,255,179,75,43,83
2017/05/27/11:50:01.640587,126633,1495857001,640292882,0,200,639,308,260,173,71,47,89
2017/05/27/11:50:01.662802,126634,1495857001,662622928,0,175,620,281,229,139,63,45,78
2017/05/27/11:50:01.678060,126635,1495857001,677743911,0,169,624,280,219,136,60,38,72
2017/05/27/11:50:01.700423,126636,1495857001,700287103,0,157,596,226,195,118,57,35,66
2017/05/27/11:50:01.722917,126637,1495857001,722686052,0,125,466,191,162,102,53,36,58
2017/05/27/11:50:01.738144,126638,1495857001,737881898,0,78,335,142,125,92,41,28,43
2017/05/27/11:50:01.764770,126639,1495857001,760160923,0,59,291,141,100,69,34,26,35
2017/05/27/11:50:01.782928,126640,1495857001,782725095,0,58,238,126,95,67,30,24,31
2017/05/27/11:50:01.798033,126641,1495857001,797710895,0,52,189,103,82,64,27,22,28
2017/05/27/11:50:01.820299,126642,1495857001,820107936,0,44,174,92,60,51,23,18,25
2017/05/27/11:50:01.842982,126643,1495857001,842741966,0,43,166,73,59,47,17,46,32
2017/05/27/11:50:01.858016,126644,1495857001,857753038,0,39,155,60,55,46,18,47,34
2017/05/27/11:50:01.880329,126645,1495857001,880109071,0,39,165,59,52,44,18,47,34
2017/05/27/11:50:01.902866,126646,1495857001,902666091,0,38,179,69,45,46,20,48,33
2017/05/27/11:50:01.917904,126647,1495857001,917695045,0,37,225,71,44,45,20,49,33
2017/05/27/11:50:01.940317,126648,1495857001,940135955,0,34,213,73,52,36,20,24,23
2017/05/27/11:50:01.962853,126649,1495857001,962656021,0,39,209,72,51,37,20,22,23
2017/05/27/11:50:01.977829,126650,1495857001,977667093,0,41,203,73,51,35,20,23,23
2017/05/27/11:50:02.000323,126651,1495857002,125885,0,41,182,74,58,32,19,23,26
2017/05/27/11:50:02.022832,126652,1495857002,22639036,0,78,126,96,98,48,26,26,32
2017/05/27/11:50:02.037792,126653,1495857002,37627935,0,85,142,116,108,53,27,28,34
2017/05/27/11:50:02.060440,126654,1495857002,60177087,0,85,144,117,110,54,28,28,33
2017/05/27/11:50:02.082828,126655,1495857002,82634925,0,87,142,121,112,55,27,27,34
2017/05/27/11:50:02.097986,126656,1495857002,97682952,0,91,160,123,117,58,29,25,32
2017/05/27/11:50:02.120294,126657,1495857002,120125055,0,70,179,167,139,65,31,25,28
2017/05/27/11:50:02.142938,126658,1495857002,142664909,0,66,176,163,137,60,30,22,26
2017/05/27/11:50:02.157816,126659,1495857002,157604932,0,73,199,175,139,61,31,23,25
2017/05/27/11:50:02.180663,126660,1495857002,180306911,0,74,199,173,139,61,32,24,26
2017/05/27/11:50:02.202829,126661,1495857002,202621936,0,73,196,170,132,57,31,24,26
2017/05/27/11:50:02.217872,126662,1495857002,217658042,0,85,173,157,123,43,24,20,28
2017/05/27/11:50:02.240703,126663,1495857002,240315914,0,88,186,191,143,49,26,21,29
2017/05/27/11:50:02.262997,126664,1495857002,262720108,0,90,162,185,145,48,26,21,34
2017/05/27/11:50:02.278015,126665,1495857002,277726888,0,89,167,184,145,49,27,20,33
2017/05/27/11:50:02.300345,126666,1495857002,300143003,0,89,155,188,145,49,27,21,35
2017/05/27/11:50:02.322864,126667,1495857002,322706937,0,98,156,158,118,45,28,26,36
2017/05/27/11:50:02.337828,126668,1495857002,337665081,0,142,130,138,106,55,30,30,45
2017/05/27/11:50:02.360548,126669,1495857002,360230922,0,141,138,134,107,54,30,31,41
2017/05/27/11:50:02.382761,126670,1495857002,382641077,0,147,135,139,108,54,31,31,43
2017/05/27/11:50:02.397902,126671,1495857002,397675037,0,149,141,136,110,56,31,30,44
2017/05/27/11:50:02.420329,126672,1495857002,420165061,0,149,125,132,103,52,30,29,43
2017/05/27/11:50:02.443117,126673,1495857002,442781925,0,113,142,168,110,42,29,28,46
2017/05/27/11:50:02.465996,126674,1495857002,465837001,0,109,132,187,125,46,30,27,47
2017/05/27/11:50:02.480396,126675,1495857002,480190992,0,99,132,190,129,52,30,26,47
2017/05/27/11:50:02.502899,126676,1495857002,502662897,0,103,128,188,130,50,30,27,47
2017/05/27/11:50:02.526029,126677,1495857002,525805950,0,101,139,199,130,52,30,26,48
2017/05/27/11:50:02.540323,126678,1495857002,540138959,0,159,163,191,120,57,30,23,45
2017/05/27/11:50:02.563771,126679,1495857002,563385963,0,191,173,176,103,55,31,25,45
2017/05/27/11:50:02.586221,126680,1495857002,585882902,0,199,174,175,103,52,29,27,44
2017/05/27/11:50:02.600501,126681,1495857002,600183963,0,196,175,186,112,55,30,27,42
2017/05/27/11:50:02.622787,126682,1495857002,622615098,0,189,175,182,110,53,29,28,38
2017/05/27/11:50:02.646222,126683,1495857002,645975112,0,158,145,137,96,41,28,26,27
2017/05/27/11:50:02.660387,126684,1495857002,660170078,0,219,153,140,105,45,26,27,30
2017/05/27/11:50:02.682821,126685,1495857002,682668924,0,220,152,146,120,51,29,25,30
2017/05/27/11:50:02.705970,126686,1495857002,705821037,0,222,172,191,142,63,32,27,36
2017/05/27/11:50:02.720249,126687,1495857002,720108985,0,222,197,199,159,70,34,27,37
2017/05/27/11:50:02.743003,126688,1495857002,742727994,0,223,209,222,169,74,35,28,41
2017/05/27/11:50:02.766651,126689,1495857002,765974044,0,169,206,260,174,75,36,28,38
2017/05/27/11:50:02.780291,126690,1495857002,780111074,0,168,210,265,174,76,36,31,41
2017/05/27/11:50:02.802912,126691,1495857002,802711009,0,167,200,230,151,64,31,29,36
2017/05/27/11:50:02.826240,126692,1495857002,825987100,0,169,180,220,128,56,28,29,35
2017/05/27/11:50:02.840589,126693,1495857002,840315103,0,148,183,343,200,75,34,32,30
2017/05/27/11:50:02.863155,126694,1495857002,862788915,0,102,176,322,196,74,35,34,37
2017/05/27/11:50:02.885981,126695,1495857002,885822057,0,89,183,320,189,70,34,33,35
2017/05/27/11:50:02.900542,126696,1495857002,900278091,0,110,187,326,201,71,36,34,37
2017/05/27/11:50:02.922886,126697,1495857002,922677993,0,104,176,330,206,76,36,34,39
2017/05/27/11:50:02.945970,126698,1495857002,945822000,0,107,165,168,131,54,32,30,39
2017/05/27/11:50:02.960283,126699,1495857002,960128068,0,111,156,163,126,49,30,29,37
2017/05/27/11:50:02.982847,126700,1495857002,982671976,0,113,153,173,141,51,29,26,35
2017/05/27/11:50:03.006213,126701,1495857003,5882978,0,90,177,186,128,48,28,25,33
2017/05/27/11:50:03.020314,126702,1495857003,20140886,0,106,188,184,124,44,27,24,42
2017/05/27/11:50:03.043071,126703,1495857003,42778015,0,107,179,206,137,46,26,25,43
2017/05/27/11:50:03.065333,126704,1495857003,65136909,0,98,184,206,142,47,25,22,39
2017/05/27/11:50:03.080447,126705,1495857003,80203056,0,99,174,232,143,49,27,21,40
2017/05/27/11:50:03.102927,126706,1495857003,102724075,0,100,149,225,148,55,29,23,39
2017/05/27/11:50:03.125479,126707,1495857003,125257968,0,81,161,243,163,58,33,22,30
2017/05/27/11:50:03.140294,126708,1495857003,140158891,0,77,175,233,153,54,31,23,30
2017/05/27/11:50:03.163001,126709,1495857003,162718057,0,70,172,226,150,58,31,24,29
2017/05/27/11:50:03.185366,126710,1495857003,185168981,0,63,175,193,140,56,29,24,28
2017/05/27/11:50:03.200331,126711,1495857003,200139045,0,58,171,174,132,53,28,23,27
2017/05/27/11:50:03.222847,126712,1495857003,222614049,0,60,153,149,121,45,23,23,25
2017/05/27/11:50:03.245394,126713,1495857003,245126008,0,59,130,139,114,46,25,25,26
2017/05/27/11:50:03.260458,126714,1495857003,260184049,0,60,137,138,108,39,23,23,27
2017/05/27/11:50:03.282800,126715,1495857003,282612085,0,59,140,119,98,41,26,24,27
2017/05/27/11:50:03.305358,126716,1495857003,305133104,0,54,132,147,114,44,27,26,29
2017/05/27/11:50:03.320310,126717,1495857003,320137023,0,42,130,155,115,46,28,25,28
2017/05/27/11:50:03.342817,126718,1495857003,342626094,0,41,133,167,122,48,27,22,26
2017/05/27/11:50:03.366542,126719,1495857003,366332054,0,35,117,177,131,49,28,22,26
2017/05/27/11:50:03.387849,126720,1495857003,387649059,0,35,114,222,155,53,29,22,28
2017/05/27/11:50:03.402990,126721,1495857003,402663946,0,34,122,208,146,52,28,21,27
2017/05/27/11:50:03.427815,126722,1495857003,427690982,0,38,129,212,146,60,30,22,29
2017/05/27/11:50:03.447808,126723,1495857003,447623968,0,34,129,199,141,57,29,22,28
2017/05/27/11:50:03.462836,126724,1495857003,462645053,0,37,136,210,145,61,29,22,29
2017/05/27/11:50:03.485298,126725,1495857003,485126972,0,34,140,158,113,55,26,22,28
2017/05/27/11:50:03.508114,126726,1495857003,507749080,0,37,142,161,125,54,25,22,27
2017/05/27/11:50:03.522843,126727,1495857003,522604942,0,32,128,140,114,45,23,21,25
2017/05/27/11:50:03.545304,126728,1495857003,545126914,0,34,133,155,130,49,25,23,23
2017/05/27/11:50:03.567994,126729,1495857003,567771911,0,37,160,128,122,45,24,22,24
2017/05/27/11:50:03.582791,126730,1495857003,582604885,0,38,148,137,127,46,26,22,23
2017/05/27/11:50:03.605430,126731,1495857003,605184078,0,36,147,144,120,44,25,22,24
2017/05/27/11:50:03.627812,126732,1495857003,627640008,0,35,141,150,125,46,25,23,23
2017/05/27/11:50:03.642869,126733,1495857003,642638921,0,37,153,162,120,43,23,21,25
2017/05/27/11:50:03.665389,126734,1495857003,665137052,0,34,124,158,115,43,25,23,23
2017/05/27/11:50:03.687798,126735,1495857003,687617063,0,36,130,155,112,42,23,22,24
2017/05/27/11:50:03.702870,126736,1495857003,702639102,0,35,120,145,108,45,25,23,23
2017/05/27/11:50:03.725376,126737,1495857003,725177049,0,45,140,139,106,46,25,40,32
2017/05/27/11:50:03.747852,126738,1495857003,747642040,0,40,126,129,102,48,25,41,31
2017/05/27/11:50:03.762828,126739,1495857003,762634038,0,39,131,129,98,47,26,41,32
2017/05/27/11:50:03.786897,126740,1495857003,786604881,0,37,133,124,95,45,26,42,33
2017/05/27/11:50:03.807809,126741,1495857003,807605028,0,36,137,119,97,42,25,41,32
2017/05/27/11:50:03.822885,126742,1495857003,822695970,0,41,141,116,85,38,23,25,25
2017/05/27/11:50:03.845630,126743,1495857003,845226049,0,43,142,90,69,33,24,22,24
2017/05/27/11:50:03.876076,126744,1495857003,875844001,0,44,134,96,73,32,20,22,23
2017/05/27/11:50:03.882826,126745,1495857003,882617950,0,43,120,95,71,36,23,21,22
2017/05/27/11:50:03.905337,126746,1495857003,905117988,0,43,117,91,59,37,22,20,21
2017/05/27/11:50:03.927774,126747,1495857003,927634954,0,34,92,86,60,38,22,20,20
2017/05/27/11:50:03.942802,126748,1495857003,942636966,0,32,79,81,59,35,21,20,21
2017/05/27/11:50:03.965511,126749,1495857003,965260028,0,31,74,64,51,35,22,20,21
2017/05/27/11:50:03.987761,126750,1495857003,987637996,0,31,73,72,53,33,22,19,20
2017/05/27/11:50:04.002780,126751,1495857004,2626895,0,31,68,69,50,29,23,19,20
2017/05/27/11:50:04.025608,126752,1495857004,25238037,0,29,60,67,54,28,24,19,20
2017/05/27/11:50:04.047980,126753,1495857004,47684907,0,30,52,80,74,34,24,20,21
2017/05/27/11:50:04.062752,126754,1495857004,62570095,0,29,49,82,73,34,24,19,21
2017/05/27/11:50:04.085290,126755,1495857004,85105895,0,29,46,72,70,32,22,19,23
2017/05/27/11:50:04.116115,126756,1495857004,115876913,0,29,45,71,71,33,22,38,36
2017/05/27/11:50:04.122982,126757,1495857004,122680902,0,23,35,67,67,31,21,39,35
2017/05/27/11:50:04.145302,126758,1495857004,145133972,0,27,35,48,42,27,21,40,37
2017/05/27/11:50:04.167964,126759,1495857004,167784929,0,26,40,52,45,29,19,40,36
2017/05/27/11:50:04.185208,126760,1495857004,185003042,0,27,39,54,46,30,21,41,35
2017/05/27/11:50:04.205381,126761,1495857004,205138921,0,25,37,52,44,28,21,26,23
2017/05/27/11:50:04.227854,126762,1495857004,227686882,0,26,38,53,43,28,20,25,25
2017/05/27/11:50:04.242787,126763,1495857004,242611885,0,20,33,44,39,25,20,24,24
2017/05/27/11:50:04.265572,126764,1495857004,265228033,0,20,24,34,31,24,21,23,23
2017/05/27/11:50:04.287805,126765,1495857004,287630081,0,19,23,24,26,23,20,22,24
2017/05/27/11:50:04.302843,126766,1495857004,302630901,0,18,23,23,26,22,19,20,22
2017/05/27/11:50:04.325289,126767,1495857004,325119018,0,18,21,22,23,22,18,21,20
2017/05/27/11:50:04.347816,126768,1495857004,347623109,0,19,21,22,24,24,18,21,18
2017/05/27/11:50:04.370363,126769,1495857004,370181083,0,18,22,25,24,23,20,23,20
2017/05/27/11:50:04.387175,126770,1495857004,386975049,0,19,21,24,24,21,20,23,18
2017/05/27/11:50:04.407879,126771,1495857004,407651901,0,19,21,26,23,22,21,23,19
2017/05/27/11:50:04.430449,126772,1495857004,430192947,0,16,21,30,25,20,23,23,19
2017/05/27/11:50:04.445306,126773,1495857004,445111989,0,15,22,30,24,21,23,22,19
2017/05/27/11:50:04.467958,126774,1495857004,467784881,0,16,23,29,24,20,23,21,19
2017/05/27/11:50:04.490479,126775,1495857004,490197896,0,14,24,28,23,23,23,21,21
2017/05/27/11:50:04.505311,126776,1495857004,505100011,0,14,22,27,24,23,22,19,21
2017/05/27/11:50:04.527811,126777,1495857004,527641057,0,17,22,23,22,24,22,20,22
2017/05/27/11:50:04.550380,126778,1495857004,550175905,0,18,22,22,22,23,22,20,21
2017/05/27/11:50:04.565465,126779,1495857004,565210103,0,17,20,20,21,23,21,20,20
2017/05/27/11:50:04.587803,126780,1495857004,587599039,0,19,20,22,24,20,22,18,19
2017/05/27/11:50:04.610319,126781,1495857004,610111951,0,18,24,20,24,21,22,20,20
2017/05/27/11:50:04.625351,126782,1495857004,625130891,0,17,25,20,26,21,21,19,19
2017/05/27/11:50:04.647863,126783,1495857004,647635936,0,17,25,22,26,21,21,18,20
2017/05/27/11:50:04.670469,126784,1495857004,670178890,0,19,24,23,26,21,22,20,19
2017/05/27/11:50:04.692939,126785,1495857004,692707061,0,18,26,23,25,22,21,20,19
2017/05/27/11:50:04.709327,126786,1495857004,709141969,0,18,22,23,26,22,20,20,20
2017/05/27/11:50:04.730611,126787,1495857004,730186939,0,18,21,22,24,21,23,22,20
2017/05/27/11:50:04.745300,126788,1495857004,745091915,0,17,22,22,23,20,22,22,19
2017/05/27/11:50:04.767814,126789,1495857004,767635107,0,16,24,23,24,22,21,22,22
2017/05/27/11:50:04.790411,126790,1495857004,790198087,0,16,22,23,22,22,21,22,22
2017/05/27/11:50:04.812737,126791,1495857004,812583923,0,15,22,24,22,24,23,23,20
2017/05/27/11:50:04.832736,126792,1495857004,827692031,0,15,21,24,21,23,23,20,21
2017/05/27/11:50:04.858532,126793,1495857004,858329057,0,15,19,23,21,22,22,19,22
2017/05/27/11:50:04.867552,126794,1495857004,867311954,0,16,17,21,20,19,24,19,20
2017/05/27/11:50:04.887997,126795,1495857004,887643098,0,16,18,21,21,19,24,18,20
2017/05/27/11:50:04.910305,126796,1495857004,910106897,0,16,18,20,20,17,21,17,19
2017/05/27/11:50:04.927787,126797,1495857004,927339076,0,17,18,19,20,20,19,19,20
2017/05/27/11:50:04.947797,126798,1495857004,947654008,0,17,18,20,23,19,20,18,18
2017/05/27/11:50:04.970455,126799,1495857004,970215082,0,16,20,20,23,20,20,19,19
2017/05/27/11:50:04.985610,126800,1495857004,985295057,0,17,19,19,22,20,21,19,18
2017/05/27/11:50:05.008066,126801,1495857005,7867097,0,17,21,21,21,21,22,19,17
2017/05/27/11:50:05.030407,126802,1495857005,30179023,0,18,21,23,21,18,21,17,16
2017/05/27/11:50:05.045404,126803,1495857005,45120000,0,18,21,22,20,20,20,17,17
2017/05/27/11:50:05.068176,126804,1495857005,67888021,0,19,20,22,20,19,24,16,15
2017/05/27/11:50:05.092002,126805,1495857005,91797113,0,19,21,22,21,19,23,17,16
2017/05/27/11:50:05.105667,126806,1495857005,105278968,0,19,18,22,20,18,23,18,17
2017/05/27/11:50:05.127987,126807,1495857005,127772092,0,18,19,21,20,18,23,19,18
2017/05/27/11:50:05.150692,126808,1495857005,150243997,0,18,18,21,19,18,23,20,20
2017/05/27/11:50:05.165479,126809,1495857005,165208101,0,19,21,20,17,19,18,21,20
2017/05/27/11:50:05.187742,126810,1495857005,187578916,0,19,21,22,16,18,19,21,20
2017/05/27/11:50:05.210425,126811,1495857005,210232973,0,19,22,20,18,20,20,20,20
2017/05/27/11:50:05.225357,126812,1495857005,225095033,0,19,24,18,20,21,21,19,20
2017/05/27/11:50:05.247959,126813,1495857005,247661113,0,19,24,18,19,21,23,19,18
2017/05/27/11:50:05.270335,126814,1495857005,270131111,0,17,22,17,20,20,22,20,18
2017/05/27/11:50:05.293007,126815,1495857005,292635917,0,17,23,16,21,20,23,21,19
2017/05/27/11:50:05.307806,126816,1495857005,307614088,0,17,22,18,20,18,20,21,18
2017/05/27/11:50:05.330292,126817,1495857005,330113887,0,18,20,19,19,19,22,21,18
2017/05/27/11:50:05.361090,126818,1495857005,360871076,0,16,20,20,20,18,22,20,18
2017/05/27/11:50:05.367700,126819,1495857005,367590904,0,16,20,21,20,19,22,19,19
2017/05/27/11:50:05.390296,126820,1495857005,390120983,0,18,22,22,21,19,23,17,18
2017/05/27/11:50:05.412785,126821,1495857005,412611961,0,17,21,21,21,19,24,17,17
2017/05/27/11:50:05.427846,126822,1495857005,427666902,0,18,22,21,22,20,21,17,16
2017/05/27/11:50:05.450345,126823,1495857005,450128078,0,19,21,19,20,20,21,18,17
2017/05/27/11:50:05.473050,126824,1495857005,472707033,0,19,22,19,21,20,22,19,17
2017/05/27/11:50:05.487885,126825,1495857005,487701892,0,18,19,18,21,20,22,17,18
2017/05/27/11:50:05.510288,126826,1495857005,510103940,0,19,21,17,20,22,21,18,19
2017/05/27/11:50:05.532825,126827,1495857005,532681941,0,18,20,17,19,20,21,19,20
2017/05/27/11:50:05.547774,126828,1495857005,547585010,0,18,20,19,20,19,20,20,20
2017/05/27/11:50:05.570481,126829,1495857005,570214986,0,18,19,20,20,20,21,20,19
2017/05/27/11:50:05.592798,126830,1495857005,592642068,0,16,19,22,21,20,19,20,19
2017/05/27/11:50:05.607819,126831,1495857005,607640981,0,15,17,22,21,18,19,20,20
2017/05/27/11:50:05.630471,126832,1495857005,630162000,0,16,18,24,23,18,20,19,19
2017/05/27/11:50:05.652806,126833,1495857005,652609109,0,16,21,23,22,18,18,16,18
2017/05/27/11:50:05.667853,126834,1495857005,667625904,0,15,22,23,22,19,19,19,18
2017/05/27/11:50:05.690304,126835,1495857005,690118074,0,18,21,22,20,19,18,19,21
2017/05/27/11:50:05.712925,126836,1495857005,712630987,0,19,22,23,22,19,17,20,20
2017/05/27/11:50:05.727780,126837,1495857005,727619886,0,18,21,21,21,19,20,19,20
2017/05/27/11:50:05.750295,126838,1495857005,750102043,0,18,17,22,22,19,20,20,21
2017/05/27/11:50:05.772927,126839,1495857005,772691011,0,19,18,23,21,18,19,17,21
2017/05/27/11:50:05.787822,126840,1495857005,787636041,0,17,21,23,19,19,19,18,18
2017/05/27/11:50:05.810637,126841,1495857005,810278892,0,17,21,21,19,20,20,17,17
2017/05/27/11:50:05.832835,126842,1495857005,832643032,0,18,22,21,18,22,21,19,18
2017/05/27/11:50:05.847757,126843,1495857005,847563982,0,17,22,21,17,23,22,19,17
2017/05/27/11:50:05.870495,126844,1495857005,870206117,0,18,21,19,18,22,22,19,17
2017/05/27/11:50:05.892869,126845,1495857005,892644882,0,19,19,19,20,22,25,19,16
2017/05/27/11:50:05.907798,126846,1495857005,907593011,0,18,18,18,19,21,25,21,17
2017/05/27/11:50:05.930256,126847,1495857005,930104970,0,17,18,19,21,20,23,20,16
2017/05/27/11:50:05.953726,126848,1495857005,953008890,0,18,19,18,20,20,22,17,16
2017/05/27/11:50:05.968100,126849,1495857005,967804908,0,16,20,19,21,21,23,17,17
2017/05/27/11:50:05.990312,126850,1495857005,990123987,0,16,19,18,20,20,22,19,18
2017/05/27/11:50:06.012825,126851,1495857006,12619018,0,16,23,19,20,20,21,16,16
2017/05/27/11:50:06.027783,126852,1495857006,27595043,0,17,22,18,19,20,22,17,17
2017/05/27/11:50:06.050300,126853,1495857006,50096035,0,18,24,18,20,18,24,18,19
2017/05/27/11:50:06.072819,126854,1495857006,72622060,0,19,23,20,20,16,24,17,17
2017/05/27/11:50:06.087816,126855,1495857006,87650060,0,19,24,20,20,15,23,16,20
2017/05/27/11:50:06.110329,126856,1495857006,110136032,0,19,21,21,20,17,23,18,20
2017/05/27/11:50:06.132802,126857,1495857006,132612943,0,20,23,21,20,17,19,18,23
2017/05/27/11:50:06.147764,126858,1495857006,147569894,0,17,21,21,20,18,20,19,21
2017/05/27/11:50:06.172762,126859,1495857006,170247077,0,17,22,20,19,20,19,20,23
2017/05/27/11:50:06.193013,126860,1495857006,192734003,0,16,22,20,21,21,19,19,21
2017/05/27/11:50:06.209253,126861,1495857006,209068059,0,15,21,20,21,21,19,18,21
2017/05/27/11:50:06.230319,126862,1495857006,230130910,0,16,19,21,22,21,20,19,18
2017/05/27/11:50:06.252996,126863,1495857006,252686023,0,18,21,20,22,20,19,17,17
2017/05/27/11:50:06.275500,126864,1495857006,275185108,0,17,19,21,23,18,19,17,17
2017/05/27/11:50:06.290239,126865,1495857006,290081977,0,19,18,22,20,17,20,18,15
2017/05/27/11:50:06.312965,126866,1495857006,312674999,0,20,19,21,19,16,20,17,17
2017/05/27/11:50:06.337970,126867,1495857006,337805032,0,19,20,20,20,17,19,16,16
2017/05/27/11:50:06.350279,126868,1495857006,350102901,0,19,18,24,21,18,18,17,17
2017/05/27/11:50:06.373007,126869,1495857006,372684955,0,19,19,24,20,19,19,18,16
2017/05/27/11:50:06.395294,126870,1495857006,395123958,0,19,19,23,21,21,18,18,17
2017/05/27/11:50:06.410298,126871,1495857006,410099029,0,20,19,22,21,21,17,18,16
2017/05/27/11:50:06.432853,126872,1495857006,432657957,0,19,19,22,19,20,17,18,16
2017/05/27/11:50:06.455335,126873,1495857006,455137014,0,19,19,19,19,21,18,18,20
2017/05/27/11:50:06.470344,126874,1495857006,470144987,0,19,18,17,21,21,19,18,20
2017/05/27/11:50:06.492851,126875,1495857006,492609024,0,17,20,17,20,20,18,18,19
2017/05/27/11:50:06.515456,126876,1495857006,515227079,0,17,19,19,20,21,19,18,20
2017/05/27/11:50:06.530308,126877,1495857006,530124902,0,16,18,19,20,21,20,18,21
2017/05/27/11:50:06.552917,126878,1495857006,552680015,0,15,19,19,18,21,20,19,19
2017/05/27/11:50:06.575339,126879,1495857006,575145959,0,15,20,22,17,21,19,18,19
2017/05/27/11:50:06.590521,126880,1495857006,590339899,0,14,20,22,17,22,20,18,21
2017/05/27/11:50:06.612803,126881,1495857006,612592935,0,15,21,23,18,20,20,17,20
2017/05/27/11:50:06.635730,126882,1495857006,635483980,0,17,21,24,19,20,19,18,19
2017/05/27/11:50:06.650546,126883,1495857006,650212049,0,17,20,24,21,20,18,17,17
2017/05/27/11:50:06.672771,126884,1495857006,672597885,0,18,21,22,19,20,19,18,18
2017/05/27/11:50:06.695305,126885,1495857006,695118904,0,20,20,22,19,19,18,18,17
2017/05/27/11:50:06.710366,126886,1495857006,710139989,0,18,20,21,19,20,19,18,17
2017/05/27/11:50:06.741014,126887,1495857006,740873098,0,18,20,21,18,20,19,17,18
2017/05/27/11:50:06.755320,126888,1495857006,755146026,0,19,21,19,15,19,19,17,19
2017/05/27/11:50:06.770287,126889,1495857006,770117998,0,19,20,20,17,19,21,17,19
2017/05/27/11:50:06.792898,126890,1495857006,792602062,0,18,21,19,16,19,21,17,18
2017/05/27/11:50:06.815515,126891,1495857006,815284013,0,19,19,18,15,19,20,18,18
2017/05/27/11:50:06.830384,126892,1495857006,830116987,0,19,18,17,17,20,20,18,18
2017/05/27/11:50:06.852798,126893,1495857006,852595090,0,19,17,18,19,21,20,19,18
2017/05/27/11:50:06.875308,126894,1495857006,875119924,0,18,17,18,18,21,18,18,20
2017/05/27/11:50:06.890318,126895,1495857006,890115022,0,20,16,20,19,20,19,17,20
2017/05/27/11:50:06.912847,126896,1495857006,912616968,0,20,17,19,19,19,21,18,21
2017/05/27/11:50:06.935292,126897,1495857006,935107946,0,21,16,22,18,18,21,17,20
2017/05/27/11:50:06.950354,126898,1495857006,950160980,0,20,16,21,18,17,22,16,21
2017/05/27/11:50:06.972837,126899,1495857006,972640991,0,20,16,21,20,16,22,17,18
2017/05/27/11:50:06.995327,126900,1495857006,995130062,0,17,19,22,19,17,20,16,19
2017/05/27/11:50:07.010305,126901,1495857007,10098934,0,18,20,21,19,20,20,16,18
2017/05/27/11:50:07.032948,126902,1495857007,32684087,0,16,20,18,20,20,19,17,19
