time,.header.seq,.header.stamp.secs,.header.stamp.nsecs,.header.frame_id,.ch0,.ch1,.ch2,.ch3,.ch4,.ch5,.ch6,.ch7
2017/05/27/11:53:58.743735,138457,1495857238,743544101,0,25,51,37,31,24,53,59,53
2017/05/27/11:53:58.766154,138458,1495857238,765995025,0,24,58,40,34,24,37,50,53
2017/05/27/11:53:58.781191,138459,1495857238,781025886,0,24,58,40,34,25,35,58,55
2017/05/27/11:53:58.803813,138460,1495857238,803606986,0,29,82,56,48,35,39,55,39
2017/05/27/11:53:58.826208,138461,1495857238,826014041,0,52,216,132,120,64,44,57,40
2017/05/27/11:53:58.841238,138462,1495857238,841018915,0,58,229,140,132,75,50,60,40
2017/05/27/11:53:58.864046,138463,1495857238,863631010,0,92,291,162,137,83,60,55,44
2017/05/27/11:53:58.886179,138464,1495857238,886022090,0,94,323,165,140,84,61,47,40
2017/05/27/11:53:58.901391,138465,1495857238,901124954,0,111,343,214,188,110,72,54,45
2017/05/27/11:53:58.923764,138466,1495857238,923552989,0,266,336,214,176,105,82,52,51
2017/05/27/11:53:58.946227,138467,1495857238,946043014,0,281,367,302,231,114,89,54,53
2017/05/27/11:53:58.961548,138468,1495857238,961169958,0,280,391,310,249,112,84,56,50
2017/05/27/11:53:58.983721,138469,1495857238,983484983,0,287,394,318,254,115,84,56,51
2017/05/27/11:53:59.006398,138470,1495857239,6117105,0,290,470,293,239,94,72,47,46
2017/05/27/11:53:59.021542,138471,1495857239,21131992,0,175,452,278,232,97,77,53,43
2017/05/27/11:53:59.043720,138472,1495857239,43515920,0,195,562,238,201,103,80,52,48
2017/05/27/11:53:59.066299,138473,1495857239,66050052,0,231,578,246,211,117,85,52,48
2017/05/27/11:53:59.081645,138474,1495857239,81190109,0,242,597,246,210,119,89,50,47
2017/05/27/11:53:59.103674,138475,1495857239,103480100,0,238,536,249,190,116,95,51,48
2017/05/27/11:53:59.126184,138476,1495857239,125988006,0,233,567,293,217,117,85,46,45
2017/05/27/11:53:59.141302,138477,1495857239,141010046,0,199,455,278,214,130,84,51,40
2017/05/27/11:53:59.163756,138478,1495857239,163506031,0,198,433,275,189,119,80,48,41
2017/05/27/11:53:59.194504,138479,1495857239,194308042,0,184,431,279,187,120,84,48,44
2017/05/27/11:53:59.208822,138480,1495857239,208535909,0,199,433,326,226,138,83,52,47
2017/05/27/11:53:59.223895,138481,1495857239,223571062,0,240,469,285,199,132,81,50,48
2017/05/27/11:53:59.246209,138482,1495857239,246000051,0,278,509,270,181,101,74,41,50
2017/05/27/11:53:59.268717,138483,1495857239,268496036,0,255,486,300,239,145,96,54,56
2017/05/27/11:53:59.283662,138484,1495857239,283489942,0,324,544,381,296,154,97,55,59
2017/05/27/11:53:59.306272,138485,1495857239,306036949,0,323,543,344,272,142,95,51,59
2017/05/27/11:53:59.328699,138486,1495857239,328528881,0,320,481,345,270,162,104,62,71
2017/05/27/11:53:59.345150,138487,1495857239,344949007,0,353,451,379,306,187,107,66,76
2017/05/27/11:53:59.366295,138488,1495857239,366029977,0,469,482,376,302,171,95,63,93
2017/05/27/11:53:59.388872,138489,1495857239,388550043,0,461,415,347,271,174,87,61,101
2017/05/27/11:53:59.403621,138490,1495857239,403428077,0,477,408,343,272,185,93,65,102
2017/05/27/11:53:59.426330,138491,1495857239,426067113,0,470,422,358,273,176,97,60,98
2017/05/27/11:53:59.448764,138492,1495857239,448553085,0,479,402,351,274,158,94,55,98
2017/05/27/11:53:59.471207,138493,1495857239,471019029,0,417,425,373,269,144,104,49,82
2017/05/27/11:53:59.486190,138494,1495857239,486006021,0,460,386,329,264,137,106,49,76
2017/05/27/11:53:59.508679,138495,1495857239,508505105,0,445,390,419,340,141,104,45,76
2017/05/27/11:53:59.523710,138496,1495857239,523515939,0,454,406,422,364,141,93,42,76
2017/05/27/11:53:59.546178,138497,1495857239,545994997,0,410,442,408,353,160,114,53,76
2017/05/27/11:53:59.569037,138498,1495857239,568595886,0,503,508,469,363,176,139,70,94
2017/05/27/11:53:59.583671,138499,1495857239,583477973,0,501,509,478,356,177,142,72,95
2017/05/27/11:53:59.606173,138500,1495857239,605978012,0,513,553,430,307,176,151,75,94
2017/05/27/11:53:59.628772,138501,1495857239,628565073,0,560,536,422,282,179,154,79,106
2017/05/27/11:53:59.643905,138502,1495857239,643580913,0,583,520,432,288,166,143,75,105
2017/05/27/11:53:59.666488,138503,1495857239,666104078,0,469,383,338,256,162,123,65,88
2017/05/27/11:53:59.688683,138504,1495857239,688499927,0,431,395,336,255,162,136,67,90
2017/05/27/11:53:59.704943,138505,1495857239,704732894,0,415,332,316,247,166,129,69,92
2017/05/27/11:53:59.726260,138506,1495857239,726093053,0,354,386,311,240,155,127,65,74
2017/05/27/11:53:59.748791,138507,1495857239,748575925,0,321,373,325,213,144,124,60,68
2017/05/27/11:53:59.763846,138508,1495857239,763534069,0,416,448,417,285,155,117,57,73
2017/05/27/11:53:59.786161,138509,1495857239,785967111,0,448,471,416,290,152,111,54,77
2017/05/27/11:53:59.808698,138510,1495857239,808474063,0,445,492,461,300,160,108,51,76
2017/05/27/11:53:59.823851,138511,1495857239,823518991,0,438,435,459,309,174,111,54,78
2017/05/27/11:53:59.846145,138512,1495857239,845978021,0,438,458,446,321,212,159,66,81
2017/05/27/11:53:59.870085,138513,1495857239,869935035,0,365,385,359,250,196,161,61,75
2017/05/27/11:53:59.883685,138514,1495857239,883500099,0,329,336,346,242,200,152,61,64
2017/05/27/11:53:59.906390,138515,1495857239,906116008,0,350,356,354,281,194,153,61,73
2017/05/27/11:53:59.928766,138516,1495857239,928524017,0,330,368,357,275,185,156,57,71
2017/05/27/11:53:59.944010,138517,1495857239,943629026,0,304,355,354,257,148,112,49,68
2017/05/27/11:53:59.966193,138518,1495857239,965985059,0,284,354,324,248,142,103,52,68
2017/05/27/11:53:59.988836,138519,1495857239,988594055,0,210,410,342,244,176,141,68,70
2017/05/27/11:54:00.003798,138520,1495857240,3498077,0,163,412,274,178,169,147,68,59
2017/05/27/11:54:00.026149,138521,1495857240,25978088,0,169,407,291,195,173,145,67,56
2017/05/27/11:54:00.048954,138522,1495857240,48527956,0,168,403,294,210,176,141,63,55
2017/05/27/11:54:00.063703,138523,1495857240,63494920,0,136,460,326,220,184,143,61,53
2017/05/27/11:54:00.102079,138524,1495857240,101735115,0,220,421,328,225,145,113,46,48
2017/05/27/11:54:00.109299,138525,1495857240,108645915,0,215,408,357,246,143,104,46,45
2017/05/27/11:54:00.124121,138526,1495857240,123665094,0,205,416,347,236,139,102,47,45
2017/05/27/11:54:00.146185,138527,1495857240,145965099,0,206,422,374,235,144,102,48,45
2017/05/27/11:54:00.169017,138528,1495857240,168664932,0,210,480,354,231,138,96,48,43
2017/05/27/11:54:00.191454,138529,1495857240,191104888,0,128,475,325,219,139,89,61,47
2017/05/27/11:54:00.206177,138530,1495857240,205984115,0,135,472,286,185,139,87,59,47
2017/05/27/11:54:00.228661,138531,1495857240,228499889,0,131,507,326,238,137,81,58,46
2017/05/27/11:54:00.251415,138532,1495857240,251137971,0,115,492,271,220,117,74,58,43
2017/05/27/11:54:00.266111,138533,1495857240,265957117,0,106,442,263,207,115,73,57,41
2017/05/27/11:54:00.288853,138534,1495857240,288609981,0,85,471,271,209,115,90,41,35
2017/05/27/11:54:00.311189,138535,1495857240,311013936,0,67,467,258,206,98,92,38,37
2017/05/27/11:54:00.329183,138536,1495857240,329024076,0,67,449,189,141,96,92,40,41
2017/05/27/11:54:00.348955,138537,1495857240,348558902,0,77,502,203,141,114,108,41,45
2017/05/27/11:54:00.371165,138538,1495857240,370984077,0,74,443,203,155,116,110,43,46
2017/05/27/11:54:00.386230,138539,1495857240,386071920,0,68,430,257,181,132,111,46,46
2017/05/27/11:54:00.408664,138540,1495857240,408473968,0,78,444,288,195,163,110,50,48
2017/05/27/11:54:00.431224,138541,1495857240,431062936,0,78,433,283,194,172,119,53,46
2017/05/27/11:54:00.446203,138542,1495857240,446013927,0,67,345,266,207,174,106,57,44
2017/05/27/11:54:00.468786,138543,1495857240,468502998,0,70,355,282,225,174,104,64,52
2017/05/27/11:54:00.491126,138544,1495857240,490993022,0,76,404,319,271,180,96,60,52
2017/05/27/11:54:00.506230,138545,1495857240,506035089,0,70,382,337,311,197,119,61,57
2017/05/27/11:54:00.528906,138546,1495857240,528593063,0,77,431,346,317,208,118,62,59
2017/05/27/11:54:00.551193,138547,1495857240,551002979,0,80,480,366,310,196,121,62,63
2017/05/27/11:54:00.566187,138548,1495857240,566021919,0,83,520,367,299,205,129,59,60
2017/05/27/11:54:00.588771,138549,1495857240,588519096,0,80,479,310,250,186,128,59,62
2017/05/27/11:54:00.611376,138550,1495857240,611124038,0,84,576,329,202,144,102,56,59
2017/05/27/11:54:00.626167,138551,1495857240,625987052,0,77,515,321,193,133,105,75,60
2017/05/27/11:54:00.648645,138552,1495857240,648468971,0,82,511,308,199,142,99,73,58
2017/05/27/11:54:00.671146,138553,1495857240,670965909,0,83,515,319,196,139,109,76,56
2017/05/27/11:54:00.686118,138554,1495857240,685985088,0,84,526,335,216,140,100,81,53
2017/05/27/11:54:00.710192,138555,1495857240,709937095,0,75,416,274,196,142,126,83,50
2017/05/27/11:54:00.731205,138556,1495857240,731019973,0,80,447,280,208,159,120,78,54
2017/05/27/11:54:00.746264,138557,1495857240,746049880,0,76,428,279,214,163,131,87,59
2017/05/27/11:54:00.768668,138558,1495857240,768471956,0,76,392,264,215,167,114,82,62
2017/05/27/11:54:00.791231,138559,1495857240,791028976,0,81,393,290,196,165,116,78,61
2017/05/27/11:54:00.806172,138560,1495857240,805977106,0,84,414,321,218,178,94,78,68
2017/05/27/11:54:00.828853,138561,1495857240,828500032,0,85,481,348,224,167,112,69,73
2017/05/27/11:54:00.851175,138562,1495857240,850972890,0,90,501,342,208,170,115,59,67
2017/05/27/11:54:00.866178,138563,1495857240,866010904,0,85,483,329,204,154,118,67,69
2017/05/27/11:54:00.888724,138564,1495857240,888514041,0,85,488,346,232,162,128,68,69
2017/05/27/11:54:00.911133,138565,1495857240,910979986,0,83,457,328,213,139,133,66,63
2017/05/27/11:54:00.926316,138566,1495857240,926095008,0,74,363,302,207,136,118,67,58
2017/05/27/11:54:00.950290,138567,1495857240,949995040,0,77,374,321,223,135,108,67,59
2017/05/27/11:54:00.971300,138568,1495857240,971040010,0,84,443,332,226,153,104,60,55
2017/05/27/11:54:00.986372,138569,1495857240,986090898,0,82,423,330,210,160,108,74,61
2017/05/27/11:54:01.009020,138570,1495857241,8521080,0,84,437,317,213,188,107,72,65
2017/05/27/11:54:01.031228,138571,1495857241,31017065,0,88,482,323,208,178,104,67,58
2017/05/27/11:54:01.046486,138572,1495857241,46183109,0,79,444,309,189,186,122,64,59
2017/05/27/11:54:01.068910,138573,1495857241,68578004,0,76,407,309,206,188,127,66,60
2017/05/27/11:54:01.091458,138574,1495857241,91135025,0,75,433,252,190,189,119,52,51
2017/05/27/11:54:01.113704,138575,1495857241,113495111,0,78,443,270,188,160,108,52,46
2017/05/27/11:54:01.128693,138576,1495857241,128524065,0,80,458,349,217,175,131,53,48
2017/05/27/11:54:01.151267,138577,1495857241,151082038,0,79,453,361,236,171,120,51,44
2017/05/27/11:54:01.173855,138578,1495857241,173525094,0,82,476,369,229,157,115,53,41
2017/05/27/11:54:01.189067,138579,1495857241,188571929,0,81,456,384,260,157,108,54,46
2017/05/27/11:54:01.211136,138580,1495857241,210941076,0,78,463,379,276,183,115,55,47
2017/05/27/11:54:01.233761,138581,1495857241,233491897,0,75,405,311,252,180,95,57,50
2017/05/27/11:54:01.248823,138582,1495857241,248527050,0,80,452,294,237,167,92,58,52
2017/05/27/11:54:01.271170,138583,1495857241,270972013,0,75,453,364,271,174,97,53,52
2017/05/27/11:54:01.293623,138584,1495857241,293454885,0,80,463,365,243,162,105,53,53
2017/05/27/11:54:01.308687,138585,1495857241,308494091,0,86,456,374,234,138,104,51,61
2017/05/27/11:54:01.331418,138586,1495857241,331110954,0,91,459,362,230,131,99,49,63
2017/05/27/11:54:01.356381,138587,1495857241,356185913,0,97,470,376,228,134,100,50,65
2017/05/27/11:54:01.368673,138588,1495857241,368495941,0,98,428,332,189,134,95,56,72
2017/05/27/11:54:01.391275,138589,1495857241,391026973,0,96,429,301,177,136,86,53,71
2017/05/27/11:54:01.413678,138590,1495857241,413500070,0,92,445,277,151,134,84,55,67
2017/05/27/11:54:01.428703,138591,1495857241,428520917,0,90,442,298,160,130,104,70,68
2017/05/27/11:54:01.451270,138592,1495857241,451076984,0,84,443,354,196,162,131,83,74
2017/05/27/11:54:01.473782,138593,1495857241,473596096,0,86,541,409,222,173,155,93,71
2017/05/27/11:54:01.488798,138594,1495857241,488543033,0,82,535,429,247,181,165,100,72
2017/05/27/11:54:01.511259,138595,1495857241,511001110,0,84,526,448,269,188,167,100,72
2017/05/27/11:54:01.533887,138596,1495857241,533601045,0,98,553,460,277,210,162,93,68
2017/05/27/11:54:01.556240,138597,1495857241,555994033,0,96,531,416,260,183,139,80,61
2017/05/27/11:54:01.579432,138598,1495857241,579175949,0,87,421,326,237,171,109,64,56
2017/05/27/11:54:01.593730,138599,1495857241,593516111,0,87,426,325,237,172,96,56,52
2017/05/27/11:54:01.608611,138600,1495857241,608455896,0,81,394,322,221,166,96,54,52
2017/05/27/11:54:01.631260,138601,1495857241,631027936,0,63,358,283,200,142,82,47,51
2017/05/27/11:54:01.653652,138602,1495857241,653466939,0,69,343,268,193,144,80,46,49
2017/05/27/11:54:01.668741,138603,1495857241,668520927,0,71,364,284,198,154,87,47,48
2017/05/27/11:54:01.691176,138604,1495857241,690978050,0,77,414,278,188,162,95,48,50
2017/05/27/11:54:01.713646,138605,1495857241,713459014,0,80,415,275,213,171,92,47,49
2017/05/27/11:54:01.728693,138606,1495857241,728518962,0,101,482,276,214,168,108,53,54
2017/05/27/11:54:01.751115,138607,1495857241,750988960,0,100,476,273,215,170,110,55,55
2017/05/27/11:54:01.782117,138608,1495857241,781740903,0,105,510,251,197,154,104,55,59
2017/05/27/11:54:01.788625,138609,1495857241,788460969,0,101,463,246,188,139,96,52,58
2017/05/27/11:54:01.826973,138610,1495857241,826755046,0,106,506,246,158,118,94,57,58
2017/05/27/11:54:01.833758,138611,1495857241,833525896,0,90,452,267,168,115,75,52,50
2017/05/27/11:54:01.848646,138612,1495857241,848469972,0,96,504,334,195,148,91,60,53
2017/05/27/11:54:01.879438,138613,1495857241,879190921,0,104,508,386,216,150,106,64,56
2017/05/27/11:54:01.902388,138614,1495857241,902203083,0,103,500,373,212,144,108,66,55
2017/05/27/11:54:01.908638,138615,1495857241,908493041,0,102,534,352,207,152,108,65,57
2017/05/27/11:54:01.932900,138616,1495857241,932465076,0,112,569,351,200,153,113,62,60
2017/05/27/11:54:01.953673,138617,1495857241,953474044,0,107,540,299,197,129,97,55,56
2017/05/27/11:54:01.968697,138618,1495857241,968473911,0,94,508,244,185,125,83,48,55
2017/05/27/11:54:01.991183,138619,1495857241,990972042,0,97,540,226,179,120,92,45,55
2017/05/27/11:54:02.013704,138620,1495857242,13473987,0,96,530,230,177,116,101,39,55
2017/05/27/11:54:02.036182,138621,1495857242,35995006,0,81,497,231,198,117,94,38,57
2017/05/27/11:54:02.051297,138622,1495857242,51045894,0,79,480,255,194,109,97,40,57
2017/05/27/11:54:02.073828,138623,1495857242,73524951,0,87,476,269,192,115,98,40,54
2017/05/27/11:54:02.100955,138624,1495857242,100738048,0,82,430,279,198,121,89,40,52
2017/05/27/11:54:02.111202,138625,1495857242,111023902,0,77,405,284,203,122,79,47,48
2017/05/27/11:54:02.142057,138626,1495857242,141792058,0,69,380,319,217,139,82,55,49
2017/05/27/11:54:02.156273,138627,1495857242,156035900,0,74,416,293,201,138,74,55,52
2017/05/27/11:54:02.171195,138628,1495857242,170998096,0,78,455,273,194,133,74,56,53
2017/05/27/11:54:02.193961,138629,1495857242,193528890,0,82,518,285,190,130,72,63,58
2017/05/27/11:54:02.216152,138630,1495857242,215975046,0,92,484,281,189,135,71,59,59
2017/05/27/11:54:02.231211,138631,1495857242,231013059,0,94,497,244,156,115,69,53,52
2017/05/27/11:54:02.253940,138632,1495857242,253576993,0,86,441,271,167,111,74,51,50
2017/05/27/11:54:02.276136,138633,1495857242,275983095,0,76,367,279,164,117,73,50,47
2017/05/27/11:54:02.291244,138634,1495857242,291045904,0,73,300,273,171,114,66,43,46
2017/05/27/11:54:02.313807,138635,1495857242,313602924,0,67,353,272,169,106,67,40,43
2017/05/27/11:54:02.344662,138636,1495857242,344221115,0,72,346,245,167,103,64,41,44
2017/05/27/11:54:02.351196,138637,1495857242,350995063,0,87,442,233,160,120,66,47,46
2017/05/27/11:54:02.373994,138638,1495857242,373589992,0,109,592,233,170,125,77,60,56
2017/05/27/11:54:02.396158,138639,1495857242,395971059,0,114,590,249,181,126,84,59,57
2017/05/27/11:54:02.411172,138640,1495857242,411011934,0,113,568,254,176,131,81,62,61
2017/05/27/11:54:02.435135,138641,1495857242,434962034,0,112,587,263,182,133,87,61,61
2017/05/27/11:54:02.456172,138642,1495857242,455987930,0,106,548,283,189,118,91,58,59
2017/05/27/11:54:02.471167,138643,1495857242,470988988,0,93,453,291,190,109,80,50,53
2017/05/27/11:54:02.493718,138644,1495857242,493500947,0,96,506,326,217,112,81,48,47
2017/05/27/11:54:02.516158,138645,1495857242,515990972,0,107,546,341,221,101,80,47,46
2017/05/27/11:54:02.531306,138646,1495857242,531033039,0,106,539,328,216,108,84,46,44
2017/05/27/11:54:02.553779,138647,1495857242,553571939,0,125,627,302,204,109,78,46,42
2017/05/27/11:54:02.576172,138648,1495857242,576000928,0,126,640,281,195,105,85,50,41
2017/05/27/11:54:02.591185,138649,1495857242,590966939,0,124,631,231,155,101,88,48,41
2017/05/27/11:54:02.630941,138650,1495857242,630642890,0,118,620,228,176,118,89,46,40
2017/05/27/11:54:02.636361,138651,1495857242,636179924,0,117,627,246,188,108,78,48,41
2017/05/27/11:54:02.666155,138652,1495857242,665997028,0,92,540,254,196,111,90,48,41
2017/05/27/11:54:02.675085,138653,1495857242,674917936,0,78,485,254,196,112,81,40,39
2017/05/27/11:54:02.696216,138654,1495857242,696024894,0,101,565,254,189,112,76,41,38
2017/05/27/11:54:02.718786,138655,1495857242,718517065,0,102,564,263,191,109,74,38,37
2017/05/27/11:54:02.735158,138656,1495857242,734980106,0,104,548,288,187,121,97,44,39
2017/05/27/11:54:02.756164,138657,1495857242,756002902,0,109,528,292,175,124,98,55,47
2017/05/27/11:54:02.778711,138658,1495857242,778503894,0,117,606,313,181,123,105,58,47
2017/05/27/11:54:02.802680,138659,1495857242,802445888,0,101,568,312,186,121,106,64,50
2017/05/27/11:54:02.816208,138660,1495857242,815989971,0,91,572,301,166,118,116,68,49
2017/05/27/11:54:02.838724,138661,1495857242,838466882,0,87,566,275,157,107,101,65,48
2017/05/27/11:54:02.855138,138662,1495857242,854943037,0,83,594,272,162,96,87,52,40
2017/05/27/11:54:02.876152,138663,1495857242,875973939,0,83,603,265,170,105,81,54,39
2017/05/27/11:54:02.898708,138664,1495857242,898472070,0,72,534,259,158,102,76,47,34
2017/05/27/11:54:02.915137,138665,1495857242,914936065,0,78,493,248,155,97,58,40,35
2017/05/27/11:54:02.936125,138666,1495857242,935959100,0,80,496,231,143,88,55,42,38
2017/05/27/11:54:02.958626,138667,1495857242,958457946,0,85,485,230,153,104,57,48,40
2017/05/27/11:54:02.975130,138668,1495857242,974946975,0,86,476,312,170,97,62,41,40
2017/05/27/11:54:02.996098,138669,1495857242,995918035,0,85,471,302,180,109,69,43,40
2017/05/27/11:54:03.018716,138670,1495857243,18527984,0,85,494,309,188,107,73,48,45
2017/05/27/11:54:03.041573,138671,1495857243,41116952,0,106,599,325,195,114,75,45,40
2017/05/27/11:54:03.056405,138672,1495857243,55978059,0,101,599,343,222,130,78,43,42
2017/05/27/11:54:03.078663,138673,1495857243,78490018,0,98,565,295,213,136,82,45,46
2017/05/27/11:54:03.095130,138674,1495857243,94945907,0,103,642,298,222,133,79,45,46
2017/05/27/11:54:03.116413,138675,1495857243,116153001,0,105,647,280,207,131,81,47,43
2017/05/27/11:54:03.146377,138676,1495857243,146048069,0,97,619,277,208,129,79,47,44
2017/05/27/11:54:03.155290,138677,1495857243,154915094,0,111,611,247,177,100,72,45,44
2017/05/27/11:54:03.176548,138678,1495857243,176151990,0,107,555,214,165,89,62,44,41
2017/05/27/11:54:03.198719,138679,1495857243,198503971,0,102,523,221,160,91,56,39,42
2017/05/27/11:54:03.215243,138680,1495857243,214973926,0,100,495,218,166,89,52,32,38
2017/05/27/11:54:03.236194,138681,1495857243,236006975,0,99,516,298,177,87,59,37,43
2017/05/27/11:54:03.266253,138682,1495857243,266007900,0,96,593,330,172,94,62,40,42
2017/05/27/11:54:03.275132,138683,1495857243,274962902,0,99,649,327,167,94,61,41,44
2017/05/27/11:54:03.296107,138684,1495857243,295973062,0,104,635,329,157,86,65,43,45
2017/05/27/11:54:03.318722,138685,1495857243,318475961,0,99,631,335,162,95,60,44,47
2017/05/27/11:54:03.337484,138686,1495857243,337285995,0,86,554,284,152,103,59,42,42
2017/05/27/11:54:03.356182,138687,1495857243,355967998,0,88,498,279,157,104,59,42,43
2017/05/27/11:54:03.378565,138688,1495857243,378432989,0,92,522,296,173,103,64,40,41
2017/05/27/11:54:03.395218,138689,1495857243,394984006,0,90,502,317,201,103,59,38,41
2017/05/27/11:54:03.416344,138690,1495857243,416023969,0,90,510,329,202,105,63,41,40
2017/05/27/11:54:03.438660,138691,1495857243,438477039,0,95,517,337,205,96,62,39,40
2017/05/27/11:54:03.455458,138692,1495857243,454993963,0,88,513,315,195,95,57,34,37
2017/05/27/11:54:03.476141,138693,1495857243,475960016,0,81,422,337,220,107,60,36,36
2017/05/27/11:54:03.498730,138694,1495857243,498447895,0,80,391,317,195,110,64,35,37
2017/05/27/11:54:03.515218,138695,1495857243,515023946,0,88,405,330,198,121,65,34,36
2017/05/27/11:54:03.536236,138696,1495857243,536010026,0,91,364,319,201,122,65,40,38
2017/05/27/11:54:03.558603,138697,1495857243,558446884,0,88,348,312,208,127,72,44,39
2017/05/27/11:54:03.575189,138698,1495857243,575031995,0,85,364,266,173,116,67,44,38
2017/05/27/11:54:03.597758,138699,1495857243,597453117,0,81,373,248,163,110,67,44,38
2017/05/27/11:54:03.618846,138700,1495857243,618537902,0,80,388,228,165,96,67,47,42
2017/05/27/11:54:03.635655,138701,1495857243,635461091,0,72,411,200,152,94,66,43,39
2017/05/27/11:54:03.657664,138702,1495857243,657486915,0,80,426,215,171,81,61,41,41
2017/05/27/11:54:03.678802,138703,1495857243,678481101,0,89,455,233,172,80,68,44,41
2017/05/27/11:54:03.695094,138704,1495857243,694904088,0,93,458,253,191,87,65,42,40
2017/05/27/11:54:03.717709,138705,1495857243,717503070,0,90,452,252,193,95,66,37,37
2017/05/27/11:54:03.738642,138706,1495857243,738482952,0,93,436,257,197,99,69,41,40
2017/05/27/11:54:03.762683,138707,1495857243,762480974,0,81,397,286,188,99,72,44,38
2017/05/27/11:54:03.777740,138708,1495857243,777482986,0,70,360,269,183,103,65,42,37
2017/05/27/11:54:03.798805,138709,1495857243,798516988,0,76,398,255,168,105,66,43,42
2017/05/27/11:54:03.821081,138710,1495857243,820950984,0,80,404,290,212,114,66,45,42
2017/05/27/11:54:03.837894,138711,1495857243,837744951,0,74,409,321,224,115,66,48,42
2017/05/27/11:54:03.858738,138712,1495857243,858513116,0,88,417,289,215,122,64,52,46
2017/05/27/11:54:03.881198,138713,1495857243,880996942,0,109,451,283,214,118,63,51,47
2017/05/27/11:54:03.897679,138714,1495857243,897435903,0,105,440,312,234,129,70,54,46
2017/05/27/11:54:03.918665,138715,1495857243,918492078,0,104,443,278,183,115,69,54,45
2017/05/27/11:54:03.948810,138716,1495857243,948508977,0,109,451,241,161,111,68,46,42
2017/05/27/11:54:03.957722,138717,1495857243,957479953,0,100,453,238,178,121,67,36,36
2017/05/27/11:54:03.978710,138718,1495857243,978517055,0,97,489,254,194,131,71,38,37
2017/05/27/11:54:04.001384,138719,1495857244,1055955,0,99,475,222,169,117,63,34,35
2017/05/27/11:54:04.017634,138720,1495857244,17462968,0,116,523,200,162,111,65,31,37
2017/05/27/11:54:04.038712,138721,1495857244,38484096,0,118,535,190,160,110,59,30,36
2017/05/27/11:54:04.061352,138722,1495857244,61053037,0,120,547,198,144,92,58,36,38
2017/05/27/11:54:04.077591,138723,1495857244,77423095,0,112,473,206,143,96,63,39,41
2017/05/27/11:54:04.099033,138724,1495857244,98598003,0,111,456,212,138,93,64,41,42
2017/05/27/11:54:04.121151,138725,1495857244,120990037,0,97,373,210,153,108,59,42,44
2017/05/27/11:54:04.138011,138726,1495857244,137747049,0,88,347,210,150,104,61,44,46
2017/05/27/11:54:04.158736,138727,1495857244,158442974,0,84,305,245,145,98,61,42,44
2017/05/27/11:54:04.181207,138728,1495857244,181018114,0,89,404,262,137,83,54,39,42
2017/05/27/11:54:04.205154,138729,1495857244,204951047,0,93,423,267,157,89,54,39,41
2017/05/27/11:54:04.218642,138730,1495857244,218460083,0,89,457,288,156,74,56,40,37
2017/05/27/11:54:04.241269,138731,1495857244,241041898,0,91,443,309,169,100,68,43,39
2017/05/27/11:54:04.257593,138732,1495857244,257402896,0,94,493,288,169,111,77,43,39
2017/05/27/11:54:04.278720,138733,1495857244,278490066,0,100,558,280,175,114,76,40,39
2017/05/27/11:54:04.301154,138734,1495857244,300962924,0,93,557,265,176,115,78,38,36
2017/05/27/11:54:04.319778,138735,1495857244,319497108,0,99,543,277,181,123,79,38,38
2017/05/27/11:54:04.338697,138736,1495857244,338495016,0,103,582,278,169,124,77,38,36
2017/05/27/11:54:04.361169,138737,1495857244,360975027,0,105,554,258,166,118,68,40,39
2017/05/27/11:54:04.377726,138738,1495857244,377546072,0,87,411,229,163,124,73,40,37
2017/05/27/11:54:04.398621,138739,1495857244,398435115,0,86,410,265,162,125,73,41,40
2017/05/27/11:54:04.421396,138740,1495857244,421083927,0,75,371,247,157,116,72,43,39
2017/05/27/11:54:04.437917,138741,1495857244,437473058,0,75,338,215,154,99,65,39,39
2017/05/27/11:54:04.458800,138742,1495857244,458493947,0,69,358,242,165,104,69,40,39
2017/05/27/11:54:04.481487,138743,1495857244,481095075,0,71,349,290,168,92,61,41,40
2017/05/27/11:54:04.497769,138744,1495857244,497500896,0,77,365,259,149,80,56,41,40
2017/05/27/11:54:04.518708,138745,1495857244,518511056,0,84,433,286,142,89,57,38,40
2017/05/27/11:54:04.542740,138746,1495857244,542407035,0,76,419,320,183,102,57,41,43
2017/05/27/11:54:04.565080,138747,1495857244,564954996,0,88,442,318,178,98,71,38,43
2017/05/27/11:54:04.578826,138748,1495857244,578547954,0,107,504,299,166,104,77,38,42
2017/05/27/11:54:04.601223,138749,1495857244,601025104,0,105,478,315,197,117,79,39,42
2017/05/27/11:54:04.618315,138750,1495857244,618155002,0,101,415,285,195,113,78,38,41
2017/05/27/11:54:04.638811,138751,1495857244,638586997,0,106,458,279,192,123,83,40,42
2017/05/27/11:54:04.668785,138752,1495857244,668548107,0,95,466,284,190,124,69,39,40
2017/05/27/11:54:04.677582,138753,1495857244,677442073,0,77,435,265,188,126,76,43,40
2017/05/27/11:54:04.698564,138754,1495857244,698431015,0,76,465,311,176,124,89,48,44
2017/05/27/11:54:04.728801,138755,1495857244,728569030,0,93,567,355,190,127,91,51,47
2017/05/27/11:54:04.745095,138756,1495857244,744913101,0,94,545,344,168,105,86,48,44
2017/05/27/11:54:04.758570,138757,1495857244,758425951,0,98,508,328,168,105,86,47,45
2017/05/27/11:54:04.781035,138758,1495857244,780908107,0,99,490,337,172,108,76,43,47
2017/05/27/11:54:04.797721,138759,1495857244,797466039,0,98,455,282,162,113,67,40,48
2017/05/27/11:54:04.819017,138760,1495857244,818561077,0,88,374,215,150,115,65,39,45
2017/05/27/11:54:04.848713,138761,1495857244,848457098,0,87,356,205,135,113,63,42,46
2017/05/27/11:54:04.857559,138762,1495857244,857392072,0,87,364,217,150,112,60,46,47
2017/05/27/11:54:04.880293,138763,1495857244,879998922,0,83,399,189,145,108,57,48,51
2017/05/27/11:54:04.901209,138764,1495857244,901000022,0,85,404,183,132,95,48,44,45
2017/05/27/11:54:04.923779,138765,1495857244,923515081,0,74,348,193,126,81,43,43,46
2017/05/27/11:54:04.940079,138766,1495857244,939937114,0,74,331,184,129,86,48,42,48
2017/05/27/11:54:04.961189,138767,1495857244,960988044,0,71,325,198,117,88,47,38,46
2017/05/27/11:54:04.983718,138768,1495857244,983555078,0,73,314,199,116,78,49,35,38
2017/05/27/11:54:05.000498,138769,1495857245,5960,0,71,327,192,116,80,48,35,39
2017/05/27/11:54:05.021248,138770,1495857245,21008014,0,75,371,181,112,77,46,35,36
2017/05/27/11:54:05.043604,138771,1495857245,43411016,0,72,370,177,113,71,48,37,37
2017/05/27/11:54:05.060086,138772,1495857245,59906959,0,69,361,141,164,104,51,39,55
2017/05/27/11:54:05.081473,138773,1495857245,81096887,0,82,434,157,175,107,51,37,57
2017/05/27/11:54:05.103618,138774,1495857245,103401899,0,104,495,182,189,110,51,40,66
2017/05/27/11:54:05.120234,138775,1495857245,119959115,0,107,487,234,252,135,55,44,74
2017/05/27/11:54:05.141146,138776,1495857245,140949964,0,115,496,277,304,155,55,42,82
2017/05/27/11:54:05.171527,138777,1495857245,171061992,0,147,575,318,368,177,63,56,87
2017/05/27/11:54:05.180101,138778,1495857245,179905891,0,143,499,311,384,182,66,60,91
2017/05/27/11:54:05.201211,138779,1495857245,200997114,0,127,437,300,379,177,65,58,84
2017/05/27/11:54:05.223761,138780,1495857245,223476886,0,123,427,266,344,161,62,55,79
2017/05/27/11:54:05.240216,138781,1495857245,240000963,0,119,449,216,297,141,54,51,67
2017/05/27/11:54:05.261187,138782,1495857245,260993957,0,82,344,157,175,72,37,33,47
2017/05/27/11:54:05.283746,138783,1495857245,283492088,0,73,348,153,119,55,31,26,36
2017/05/27/11:54:05.300297,138784,1495857245,299990892,0,71,341,140,110,51,26,24,37
2017/05/27/11:54:05.321175,138785,1495857245,320964097,0,71,330,129,91,45,25,23,33
2017/05/27/11:54:05.343802,138786,1495857245,343518972,0,61,284,121,86,43,26,22,33
2017/05/27/11:54:05.360119,138787,1495857245,359926939,0,48,246,83,66,40,24,22,28
2017/05/27/11:54:05.381185,138788,1495857245,380979061,0,42,206,68,54,34,24,20,25
2017/05/27/11:54:05.403811,138789,1495857245,403534889,0,37,180,63,49,33,25,20,24
2017/05/27/11:54:05.420172,138790,1495857245,419945001,0,40,167,51,47,31,24,19,24
2017/05/27/11:54:05.448780,138791,1495857245,448539972,0,44,161,71,48,28,24,19,24
2017/05/27/11:54:05.463637,138792,1495857245,463435888,0,41,151,77,52,28,24,17,23
2017/05/27/11:54:05.481727,138793,1495857245,481415033,0,41,148,78,51,29,23,18,25
2017/05/27/11:54:05.501343,138794,1495857245,501036882,0,43,154,112,79,35,24,20,25
2017/05/27/11:54:05.523611,138795,1495857245,523432016,0,37,135,142,99,42,23,19,22
2017/05/27/11:54:05.540145,138796,1495857245,539921998,0,38,139,152,108,49,26,21,25
2017/05/27/11:54:05.561121,138797,1495857245,560920953,0,79,145,157,111,49,26,23,27
2017/05/27/11:54:05.583988,138798,1495857245,583609104,0,85,136,179,157,55,30,24,26
2017/05/27/11:54:05.601493,138799,1495857245,601274013,0,88,140,231,164,57,30,23,28
2017/05/27/11:54:05.621183,138800,1495857245,620965003,0,110,139,218,157,55,31,24,31
2017/05/27/11:54:05.643713,138801,1495857245,643482923,0,112,126,213,151,52,31,24,29
2017/05/27/11:54:05.660141,138802,1495857245,659934043,0,103,109,217,160,55,30,26,33
2017/05/27/11:54:05.682820,138803,1495857245,682466030,0,124,118,206,128,48,27,25,35
2017/05/27/11:54:05.703633,138804,1495857245,703437089,0,167,206,249,168,62,33,27,39
2017/05/27/11:54:05.726264,138805,1495857245,726023912,0,167,221,261,176,64,34,27,39
2017/05/27/11:54:05.742615,138806,1495857245,742428064,0,167,223,259,178,64,33,26,39
2017/05/27/11:54:05.763753,138807,1495857245,763520002,0,164,230,266,177,66,33,24,36
2017/05/27/11:54:05.786104,138808,1495857245,785919904,0,178,229,265,183,69,35,26,51
2017/05/27/11:54:05.802619,138809,1495857245,802414894,0,143,151,195,137,53,28,26,51
2017/05/27/11:54:05.831228,138810,1495857245,830998897,0,133,143,188,125,47,26,26,49
2017/05/27/11:54:05.846189,138811,1495857245,845954895,0,144,168,212,160,55,30,28,51
2017/05/27/11:54:05.862726,138812,1495857245,862442016,0,141,170,207,157,52,31,28,51
2017/05/27/11:54:05.891176,138813,1495857245,890985012,0,124,183,204,142,48,30,26,40
2017/05/27/11:54:05.906189,138814,1495857245,905973911,0,207,213,214,138,44,29,24,38
2017/05/27/11:54:05.922597,138815,1495857245,922377109,0,221,221,245,155,51,29,25,40
2017/05/27/11:54:05.951345,138816,1495857245,951054096,0,220,221,236,117,44,27,23,40
2017/05/27/11:54:05.966098,138817,1495857245,965926885,0,224,216,241,111,42,26,22,39
2017/05/27/11:54:05.982650,138818,1495857245,982445955,0,223,223,278,130,50,26,24,38
2017/05/27/11:54:06.005146,138819,1495857246,4920959,0,154,197,266,161,61,28,25,34
2017/05/27/11:54:06.026228,138820,1495857246,26024103,0,153,177,238,147,59,31,26,34
2017/05/27/11:54:06.042645,138821,1495857246,42434930,0,146,158,224,145,57,29,26,32
2017/05/27/11:54:06.063635,138822,1495857246,63430070,0,149,190,210,145,57,28,25,32
2017/05/27/11:54:06.086112,138823,1495857246,85900068,0,164,169,189,139,52,30,24,38
2017/05/27/11:54:06.102682,138824,1495857246,102463006,0,157,156,204,117,39,30,24,40
2017/05/27/11:54:06.123785,138825,1495857246,123483896,0,139,157,200,111,36,28,24,41
2017/05/27/11:54:06.146309,138826,1495857246,146001100,0,140,160,198,109,37,29,24,42
2017/05/27/11:54:06.162936,138827,1495857246,162467002,0,129,139,209,120,39,29,25,43
2017/05/27/11:54:06.183704,138828,1495857246,183484077,0,103,164,194,110,38,28,24,35
2017/05/27/11:54:06.206158,138829,1495857246,205982923,0,101,175,152,86,34,25,24,33
2017/05/27/11:54:06.222605,138830,1495857246,222426891,0,97,174,162,92,34,26,24,34
2017/05/27/11:54:06.243902,138831,1495857246,243581056,0,94,172,166,104,40,26,25,33
2017/05/27/11:54:06.282643,138832,1495857246,282325029,0,92,170,187,110,39,25,24,32
2017/05/27/11:54:06.283993,138833,1495857246,283863067,0,84,154,193,111,40,26,25,32
2017/05/27/11:54:06.303543,138834,1495857246,303395986,0,88,150,188,113,42,26,23,29
2017/05/27/11:54:06.333819,138835,1495857246,333537101,0,79,155,173,110,41,24,21,30
2017/05/27/11:54:06.342721,138836,1495857246,342397928,0,81,156,169,108,39,25,21,29
2017/05/27/11:54:06.363697,138837,1495857246,363485097,0,78,155,173,98,41,27,22,29
2017/05/27/11:54:06.395090,138838,1495857246,394906997,0,73,149,161,94,40,24,20,29
2017/05/27/11:54:06.410093,138839,1495857246,409903049,0,87,145,160,96,43,26,22,35
2017/05/27/11:54:06.432673,138840,1495857246,432431936,0,90,151,167,102,46,29,23,31
2017/05/27/11:54:06.447645,138841,1495857246,447452068,0,87,146,195,139,49,29,22,31
2017/05/27/11:54:06.462843,138842,1495857246,462517023,0,92,136,178,145,49,29,22,32
2017/05/27/11:54:06.485202,138843,1495857246,484940052,0,87,164,171,146,52,29,24,31
2017/05/27/11:54:06.507759,138844,1495857246,507453918,0,108,161,170,145,51,27,24,34
2017/05/27/11:54:06.522607,138845,1495857246,522428989,0,110,149,171,152,55,29,25,35
2017/05/27/11:54:06.559335,138846,1495857246,559128046,0,112,173,164,116,51,28,25,37
2017/05/27/11:54:06.566224,138847,1495857246,565990924,0,114,190,146,100,50,31,24,36
2017/05/27/11:54:06.582670,138848,1495857246,582427024,0,113,167,145,100,49,31,23,36
2017/05/27/11:54:06.619390,138849,1495857246,619183063,0,76,168,155,119,53,32,24,30
2017/05/27/11:54:06.626133,138850,1495857246,625962018,0,69,169,156,112,49,28,22,29
2017/05/27/11:54:06.650308,138851,1495857246,649960041,0,67,149,153,110,49,29,21,26
2017/05/27/11:54:06.672598,138852,1495857246,672420978,0,53,124,148,105,45,24,21,25
2017/05/27/11:54:06.687584,138853,1495857246,687428951,0,57,136,166,122,47,26,22,24
2017/05/27/11:54:06.702741,138854,1495857246,702474117,0,57,131,171,119,42,28,21,23
2017/05/27/11:54:06.725128,138855,1495857246,724931955,0,56,129,166,119,43,29,21,25
2017/05/27/11:54:06.746946,138856,1495857246,746762990,0,48,125,145,119,43,27,22,25
2017/05/27/11:54:06.777100,138857,1495857246,776922941,0,48,120,156,124,42,27,22,26
2017/05/27/11:54:06.785064,138858,1495857246,784904956,0,32,90,132,103,36,25,21,24
2017/05/27/11:54:06.806331,138859,1495857246,805988073,0,31,97,153,130,44,24,25,27
2017/05/27/11:54:06.838404,138860,1495857246,838146924,0,38,139,175,139,48,27,25,24
2017/05/27/11:54:06.843665,138861,1495857246,843440055,0,38,148,179,144,50,26,25,25
2017/05/27/11:54:06.866085,138862,1495857246,865936040,0,39,157,178,146,53,27,26,26
2017/05/27/11:54:06.888803,138863,1495857246,888542890,0,40,157,176,147,53,26,26,26
2017/05/27/11:54:06.903816,138864,1495857246,903561115,0,38,158,141,110,48,25,24,22
2017/05/27/11:54:06.926279,138865,1495857246,926028966,0,34,133,154,123,49,25,23,21
2017/05/27/11:54:06.950097,138866,1495857246,949903011,0,34,123,154,117,49,27,24,21
2017/05/27/11:54:06.965115,138867,1495857246,964941978,0,31,112,148,116,46,28,24,20
2017/05/27/11:54:06.986086,138868,1495857246,985941886,0,29,107,150,117,47,29,23,22
2017/05/27/11:54:07.008822,138869,1495857247,8471965,0,29,94,152,115,45,27,21,25
2017/05/27/11:54:07.026925,138870,1495857247,26762008,0,29,76,107,81,36,23,21,24
2017/05/27/11:54:07.053607,138871,1495857247,53462028,0,28,72,118,87,34,22,20,24
2017/05/27/11:54:07.068517,138872,1495857247,68386077,0,30,68,118,85,35,20,19,25
2017/05/27/11:54:07.085083,138873,1495857247,84932088,0,30,70,114,83,35,20,19,24
2017/05/27/11:54:07.108224,138874,1495857247,108072996,0,29,68,109,76,33,21,18,23
2017/05/27/11:54:07.128587,138875,1495857247,128458023,0,31,87,101,72,33,22,18,25
2017/05/27/11:54:07.152600,138876,1495857247,152394056,0,27,97,79,69,37,24,19,24
2017/05/27/11:54:07.173826,138877,1495857247,173528909,0,26,101,78,74,37,25,21,23
2017/05/27/11:54:07.188926,138878,1495857247,188621997,0,29,109,78,74,37,23,22,24
2017/05/27/11:54:07.209568,138879,1495857247,209300994,0,32,111,79,77,39,24,23,24
2017/05/27/11:54:07.227745,138880,1495857247,227421045,0,32,111,90,78,39,23,23,21
2017/05/27/11:54:07.256103,138881,1495857247,255930900,0,36,113,115,93,41,21,26,23
2017/05/27/11:54:07.265155,138882,1495857247,264950990,0,36,106,109,88,40,24,25,22
2017/05/27/11:54:07.286325,138883,1495857247,286037921,0,40,116,111,89,42,26,26,22
2017/05/27/11:54:07.308779,138884,1495857247,308484077,0,38,122,107,85,40,28,27,21
2017/05/27/11:54:07.332548,138885,1495857247,332412958,0,36,135,113,86,40,28,26,22
2017/05/27/11:54:07.346189,138886,1495857247,345993995,0,34,129,92,61,32,29,24,21
2017/05/27/11:54:07.368732,138887,1495857247,368505954,0,34,133,88,52,28,24,23,22
2017/05/27/11:54:07.392575,138888,1495857247,392414093,0,28,117,85,49,28,27,21,20
2017/05/27/11:54:07.406223,138889,1495857247,406021118,0,28,107,87,50,27,24,20,21
2017/05/27/11:54:07.428598,138890,1495857247,428428888,0,26,72,66,39,26,26,21,19
2017/05/27/11:54:07.452637,138891,1495857247,452410936,0,24,74,48,31,25,23,20,17
2017/05/27/11:54:07.466073,138892,1495857247,465949058,0,27,86,47,29,24,25,19,18
2017/05/27/11:54:07.488586,138893,1495857247,488440036,0,27,87,41,29,22,23,20,18
2017/05/27/11:54:07.505548,138894,1495857247,505374908,0,28,87,76,27,23,24,19,20
2017/05/27/11:54:07.526142,138895,1495857247,525958061,0,28,86,92,28,22,22,19,21
2017/05/27/11:54:07.556207,138896,1495857247,555994033,0,28,71,95,30,21,23,19,21
2017/05/27/11:54:07.565069,138897,1495857247,564888000,0,23,49,95,31,22,23,19,20
2017/05/27/11:54:07.586120,138898,1495857247,585917949,0,21,45,96,31,21,22,20,20
2017/05/27/11:54:07.610154,138899,1495857247,609982967,0,22,51,69,31,23,25,19,18
2017/05/27/11:54:07.625189,138900,1495857247,625030994,0,22,56,44,25,22,26,20,18
2017/05/27/11:54:07.646144,138901,1495857247,645947933,0,20,59,46,27,24,28,22,18
2017/05/27/11:54:07.670195,138902,1495857247,669943094,0,23,63,46,28,25,26,22,18
2017/05/27/11:54:07.685153,138903,1495857247,684942960,0,24,63,54,33,26,25,19,17
2017/05/27/11:54:07.706185,138904,1495857247,705921888,0,22,59,54,35,23,20,20,16
2017/05/27/11:54:07.728657,138905,1495857247,728442907,0,21,55,52,37,23,21,18,17
2017/05/27/11:54:07.751100,138906,1495857247,750940084,0,24,65,50,34,20,18,14,19
2017/05/27/11:54:07.766080,138907,1495857247,765938043,0,22,57,50,34,20,19,14,20
2017/05/27/11:54:07.788612,138908,1495857247,788425922,0,22,59,39,30,22,21,15,19
2017/05/27/11:54:07.811166,138909,1495857247,810964107,0,22,64,42,28,22,20,16,18
2017/05/27/11:54:07.833756,138910,1495857247,833431959,0,23,64,41,27,23,18,17,19
2017/05/27/11:54:07.848665,138911,1495857247,848423004,0,20,57,35,26,25,22,18,17
2017/05/27/11:54:07.872586,138912,1495857247,872394084,0,22,59,32,21,24,22,21,17
2017/05/27/11:54:07.893558,138913,1495857247,893413066,0,21,58,31,19,22,22,21,18
2017/05/27/11:54:07.908611,138914,1495857247,908452033,0,24,60,24,18,22,23,21,20
2017/05/27/11:54:07.931200,138915,1495857247,930913925,0,25,62,31,22,21,25,21,18
2017/05/27/11:54:07.947579,138916,1495857247,947415113,0,25,61,36,28,21,20,20,18
2017/05/27/11:54:07.968697,138917,1495857247,968471050,0,25,61,40,31,20,20,19,20
2017/05/27/11:54:08.007538,138918,1495857248,7333993,0,29,71,40,34,22,20,18,20
2017/05/27/11:54:08.009001,138919,1495857248,8886098,0,26,71,38,35,23,20,16,19
2017/05/27/11:54:08.028596,138920,1495857248,28434038,0,25,93,37,32,23,21,15,19
2017/05/27/11:54:08.059337,138921,1495857248,59154987,0,26,91,37,29,22,23,16,19
2017/05/27/11:54:08.066145,138922,1495857248,65963029,0,24,95,36,27,22,23,14,18
2017/05/27/11:54:08.088683,138923,1495857248,88474035,0,21,89,39,24,21,22,15,19
2017/05/27/11:54:08.112610,138924,1495857248,112404108,0,24,90,41,23,20,22,15,19
2017/05/27/11:54:08.129201,138925,1495857248,129024028,0,25,77,39,25,19,22,16,19
2017/05/27/11:54:08.148738,138926,1495857248,148488998,0,24,77,36,23,18,20,16,19
2017/05/27/11:54:08.172633,138927,1495857248,172435045,0,25,77,32,23,19,19,18,17
2017/05/27/11:54:08.186092,138928,1495857248,185930013,0,24,80,29,23,18,23,16,18
2017/05/27/11:54:08.208769,138929,1495857248,208431005,0,23,73,30,24,19,20,17,16
2017/05/27/11:54:08.231107,138930,1495857248,230926036,0,21,61,27,25,18,20,18,17
2017/05/27/11:54:08.246291,138931,1495857248,246021032,0,23,86,34,24,18,20,18,16
2017/05/27/11:54:08.268709,138932,1495857248,268508911,0,25,88,35,25,17,22,17,19
2017/05/27/11:54:08.291102,138933,1495857248,290935993,0,24,84,35,23,18,18,17,17
2017/05/27/11:54:08.306157,138934,1495857248,305960893,0,25,94,36,24,19,20,19,18
2017/05/27/11:54:08.328750,138935,1495857248,328470945,0,24,104,39,22,21,21,20,19
2017/05/27/11:54:08.351513,138936,1495857248,351069927,0,23,90,34,24,22,24,22,21
2017/05/27/11:54:08.366137,138937,1495857248,365967035,0,22,88,34,24,25,24,22,21
2017/05/27/11:54:08.390427,138938,1495857248,389987945,0,21,93,35,25,24,26,22,22
2017/05/27/11:54:08.411286,138939,1495857248,410986900,0,21,89,34,25,23,27,22,22
2017/05/27/11:54:08.426132,138940,1495857248,425956010,0,22,76,30,23,23,27,20,21
2017/05/27/11:54:08.450299,138941,1495857248,449986934,0,23,70,33,21,23,24,20,22
2017/05/27/11:54:08.471092,138942,1495857248,470928907,0,23,71,33,22,21,24,20,21
2017/05/27/11:54:08.486303,138943,1495857248,486022949,0,25,81,36,21,22,23,21,19
2017/05/27/11:54:08.508636,138944,1495857248,508436918,0,27,80,34,21,23,21,19,23
2017/05/27/11:54:08.531176,138945,1495857248,530961036,0,27,83,35,21,22,21,18,23
2017/05/27/11:54:08.553740,138946,1495857248,553527116,0,28,88,32,21,21,20,18,22
2017/05/27/11:54:08.576174,138947,1495857248,575962066,0,27,82,33,19,20,20,16,21
2017/05/27/11:54:08.591172,138948,1495857248,590987920,0,27,74,32,21,21,19,17,20
2017/05/27/11:54:08.615294,138949,1495857248,615020990,0,25,73,35,20,19,21,17,17
2017/05/27/11:54:08.630054,138950,1495857248,629878044,0,23,80,37,24,19,21,19,19
2017/05/27/11:54:08.651139,138951,1495857248,650949954,0,21,74,36,24,19,21,18,18
2017/05/27/11:54:08.673905,138952,1495857248,673485040,0,24,93,36,26,20,21,20,19
2017/05/27/11:54:08.688640,138953,1495857248,688461065,0,24,91,36,29,19,21,19,20
2017/05/27/11:54:08.726813,138954,1495857248,726633071,0,22,94,36,30,20,20,19,22
2017/05/27/11:54:08.733591,138955,1495857248,733398914,0,23,91,37,28,22,20,18,21
2017/05/27/11:54:08.748583,138956,1495857248,748383998,0,24,93,36,30,23,20,19,21
2017/05/27/11:54:08.771349,138957,1495857248,771023988,0,22,86,39,30,24,19,17,21
2017/05/27/11:54:08.793660,138958,1495857248,793418884,0,23,83,37,28,23,18,19,20
2017/05/27/11:54:08.808863,138959,1495857248,808557033,0,25,83,36,27,22,17,19,18
2017/05/27/11:54:08.831115,138960,1495857248,830938100,0,26,80,32,27,20,18,18,19
2017/05/27/11:54:08.853784,138961,1495857248,853447914,0,25,77,34,27,20,18,18,20
2017/05/27/11:54:08.868703,138962,1495857248,868470907,0,28,74,32,25,18,19,19,20
2017/05/27/11:54:08.891189,138963,1495857248,890979051,0,28,88,34,25,20,22,18,19
2017/05/27/11:54:08.913717,138964,1495857248,913490056,0,27,89,35,24,20,23,18,19
2017/05/27/11:54:08.928694,138965,1495857248,928581953,0,27,102,37,25,20,22,18,18
2017/05/27/11:54:08.951136,138966,1495857248,950954914,0,28,104,38,23,20,22,21,18
2017/05/27/11:54:08.973704,138967,1495857248,973526000,0,27,109,40,24,20,23,22,18
2017/05/27/11:54:08.988673,138968,1495857248,988425016,0,25,97,38,22,21,21,22,19
2017/05/27/11:54:09.011142,138969,1495857249,10904073,0,26,91,38,21,23,20,23,19
2017/05/27/11:54:09.033552,138970,1495857249,33396005,0,24,77,36,19,23,20,22,19
2017/05/27/11:54:09.056275,138971,1495857249,56032896,0,24,86,35,20,22,20,20,18
2017/05/27/11:54:09.071151,138972,1495857249,70950031,0,23,76,29,20,23,19,17,20
2017/05/27/11:54:09.093629,138973,1495857249,93425989,0,23,77,30,21,22,20,18,20
2017/05/27/11:54:09.108672,138974,1495857249,108455896,0,21,79,35,24,21,19,17,21
2017/05/27/11:54:09.131121,138975,1495857249,130944967,0,21,78,38,25,22,19,18,24
2017/05/27/11:54:09.153635,138976,1495857249,153436899,0,21,62,39,24,21,19,19,24
2017/05/27/11:54:09.170118,138977,1495857249,169955015,0,24,69,40,24,21,20,19,22
2017/05/27/11:54:09.191145,138978,1495857249,190949916,0,24,75,40,23,20,20,20,22
2017/05/27/11:54:09.213668,138979,1495857249,213439941,0,23,70,35,21,21,21,21,21
2017/05/27/11:54:09.228835,138980,1495857249,228458881,0,23,68,32,23,22,21,19,20
2017/05/27/11:54:09.251076,138981,1495857249,250894069,0,25,79,31,22,23,21,19,21
2017/05/27/11:54:09.282138,138982,1495857249,281877040,0,21,72,31,22,22,21,20,21
2017/05/27/11:54:09.288943,138983,1495857249,288568973,0,21,65,29,22,23,19,17,22
2017/05/27/11:54:09.311215,138984,1495857249,310959100,0,20,61,35,23,23,20,17,22
2017/05/27/11:54:09.335069,138985,1495857249,334907054,0,22,61,36,24,21,20,19,22
2017/05/27/11:54:09.348614,138986,1495857249,348422050,0,20,56,37,24,20,20,21,21
2017/05/27/11:54:09.371388,138987,1495857249,371030092,0,20,54,37,24,21,20,21,19
2017/05/27/11:54:09.395124,138988,1495857249,394938945,0,20,54,37,28,21,22,20,17
2017/05/27/11:54:09.408811,138989,1495857249,408571004,0,21,65,35,27,20,21,21,18
2017/05/27/11:54:09.431073,138990,1495857249,430918931,0,23,70,32,26,21,21,20,16
2017/05/27/11:54:09.453889,138991,1495857249,453493118,0,23,65,31,26,20,20,17,16
2017/05/27/11:54:09.468773,138992,1495857249,468494892,0,23,63,33,27,21,20,17,18
2017/05/27/11:54:09.491530,138993,1495857249,491080045,0,26,68,36,23,20,19,18,21
2017/05/27/11:54:09.513639,138994,1495857249,513446092,0,25,61,34,23,21,18,19,20
2017/05/27/11:54:09.528665,138995,1495857249,528470993,0,22,58,35,24,21,19,19,21
2017/05/27/11:54:09.558724,138996,1495857249,558423042,0,22,61,36,24,22,20,19,21
2017/05/27/11:54:09.573781,138997,1495857249,573533058,0,24,67,34,21,21,19,18,20
2017/05/27/11:54:09.588594,138998,1495857249,588424921,0,21,60,31,24,21,19,19,18
2017/05/27/11:54:09.612600,138999,1495857249,612407922,0,21,60,33,25,21,20,17,18
2017/05/27/11:54:09.633896,139000,1495857249,633490085,0,19,56,33,25,20,21,15,17
2017/05/27/11:54:09.656129,139001,1495857249,655927896,0,21,55,32,24,18,21,16,18
2017/05/27/11:54:09.672909,139002,1495857249,672481060,0,22,53,32,25,17,21,16,20
2017/05/27/11:54:09.693626,139003,1495857249,693440914,0,24,60,31,23,19,22,16,21
2017/05/27/11:54:09.724474,139004,1495857249,724184989,0,26,73,29,21,18,20,15,21
2017/05/27/11:54:09.731140,139005,1495857249,730964899,0,28,82,28,20,18,18,17,22
2017/05/27/11:54:09.753626,139006,1495857249,753443002,0,28,80,29,22,19,18,18,21
2017/05/27/11:54:09.776108,139007,1495857249,775938034,0,26,79,29,20,20,18,19,21
2017/05/27/11:54:09.791086,139008,1495857249,790936946,0,24,75,33,22,20,17,19,20
2017/05/27/11:54:09.813681,139009,1495857249,813457012,0,21,62,37,22,20,18,22,20
2017/05/27/11:54:09.837591,139010,1495857249,837384939,0,21,53,37,23,19,20,21,20
2017/05/27/11:54:09.851115,139011,1495857249,850909948,0,19,49,36,24,21,19,21,20
2017/05/27/11:54:09.873634,139012,1495857249,873442888,0,20,50,36,25,21,20,20,20
2017/05/27/11:54:09.896343,139013,1495857249,896028995,0,21,62,36,26,20,19,19,20
2017/05/27/11:54:09.911118,139014,1495857249,910916090,0,21,67,31,26,21,19,18,22
2017/05/27/11:54:09.949435,139015,1495857249,949212074,0,21,66,33,27,22,18,17,21
2017/05/27/11:54:09.956056,139016,1495857249,955904006,0,21,67,31,26,21,18,16,22
2017/05/27/11:54:09.971153,139017,1495857249,970959901,0,21,63,34,28,22,19,18,21
2017/05/27/11:54:10.002603,139018,1495857250,2417087,0,22,53,34,27,24,19,17,21
2017/05/27/11:54:10.016062,139019,1495857250,15901088,0,23,45,35,27,23,18,19,20
2017/05/27/11:54:10.031230,139020,1495857250,30922889,0,22,39,34,25,23,20,18,19
2017/05/27/11:54:10.055063,139021,1495857250,54877996,0,23,49,36,25,25,20,19,20
2017/05/27/11:54:10.076242,139022,1495857250,75997114,0,23,49,34,23,24,18,19,19
2017/05/27/11:54:10.091066,139023,1495857250,90897083,0,23,68,34,23,24,19,19,20
2017/05/27/11:54:10.115521,139024,1495857250,115057945,0,22,70,38,23,24,19,18,20
