time,.header.seq,.header.stamp.secs,.header.stamp.nsecs,.header.frame_id,.ch0,.ch1,.ch2,.ch3,.ch4,.ch5,.ch6,.ch7
2017/05/27/11:51:59.728135,132522,1495857119,727577924,0,92,158,65,61,44,49,112,100
2017/05/27/11:51:59.749807,132523,1495857119,749469995,0,94,161,67,63,45,54,119,88
2017/05/27/11:51:59.772022,132524,1495857119,771845102,0,96,163,78,69,58,60,123,104
2017/05/27/11:51:59.787273,132525,1495857119,786937952,0,102,234,158,130,85,66,119,100
2017/05/27/11:51:59.809685,132526,1495857119,809427976,0,81,253,233,175,121,82,120,99
2017/05/27/11:51:59.832071,132527,1495857119,831851005,0,142,308,258,213,164,96,91,92
2017/05/27/11:51:59.854751,132528,1495857119,854485988,0,181,378,282,233,181,104,77,92
2017/05/27/11:51:59.869641,132529,1495857119,869349002,0,245,490,328,259,187,105,68,66
2017/05/27/11:51:59.892124,132530,1495857119,891884088,0,274,571,339,280,199,119,76,68
2017/05/27/11:51:59.915561,132531,1495857119,915213108,0,299,592,353,302,197,122,74,64
2017/05/27/11:51:59.929581,132532,1495857119,929295063,0,310,614,386,325,184,117,74,68
2017/05/27/11:51:59.952468,132533,1495857119,951977968,0,316,603,393,326,173,118,75,69
2017/05/27/11:51:59.974474,132534,1495857119,974292993,0,400,584,378,333,183,129,80,80
2017/05/27/11:51:59.989750,132535,1495857119,989561080,0,392,510,456,366,202,132,85,85
2017/05/27/11:52:00.012204,132536,1495857120,11940956,0,398,499,437,338,191,128,84,84
2017/05/27/11:52:00.034529,132537,1495857120,34323930,0,381,461,419,304,185,129,81,88
2017/05/27/11:52:00.049479,132538,1495857120,49297094,0,378,461,424,310,194,123,79,84
2017/05/27/11:52:00.072180,132539,1495857120,71816921,0,364,403,415,296,192,113,74,82
2017/05/27/11:52:00.094549,132540,1495857120,94331979,0,369,405,303,223,157,103,61,76
2017/05/27/11:52:00.109922,132541,1495857120,109752893,0,353,440,294,213,155,96,52,76
2017/05/27/11:52:00.133489,132542,1495857120,133276939,0,365,420,290,216,147,86,49,71
2017/05/27/11:52:00.154668,132543,1495857120,154335021,0,400,426,262,193,134,82,47,71
2017/05/27/11:52:00.169681,132544,1495857120,169363975,0,479,495,261,181,121,78,44,81
2017/05/27/11:52:00.192025,132545,1495857120,191819906,0,487,472,310,190,127,75,46,83
2017/05/27/11:52:00.214597,132546,1495857120,214354038,0,484,406,300,204,127,72,46,82
2017/05/27/11:52:00.229580,132547,1495857120,229351997,0,478,420,305,220,137,82,48,81
2017/05/27/11:52:00.252117,132548,1495857120,251902103,0,460,388,333,240,146,111,54,82
2017/05/27/11:52:00.274562,132549,1495857120,274343013,0,328,334,351,241,147,119,53,70
2017/05/27/11:52:00.289494,132550,1495857120,289252996,0,392,374,374,262,149,113,50,67
2017/05/27/11:52:00.312066,132551,1495857120,311863899,0,412,416,391,276,156,122,57,70
2017/05/27/11:52:00.334522,132552,1495857120,334358930,0,427,415,386,275,155,117,55,73
2017/05/27/11:52:00.353285,132553,1495857120,353095054,0,416,420,368,264,146,98,53,69
2017/05/27/11:52:00.373507,132554,1495857120,373306989,0,409,381,370,280,142,94,55,60
2017/05/27/11:52:00.394684,132555,1495857120,394397974,0,386,371,308,254,128,98,57,64
2017/05/27/11:52:00.409849,132556,1495857120,409502983,0,415,347,292,247,125,96,55,71
2017/05/27/11:52:00.432117,132557,1495857120,431895971,0,429,355,323,254,119,96,58,72
2017/05/27/11:52:00.454502,132558,1495857120,454327106,0,449,347,329,262,122,98,72,88
2017/05/27/11:52:00.469549,132559,1495857120,469335079,0,435,375,308,241,125,94,73,90
2017/05/27/11:52:00.492200,132560,1495857120,491930961,0,464,400,407,296,160,89,70,90
2017/05/27/11:52:00.514646,132561,1495857120,514333009,0,452,413,447,287,165,89,69,88
2017/05/27/11:52:00.529532,132562,1495857120,529304027,0,430,422,414,259,165,103,72,83
2017/05/27/11:52:00.552068,132563,1495857120,551836967,0,409,444,420,258,165,98,73,78
2017/05/27/11:52:00.574541,132564,1495857120,574327945,0,417,561,469,283,168,96,70,80
2017/05/27/11:52:00.589642,132565,1495857120,589379072,0,442,567,420,246,139,102,72,80
2017/05/27/11:52:00.612221,132566,1495857120,611872911,0,484,555,397,255,129,95,73,78
2017/05/27/11:52:00.635145,132567,1495857120,634365081,0,505,568,443,288,141,93,78,84
2017/05/27/11:52:00.649548,132568,1495857120,649334907,0,588,572,443,307,158,100,68,87
2017/05/27/11:52:00.679645,132569,1495857120,679404020,0,586,447,403,297,172,111,77,92
2017/05/27/11:52:00.694550,132570,1495857120,694292068,0,525,390,364,283,171,114,79,87
2017/05/27/11:52:00.709589,132571,1495857120,709369897,0,479,489,390,284,176,117,78,87
2017/05/27/11:52:00.732518,132572,1495857120,732053995,0,487,453,364,295,169,103,70,89
2017/05/27/11:52:00.754503,132573,1495857120,754343032,0,388,442,342,267,155,89,78,79
2017/05/27/11:52:00.769505,132574,1495857120,769375085,0,351,489,322,266,136,89,74,71
2017/05/27/11:52:00.792023,132575,1495857120,791806936,0,344,502,381,287,163,104,71,75
2017/05/27/11:52:00.814892,132576,1495857120,814403057,0,317,436,339,271,157,110,73,74
2017/05/27/11:52:00.836931,132577,1495857120,836755990,0,377,491,322,231,148,111,75,79
2017/05/27/11:52:00.852009,132578,1495857120,851826906,0,372,480,364,248,138,115,61,81
2017/05/27/11:52:00.883084,132579,1495857120,882584095,0,396,466,383,232,136,110,58,85
2017/05/27/11:52:00.905076,132580,1495857120,904783010,0,369,455,317,194,101,90,56,80
2017/05/27/11:52:00.913598,132581,1495857120,913302898,0,368,441,320,198,128,111,58,81
2017/05/27/11:52:00.935201,132582,1495857120,934376955,0,276,393,360,234,142,115,55,80
2017/05/27/11:52:00.965145,132583,1495857120,965009927,0,288,392,337,223,160,120,104,93
2017/05/27/11:52:00.972051,132584,1495857120,971852064,0,262,380,328,230,170,125,106,88
2017/05/27/11:52:01.003061,132585,1495857121,2686977,0,270,432,455,310,193,130,115,96
2017/05/27/11:52:01.017098,132586,1495857121,16916036,0,255,471,562,353,195,125,145,117
2017/05/27/11:52:01.033432,132587,1495857121,33237934,0,195,459,557,347,194,142,161,117
2017/05/27/11:52:01.055955,132588,1495857121,55839061,0,190,498,611,374,197,166,164,129
2017/05/27/11:52:01.078526,132589,1495857121,78311920,0,187,556,761,480,213,165,169,134
2017/05/27/11:52:01.092332,132590,1495857121,91921091,0,175,540,731,458,204,175,220,151
2017/05/27/11:52:01.130250,132591,1495857121,129964113,0,189,521,649,428,216,196,234,179
2017/05/27/11:52:01.136940,132592,1495857121,136785984,0,200,542,657,427,221,181,231,181
2017/05/27/11:52:01.152031,132593,1495857121,151809930,0,158,509,620,420,220,163,225,170
2017/05/27/11:52:01.190206,132594,1495857121,189991950,0,154,503,502,359,210,169,230,181
2017/05/27/11:52:01.197035,132595,1495857121,196863889,0,152,555,542,395,225,161,205,184
2017/05/27/11:52:01.211974,132596,1495857121,211781024,0,130,583,547,395,196,121,179,159
2017/05/27/11:52:01.244140,132597,1495857121,243949890,0,109,560,580,401,190,123,171,155
2017/05/27/11:52:01.260207,132598,1495857121,259907007,0,104,562,598,392,187,121,160,151
2017/05/27/11:52:01.272021,132599,1495857121,271815061,0,95,491,566,352,201,141,163,140
2017/05/27/11:52:01.295960,132600,1495857121,295757055,0,90,404,521,315,189,147,140,133
2017/05/27/11:52:01.317041,132601,1495857121,316849946,0,84,335,516,316,191,145,129,120
2017/05/27/11:52:01.332102,132602,1495857121,331864118,0,87,338,471,303,200,148,129,123
2017/05/27/11:52:01.356028,132603,1495857121,355811119,0,80,333,425,296,196,143,125,123
2017/05/27/11:52:01.376981,132604,1495857121,376804113,0,86,379,388,279,168,111,113,118
2017/05/27/11:52:01.392179,132605,1495857121,391890048,0,84,435,409,246,160,95,111,93
2017/05/27/11:52:01.414656,132606,1495857121,414371967,0,91,456,454,257,206,115,154,117
2017/05/27/11:52:01.437001,132607,1495857121,436809062,0,91,470,451,256,209,124,157,111
2017/05/27/11:52:01.467661,132608,1495857121,467488050,0,89,489,476,258,211,126,154,105
2017/05/27/11:52:01.476390,132609,1495857121,476227045,0,80,496,473,248,208,123,147,103
2017/05/27/11:52:01.497041,132610,1495857121,496860027,0,81,445,444,240,209,123,134,107
2017/05/27/11:52:01.519733,132611,1495857121,519426107,0,74,411,396,235,165,113,80,64
2017/05/27/11:52:01.534502,132612,1495857121,534305095,0,78,480,415,287,156,99,68,70
2017/05/27/11:52:01.557009,132613,1495857121,556829929,0,95,503,445,290,153,114,86,76
2017/05/27/11:52:01.574260,132614,1495857121,574044942,0,98,487,450,303,171,118,114,105
2017/05/27/11:52:01.594645,132615,1495857121,594316005,0,99,517,420,301,159,117,118,103
2017/05/27/11:52:01.625217,132616,1495857121,625015974,0,99,533,435,302,176,105,117,103
2017/05/27/11:52:01.632046,132617,1495857121,631855964,0,98,498,374,237,169,119,118,101
2017/05/27/11:52:01.654503,132618,1495857121,654347896,0,95,477,465,281,187,109,110,99
2017/05/27/11:52:01.678550,132619,1495857121,678307056,0,94,464,480,284,175,107,79,64
2017/05/27/11:52:01.692307,132620,1495857121,691960096,0,97,471,489,284,188,112,77,65
2017/05/27/11:52:01.714521,132621,1495857121,714327096,0,94,487,471,284,178,117,76,62
2017/05/27/11:52:01.746767,132622,1495857121,746511936,0,92,517,486,277,168,103,80,78
2017/05/27/11:52:01.759556,132623,1495857121,759351968,0,80,501,332,213,146,104,73,74
2017/05/27/11:52:01.798345,132624,1495857121,798178911,0,82,490,327,194,150,119,89,75
2017/05/27/11:52:01.799856,132625,1495857121,799738883,0,82,502,325,188,190,137,92,71
2017/05/27/11:52:01.819523,132626,1495857121,819315910,0,93,478,340,160,187,136,92,72
2017/05/27/11:52:01.834521,132627,1495857121,834317922,0,97,431,311,159,190,150,91,57
2017/05/27/11:52:01.858475,132628,1495857121,858304023,0,111,428,312,172,200,153,95,74
2017/05/27/11:52:01.879660,132629,1495857121,879362106,0,106,405,307,162,192,143,79,72
2017/05/27/11:52:01.910189,132630,1495857121,910002946,0,105,377,382,267,151,122,76,81
2017/05/27/11:52:01.917024,132631,1495857121,916855096,0,97,377,369,278,149,129,76,80
2017/05/27/11:52:01.939541,132632,1495857121,939344882,0,87,349,380,293,148,117,73,76
2017/05/27/11:52:01.963631,132633,1495857121,963318109,0,75,338,383,293,143,131,69,65
2017/05/27/11:52:01.978462,132634,1495857121,978271007,0,85,427,412,304,150,132,79,76
2017/05/27/11:52:01.999657,132635,1495857121,999356985,0,83,439,331,221,149,132,76,68
2017/05/27/11:52:02.023590,132636,1495857122,23293018,0,84,462,330,208,152,136,82,68
2017/05/27/11:52:02.036942,132637,1495857122,36786079,0,90,460,323,201,162,138,81,70
2017/05/27/11:52:02.067489,132638,1495857122,67296028,0,89,486,321,197,160,127,80,66
2017/05/27/11:52:02.075969,132639,1495857122,75758934,0,95,484,260,208,168,128,71,54
2017/05/27/11:52:02.097035,132640,1495857122,96877098,0,95,447,277,200,166,129,69,53
2017/05/27/11:52:02.135892,132641,1495857122,135700941,0,103,515,284,221,160,115,63,55
2017/05/27/11:52:02.137386,132642,1495857122,137258052,0,108,622,330,232,160,126,63,53
2017/05/27/11:52:02.157059,132643,1495857122,156838893,0,127,653,376,241,203,129,60,53
2017/05/27/11:52:02.195882,132644,1495857122,195664882,0,119,606,379,221,190,121,61,52
2017/05/27/11:52:02.197355,132645,1495857122,197223901,0,117,618,367,219,191,130,68,65
2017/05/27/11:52:02.216958,132646,1495857122,216789007,0,131,650,386,228,206,137,76,70
2017/05/27/11:52:02.241065,132647,1495857122,240868091,0,128,571,339,207,198,122,82,73
2017/05/27/11:52:02.254542,132648,1495857122,254343032,0,114,542,288,217,150,105,83,74
2017/05/27/11:52:02.276973,132649,1495857122,276819944,0,118,581,283,223,166,121,81,73
2017/05/27/11:52:02.309095,132650,1495857122,308965921,0,123,610,305,249,182,112,72,60
2017/05/27/11:52:02.314348,132651,1495857122,314230918,0,103,559,263,227,166,103,60,54
2017/05/27/11:52:02.352707,132652,1495857122,352529048,0,104,538,278,219,163,101,49,51
2017/05/27/11:52:02.367737,132653,1495857122,367583036,0,99,550,270,187,158,101,50,50
2017/05/27/11:52:02.374597,132654,1495857122,374398946,0,111,559,260,174,153,85,48,49
2017/05/27/11:52:02.396975,132655,1495857122,396811962,0,109,571,297,145,124,76,46,55
2017/05/27/11:52:02.419546,132656,1495857122,419332981,0,106,518,318,148,124,74,46,56
2017/05/27/11:52:02.435144,132657,1495857122,434351921,0,103,526,327,169,124,81,50,59
2017/05/27/11:52:02.458498,132658,1495857122,458328008,0,104,501,329,170,144,97,49,61
2017/05/27/11:52:02.479507,132659,1495857122,479321002,0,84,505,321,173,140,107,50,65
2017/05/27/11:52:02.494476,132660,1495857122,494322061,0,92,486,298,189,173,121,54,62
2017/05/27/11:52:02.536216,132661,1495857122,535717964,0,100,511,304,203,175,123,58,67
2017/05/27/11:52:02.539421,132662,1495857122,539283990,0,100,508,305,207,178,125,56,64
2017/05/27/11:52:02.554587,132663,1495857122,554372072,0,99,525,324,225,168,113,55,75
2017/05/27/11:52:02.586700,132664,1495857122,586476087,0,97,491,328,227,170,104,58,74
2017/05/27/11:52:02.599522,132665,1495857122,599299907,0,85,466,295,218,140,93,55,72
2017/05/27/11:52:02.614702,132666,1495857122,614402055,0,76,427,286,216,153,96,48,68
2017/05/27/11:52:02.645211,132667,1495857122,645026922,0,80,483,308,233,162,88,53,71
2017/05/27/11:52:02.659606,132668,1495857122,659337043,0,75,457,294,219,154,93,50,65
2017/05/27/11:52:02.682316,132669,1495857122,681827068,0,79,425,327,250,168,99,50,64
2017/05/27/11:52:02.698469,132670,1495857122,698302984,0,79,415,330,246,163,95,52,68
2017/05/27/11:52:02.719608,132671,1495857122,719383955,0,81,527,328,249,154,92,54,69
2017/05/27/11:52:02.741951,132672,1495857122,741770029,0,100,491,288,222,144,93,54,67
2017/05/27/11:52:02.758425,132673,1495857122,758249044,0,108,486,281,229,153,96,60,67
2017/05/27/11:52:02.779751,132674,1495857122,779438018,0,107,504,254,193,125,91,57,68
2017/05/27/11:52:02.810296,132675,1495857122,810000896,0,112,519,231,176,122,95,56,73
2017/05/27/11:52:02.817271,132676,1495857122,816989898,0,117,414,200,145,118,93,53,68
2017/05/27/11:52:02.847686,132677,1495857122,847528934,0,100,402,213,152,129,87,46,65
2017/05/27/11:52:02.862186,132678,1495857122,861911058,0,103,401,236,150,122,77,46,67
2017/05/27/11:52:02.877016,132679,1495857122,876811981,0,121,459,238,154,140,84,54,71
2017/05/27/11:52:02.899493,132680,1495857122,899315118,0,120,461,253,169,139,82,53,68
2017/05/27/11:52:02.924751,132681,1495857122,921855926,0,115,460,263,165,132,89,52,69
2017/05/27/11:52:02.937025,132682,1495857122,936834096,0,114,501,267,185,125,98,62,78
2017/05/27/11:52:02.961098,132683,1495857122,960807085,0,104,509,268,182,122,95,58,75
2017/05/27/11:52:02.982056,132684,1495857122,981791019,0,83,498,243,183,112,85,56,76
2017/05/27/11:52:02.997127,132685,1495857122,996890068,0,83,473,262,195,113,95,58,77
2017/05/27/11:52:03.020968,132686,1495857123,20771980,0,115,498,330,219,128,91,62,84
2017/05/27/11:52:03.041997,132687,1495857123,41790008,0,120,469,327,194,117,89,55,78
2017/05/27/11:52:03.072727,132688,1495857123,72520017,0,126,506,324,192,117,100,61,76
2017/05/27/11:52:03.079757,132689,1495857123,79394102,0,128,479,344,206,134,107,60,74
2017/05/27/11:52:03.102126,132690,1495857123,101845026,0,133,503,323,198,134,95,58,73
2017/05/27/11:52:03.124747,132691,1495857123,124356985,0,112,509,279,196,122,91,54,65
2017/05/27/11:52:03.139507,132692,1495857123,139293909,0,107,474,269,201,136,88,53,63
2017/05/27/11:52:03.162586,132693,1495857123,162406921,0,101,457,253,194,138,75,46,61
2017/05/27/11:52:03.184622,132694,1495857123,184293985,0,102,440,239,169,113,66,43,59
2017/05/27/11:52:03.205402,132695,1495857123,205121040,0,104,460,249,160,107,59,41,53
2017/05/27/11:52:03.221997,132696,1495857123,221780061,0,104,446,253,159,112,60,42,54
2017/05/27/11:52:03.238463,132697,1495857123,238249063,0,100,448,254,147,100,69,39,52
2017/05/27/11:52:03.259771,132698,1495857123,259335041,0,118,459,247,164,94,71,37,49
2017/05/27/11:52:03.290064,132699,1495857123,289827108,0,118,475,262,173,107,99,44,49
2017/05/27/11:52:03.298547,132700,1495857123,298281908,0,108,412,259,176,117,101,48,52
2017/05/27/11:52:03.319448,132701,1495857123,319283008,0,101,386,225,147,112,106,49,52
2017/05/27/11:52:03.350365,132702,1495857123,350018024,0,106,403,229,149,109,97,51,55
2017/05/27/11:52:03.364452,132703,1495857123,364295005,0,91,418,264,157,120,94,50,57
2017/05/27/11:52:03.379566,132704,1495857123,379362106,0,83,391,263,160,114,57,42,53
2017/05/27/11:52:03.402429,132705,1495857123,402278900,0,79,410,272,179,117,60,41,47
2017/05/27/11:52:03.416895,132706,1495857123,416769027,0,82,406,281,184,111,51,40,45
2017/05/27/11:52:03.439533,132707,1495857123,439316987,0,99,424,273,218,135,66,41,44
2017/05/27/11:52:03.461978,132708,1495857123,461803913,0,119,579,310,221,130,72,45,44
2017/05/27/11:52:03.478531,132709,1495857123,478235960,0,123,573,297,209,123,73,44,46
2017/05/27/11:52:03.499651,132710,1495857123,499416112,0,130,610,276,200,124,69,43,48
2017/05/27/11:52:03.522116,132711,1495857123,521815061,0,134,616,271,206,138,83,43,47
2017/05/27/11:52:03.544596,132712,1495857123,544352054,0,119,626,288,175,116,74,43,50
2017/05/27/11:52:03.575283,132713,1495857123,575033903,0,97,438,262,158,114,69,38,47
2017/05/27/11:52:03.590209,132714,1495857123,590023040,0,95,444,267,180,119,78,44,50
2017/05/27/11:52:03.597011,132715,1495857123,596821069,0,96,382,300,204,135,81,49,50
2017/05/27/11:52:03.621737,132716,1495857123,621469020,0,89,360,290,195,124,70,48,49
2017/05/27/11:52:03.642147,132717,1495857123,641859054,0,93,341,302,217,129,69,47,44
2017/05/27/11:52:03.664510,132718,1495857123,664269924,0,93,354,263,211,124,71,48,50
2017/05/27/11:52:03.681020,132719,1495857123,680869102,0,93,369,254,192,121,63,50,50
2017/05/27/11:52:03.702141,132720,1495857123,701848030,0,84,397,210,144,87,58,46,50
2017/05/27/11:52:03.740900,132721,1495857123,740700006,0,79,416,243,147,87,59,47,51
2017/05/27/11:52:03.742375,132722,1495857123,742253065,0,72,420,220,109,82,59,47,50
2017/05/27/11:52:03.762001,132723,1495857123,761796951,0,66,441,236,114,80,60,49,54
2017/05/27/11:52:03.792734,132724,1495857123,792557954,0,67,433,231,127,77,64,47,55
2017/05/27/11:52:03.807798,132725,1495857123,807590007,0,65,406,254,147,78,72,47,55
2017/05/27/11:52:03.821980,132726,1495857123,821769952,0,75,391,237,160,79,76,48,54
2017/05/27/11:52:03.844541,132727,1495857123,844306945,0,93,402,238,157,82,80,48,54
2017/05/27/11:52:03.860979,132728,1495857123,860788106,0,94,370,213,150,86,76,47,46
2017/05/27/11:52:03.881975,132729,1495857123,881759881,0,90,367,246,156,90,77,44,42
2017/05/27/11:52:03.913151,132730,1495857123,912924051,0,88,377,243,147,93,71,43,44
2017/05/27/11:52:03.920940,132731,1495857123,920732975,0,84,415,245,147,92,73,43,44
2017/05/27/11:52:03.942129,132732,1495857123,941867113,0,66,405,283,170,85,70,40,44
2017/05/27/11:52:03.964498,132733,1495857123,964313983,0,64,398,298,185,92,76,41,42
2017/05/27/11:52:03.979734,132734,1495857123,979401111,0,70,445,269,175,85,71,42,40
2017/05/27/11:52:04.001971,132735,1495857124,1786947,0,79,455,256,175,79,68,41,40
2017/05/27/11:52:04.024751,132736,1495857124,24276018,0,80,438,245,166,88,57,40,44
2017/05/27/11:52:04.039497,132737,1495857124,39294004,0,78,415,196,141,87,54,41,47
2017/05/27/11:52:04.061914,132738,1495857124,61754941,0,79,400,183,134,76,51,42,50
2017/05/27/11:52:04.084589,132739,1495857124,84289073,0,95,374,200,147,83,59,48,54
2017/05/27/11:52:04.099619,132740,1495857124,99328994,0,90,363,213,154,89,59,49,52
2017/05/27/11:52:04.122156,132741,1495857124,121913909,0,86,340,225,156,80,63,50,49
2017/05/27/11:52:04.144440,132742,1495857124,144259929,0,99,430,263,171,83,66,54,49
2017/05/27/11:52:04.159909,132743,1495857124,159437894,0,104,471,284,168,82,64,51,47
2017/05/27/11:52:04.182142,132744,1495857124,181823015,0,101,496,293,162,79,58,44,40
2017/05/27/11:52:04.204942,132745,1495857124,204474925,0,102,482,294,155,71,61,45,42
2017/05/27/11:52:04.219419,132746,1495857124,219259023,0,113,525,302,173,79,67,47,44
2017/05/27/11:52:04.241925,132747,1495857124,241775035,0,109,475,280,170,80,66,44,39
2017/05/27/11:52:04.265204,132748,1495857124,265022993,0,104,453,263,175,90,68,49,42
2017/05/27/11:52:04.279498,132749,1495857124,279279947,0,96,458,232,168,90,68,50,45
2017/05/27/11:52:04.302138,132750,1495857124,301820993,0,95,480,241,172,91,65,48,43
2017/05/27/11:52:04.324458,132751,1495857124,324292898,0,87,475,235,152,85,56,44,42
2017/05/27/11:52:04.344775,132752,1495857124,339545011,0,81,479,224,140,79,53,44,42
2017/05/27/11:52:04.362064,132753,1495857124,361795902,0,90,541,232,140,71,46,37,39
2017/05/27/11:52:04.384498,132754,1495857124,384300947,0,85,510,260,165,85,55,36,38
2017/05/27/11:52:04.399487,132755,1495857124,399274110,0,89,497,230,157,86,56,36,37
2017/05/27/11:52:04.421959,132756,1495857124,421785116,0,96,507,222,150,93,58,38,37
2017/05/27/11:52:04.444640,132757,1495857124,444371938,0,97,493,238,162,102,64,35,38
2017/05/27/11:52:04.459477,132758,1495857124,459306955,0,87,422,207,154,111,66,34,36
2017/05/27/11:52:04.482195,132759,1495857124,481868028,0,85,395,189,130,100,58,33,34
2017/05/27/11:52:04.504672,132760,1495857124,504369974,0,83,407,216,150,102,55,33,35
2017/05/27/11:52:04.519515,132761,1495857124,519319057,0,66,348,208,156,95,55,37,32
2017/05/27/11:52:04.542029,132762,1495857124,541822910,0,65,332,202,155,92,53,38,32
2017/05/27/11:52:04.564647,132763,1495857124,564426898,0,74,408,234,166,86,56,45,37
2017/05/27/11:52:04.587020,132764,1495857124,586813926,0,79,415,264,184,92,58,47,40
2017/05/27/11:52:04.601974,132765,1495857124,601783037,0,76,396,260,170,92,58,48,40
2017/05/27/11:52:04.624540,132766,1495857124,624327898,0,80,398,258,168,95,60,43,42
2017/05/27/11:52:04.646954,132767,1495857124,646822929,0,81,448,272,172,103,60,44,41
2017/05/27/11:52:04.662085,132768,1495857124,661833047,0,75,411,253,188,110,56,39,41
2017/05/27/11:52:04.692648,132769,1495857124,692465066,0,79,427,263,176,113,54,36,39
2017/05/27/11:52:04.706975,132770,1495857124,706815958,0,85,434,268,181,113,55,35,36
2017/05/27/11:52:04.721941,132771,1495857124,721761941,0,83,419,271,192,110,54,37,38
2017/05/27/11:52:04.744488,132772,1495857124,744286060,0,79,381,259,188,103,56,34,39
2017/05/27/11:52:04.767112,132773,1495857124,766906023,0,78,369,263,162,89,54,34,40
2017/05/27/11:52:04.781945,132774,1495857124,781750917,0,72,389,222,151,79,55,33,38
2017/05/27/11:52:04.804564,132775,1495857124,804311037,0,71,425,221,147,82,54,33,40
2017/05/27/11:52:04.827016,132776,1495857124,826807022,0,73,459,238,133,84,53,35,40
2017/05/27/11:52:04.849596,132777,1495857124,849374055,0,80,483,242,127,81,50,34,40
2017/05/27/11:52:04.864501,132778,1495857124,864273071,0,86,499,254,128,79,50,32,37
2017/05/27/11:52:04.887015,132779,1495857124,886811971,0,83,469,261,141,90,56,37,40
2017/05/27/11:52:04.902186,132780,1495857124,901876926,0,84,458,257,160,89,53,36,39
2017/05/27/11:52:04.924480,132781,1495857124,924316883,0,85,491,262,163,88,53,37,36
2017/05/27/11:52:04.947082,132782,1495857124,946877002,0,88,464,282,166,88,57,39,39
2017/05/27/11:52:04.965191,132783,1495857124,965003013,0,87,460,268,177,111,62,44,39
2017/05/27/11:52:04.984524,132784,1495857124,984324932,0,91,492,257,169,101,56,41,37
2017/05/27/11:52:05.007150,132785,1495857125,6937026,0,89,509,267,158,97,56,44,43
2017/05/27/11:52:05.021944,132786,1495857125,21753072,0,97,578,265,152,104,56,42,45
2017/05/27/11:52:05.044706,132787,1495857125,44368982,0,94,643,226,154,110,53,41,42
2017/05/27/11:52:05.067038,132788,1495857125,66828966,0,90,634,224,141,91,48,38,44
2017/05/27/11:52:05.081920,132789,1495857125,81742048,0,87,616,221,139,97,63,42,47
2017/05/27/11:52:05.104489,132790,1495857125,104281902,0,87,599,211,136,101,65,41,44
2017/05/27/11:52:05.126894,132791,1495857125,126776933,0,74,473,186,144,103,67,42,45
2017/05/27/11:52:05.143570,132792,1495857125,143290996,0,81,444,190,134,95,65,40,46
2017/05/27/11:52:05.164450,132793,1495857125,164249897,0,86,452,217,138,94,67,39,45
2017/05/27/11:52:05.187017,132794,1495857125,186816930,0,89,479,248,142,87,55,34,41
2017/05/27/11:52:05.201937,132795,1495857125,201761007,0,87,476,246,141,98,58,34,39
2017/05/27/11:52:05.224477,132796,1495857125,224284887,0,86,497,243,137,82,56,34,37
2017/05/27/11:52:05.255192,132797,1495857125,255011081,0,74,423,252,153,87,56,35,37
2017/05/27/11:52:05.261930,132798,1495857125,261756896,0,85,447,296,194,102,55,35,39
2017/05/27/11:52:05.284458,132799,1495857125,284265041,0,86,397,279,200,106,59,40,43
2017/05/27/11:52:05.307456,132800,1495857125,307275056,0,82,396,263,191,90,56,40,43
2017/05/27/11:52:05.322243,132801,1495857125,321991920,0,84,365,301,211,98,54,41,45
2017/05/27/11:52:05.345931,132802,1495857125,345737934,0,88,415,341,246,98,54,43,44
2017/05/27/11:52:05.366975,132803,1495857125,366786956,0,72,340,283,211,79,53,42,41
2017/05/27/11:52:05.389709,132804,1495857125,389353990,0,65,361,301,208,93,53,39,38
2017/05/27/11:52:05.404508,132805,1495857125,404335021,0,70,410,315,219,108,57,40,38
2017/05/27/11:52:05.435362,132806,1495857125,435117959,0,78,469,312,216,107,54,39,35
2017/05/27/11:52:05.441953,132807,1495857125,441793918,0,84,488,279,199,128,57,41,38
2017/05/27/11:52:05.464508,132808,1495857125,464278936,0,88,572,293,195,126,58,41,40
2017/05/27/11:52:05.503762,132809,1495857125,503242015,0,91,571,269,192,117,53,41,43
2017/05/27/11:52:05.509468,132810,1495857125,509243011,0,87,517,267,188,107,49,39,45
2017/05/27/11:52:05.532726,132811,1495857125,532464981,0,82,493,249,178,102,52,38,46
2017/05/27/11:52:05.547081,132812,1495857125,546818971,0,72,464,214,137,72,50,34,43
2017/05/27/11:52:05.569445,132813,1495857125,569288969,0,68,387,195,136,71,47,34,41
2017/05/27/11:52:05.584449,132814,1495857125,584280014,0,79,411,191,132,66,53,34,39
2017/05/27/11:52:05.607133,132815,1495857125,606911897,0,80,423,213,149,69,59,33,38
2017/05/27/11:52:05.629462,132816,1495857125,629301071,0,80,446,231,154,92,68,34,36
2017/05/27/11:52:05.644702,132817,1495857125,644325971,0,79,408,234,157,91,70,34,35
2017/05/27/11:52:05.667106,132818,1495857125,666876077,0,86,422,227,161,97,70,33,34
2017/05/27/11:52:05.689390,132819,1495857125,689249992,0,75,405,237,162,102,78,32,31
2017/05/27/11:52:05.704630,132820,1495857125,704319000,0,83,451,216,157,101,75,34,29
2017/05/27/11:52:05.735348,132821,1495857125,735028982,0,84,420,204,143,88,71,32,27
2017/05/27/11:52:05.749545,132822,1495857125,749345064,0,82,411,228,145,92,70,32,26
2017/05/27/11:52:05.764409,132823,1495857125,764229059,0,74,368,238,140,98,72,34,30
2017/05/27/11:52:05.787231,132824,1495857125,786885976,0,85,419,237,138,97,59,36,35
2017/05/27/11:52:05.809530,132825,1495857125,809353113,0,81,363,231,119,99,61,36,38
2017/05/27/11:52:05.829293,132826,1495857125,829133033,0,73,326,196,107,114,57,36,38
2017/05/27/11:52:05.846861,132827,1495857125,846710920,0,79,338,186,116,113,56,36,37
2017/05/27/11:52:05.869937,132828,1495857125,869529008,0,76,330,188,120,110,51,35,37
2017/05/27/11:52:05.884776,132829,1495857125,884370088,0,59,232,179,130,115,51,32,34
2017/05/27/11:52:05.907109,132830,1495857125,906949996,0,65,344,177,133,116,45,33,32
2017/05/27/11:52:05.929570,132831,1495857125,929325103,0,70,375,180,133,96,40,37,40
2017/05/27/11:52:05.944676,132832,1495857125,944344997,0,69,415,153,113,100,42,37,42
2017/05/27/11:52:05.968502,132833,1495857125,968250989,0,80,457,150,122,109,71,46,51
2017/05/27/11:52:05.989832,132834,1495857125,989394903,0,81,462,142,107,110,71,45,51
2017/05/27/11:52:06.004433,132835,1495857126,4245042,0,80,397,141,102,108,74,44,53
2017/05/27/11:52:06.027232,132836,1495857126,26884078,0,81,422,184,101,105,75,45,53
2017/05/27/11:52:06.049423,132837,1495857126,49262046,0,84,402,191,102,98,74,45,56
2017/05/27/11:52:06.064541,132838,1495857126,64311981,0,82,398,216,129,96,49,38,51
2017/05/27/11:52:06.087006,132839,1495857126,86785078,0,91,408,233,148,93,47,42,57
2017/05/27/11:52:06.109439,132840,1495857126,109261989,0,85,383,232,148,85,42,40,55
2017/05/27/11:52:06.124681,132841,1495857126,124366998,0,82,317,200,148,87,37,37,54
2017/05/27/11:52:06.146913,132842,1495857126,146740913,0,101,351,198,165,94,40,36,64
2017/05/27/11:52:06.169731,132843,1495857126,169429063,0,107,393,174,140,86,45,43,65
2017/05/27/11:52:06.184595,132844,1495857126,184340953,0,118,400,241,149,94,49,48,76
2017/05/27/11:52:06.208408,132845,1495857126,208235025,0,123,416,269,194,117,54,50,80
2017/05/27/11:52:06.230139,132846,1495857126,229829072,0,127,447,277,200,118,55,72,88
2017/05/27/11:52:06.252445,132847,1495857126,252228975,0,109,391,273,190,114,52,73,81
2017/05/27/11:52:06.266899,132848,1495857126,266768932,0,96,308,261,186,105,44,69,78
2017/05/27/11:52:06.289583,132849,1495857126,289324998,0,71,281,179,169,90,39,64,60
2017/05/27/11:52:06.304724,132850,1495857126,304435014,0,62,267,120,113,57,36,65,57
2017/05/27/11:52:06.326951,132851,1495857126,326792001,0,60,227,102,103,52,34,42,42
2017/05/27/11:52:06.349822,132852,1495857126,349467039,0,59,241,95,94,47,32,38,38
2017/05/27/11:52:06.364591,132853,1495857126,364386081,0,58,233,94,86,46,31,35,36
2017/05/27/11:52:06.386915,132854,1495857126,386740922,0,57,226,87,75,41,27,59,48
2017/05/27/11:52:06.409632,132855,1495857126,409358024,0,53,219,93,68,37,24,59,44
2017/05/27/11:52:06.424456,132856,1495857126,424251079,0,41,217,94,55,33,25,61,44
2017/05/27/11:52:06.454869,132857,1495857126,454457044,0,37,199,101,54,29,26,61,45
2017/05/27/11:52:06.469552,132858,1495857126,469353914,0,37,184,97,51,28,26,61,46
2017/05/27/11:52:06.491965,132859,1495857126,491760969,0,39,178,94,44,27,28,41,36
2017/05/27/11:52:06.506963,132860,1495857126,506786108,0,46,208,90,45,26,26,36,36
2017/05/27/11:52:06.529438,132861,1495857126,529272079,0,45,193,64,43,28,24,32,32
2017/05/27/11:52:06.552147,132862,1495857126,551841020,0,44,216,51,42,29,23,31,30
2017/05/27/11:52:06.568576,132863,1495857126,568264961,0,44,215,47,41,30,24,31,28
2017/05/27/11:52:06.589385,132864,1495857126,589229106,0,44,220,68,40,29,22,27,26
2017/05/27/11:52:06.612163,132865,1495857126,611880064,0,37,184,68,42,27,23,26,26
2017/05/27/11:52:06.627137,132866,1495857126,626864910,0,39,181,70,46,24,25,19,26
2017/05/27/11:52:06.649427,132867,1495857126,649254083,0,37,152,79,93,33,25,20,26
2017/05/27/11:52:06.680222,132868,1495857126,680012941,0,39,151,110,114,44,28,22,29
2017/05/27/11:52:06.686901,132869,1495857126,686748027,0,35,113,109,118,48,29,23,27
2017/05/27/11:52:06.709607,132870,1495857126,709333896,0,36,112,115,124,49,28,24,27
2017/05/27/11:52:06.732008,132871,1495857126,731803894,0,34,120,132,132,49,27,25,26
2017/05/27/11:52:06.746945,132872,1495857126,746781110,0,34,116,140,118,47,27,25,29
2017/05/27/11:52:06.769642,132873,1495857126,769315004,0,57,113,153,103,37,23,24,25
2017/05/27/11:52:06.791926,132874,1495857126,791760921,0,59,115,166,106,39,24,23,27
2017/05/27/11:52:06.806959,132875,1495857126,806785106,0,115,128,166,100,40,25,23,30
2017/05/27/11:52:06.829492,132876,1495857126,829282999,0,139,137,211,116,51,29,27,32
2017/05/27/11:52:06.852240,132877,1495857126,851897954,0,151,136,207,105,50,28,26,31
2017/05/27/11:52:06.866914,132878,1495857126,866738080,0,144,136,215,117,53,29,26,34
2017/05/27/11:52:06.889614,132879,1495857126,889297008,0,145,138,210,112,49,28,27,34
2017/05/27/11:52:06.912273,132880,1495857126,911926031,0,114,131,208,111,49,27,26,33
2017/05/27/11:52:06.926957,132881,1495857126,926712989,0,94,118,192,120,40,23,20,31
2017/05/27/11:52:06.949726,132882,1495857126,949423074,0,88,114,200,126,42,22,25,32
2017/05/27/11:52:06.971911,132883,1495857126,971796035,0,86,121,188,127,39,21,25,29
2017/05/27/11:52:06.986937,132884,1495857126,986754894,0,86,128,176,126,38,22,26,29
2017/05/27/11:52:07.009646,132885,1495857127,9352922,0,77,141,177,127,37,22,26,26
2017/05/27/11:52:07.031955,132886,1495857127,31764030,0,65,178,141,110,34,22,25,27
2017/05/27/11:52:07.046942,132887,1495857127,46775102,0,55,192,161,122,38,22,23,26
2017/05/27/11:52:07.069518,132888,1495857127,69302082,0,127,202,149,110,44,26,25,27
2017/05/27/11:52:07.091985,132889,1495857127,91809988,0,158,207,168,112,45,30,24,30
2017/05/27/11:52:07.107283,132890,1495857127,106956958,0,161,200,190,128,49,30,24,30
2017/05/27/11:52:07.129506,132891,1495857127,129276037,0,168,176,216,144,57,34,27,33
2017/05/27/11:52:07.152006,132892,1495857127,151786088,0,166,176,200,129,53,32,25,33
2017/05/27/11:52:07.167006,132893,1495857127,166795015,0,210,178,233,138,49,31,23,38
2017/05/27/11:52:07.189785,132894,1495857127,189424991,0,240,175,223,138,48,27,23,40
2017/05/27/11:52:07.212045,132895,1495857127,211786985,0,249,163,215,128,47,29,25,41
2017/05/27/11:52:07.227036,132896,1495857127,226782083,0,247,172,200,106,37,25,25,40
2017/05/27/11:52:07.249449,132897,1495857127,249278068,0,269,180,201,105,36,26,27,47
2017/05/27/11:52:07.271991,132898,1495857127,271820068,0,224,165,151,93,32,25,29,43
2017/05/27/11:52:07.288527,132899,1495857127,288247108,0,241,158,147,96,31,24,29,45
2017/05/27/11:52:07.309451,132900,1495857127,309274911,0,236,171,166,99,30,22,28,45
2017/05/27/11:52:07.332111,132901,1495857127,331856012,0,242,152,178,105,32,23,26,47
2017/05/27/11:52:07.346998,132902,1495857127,346759080,0,248,134,179,118,34,23,26,40
2017/05/27/11:52:07.369633,132903,1495857127,369312047,0,265,123,187,145,38,20,24,42
2017/05/27/11:52:07.391909,132904,1495857127,391721010,0,206,142,198,149,43,24,25,47
2017/05/27/11:52:07.406970,132905,1495857127,406795024,0,205,131,180,143,41,22,26,46
2017/05/27/11:52:07.429470,132906,1495857127,429265022,0,212,128,168,133,41,22,27,44
2017/05/27/11:52:07.452019,132907,1495857127,451802968,0,208,116,156,122,45,24,25,45
2017/05/27/11:52:07.474394,132908,1495857127,474242925,0,185,143,168,108,46,25,28,49
2017/05/27/11:52:07.489563,132909,1495857127,489363908,0,183,169,174,114,47,25,26,41
2017/05/27/11:52:07.511908,132910,1495857127,511751890,0,200,195,168,117,48,24,25,41
2017/05/27/11:52:07.534662,132911,1495857127,534377098,0,193,198,155,111,46,25,24,44
2017/05/27/11:52:07.549444,132912,1495857127,549319028,0,166,204,179,128,46,23,27,44
2017/05/27/11:52:07.571920,132913,1495857127,571779012,0,146,213,170,117,48,27,26,39
2017/05/27/11:52:07.594394,132914,1495857127,594252109,0,147,208,158,105,46,31,28,36
2017/05/27/11:52:07.609406,132915,1495857127,609277009,0,140,201,169,105,45,31,29,37
2017/05/27/11:52:07.632166,132916,1495857127,631875038,0,134,203,169,113,48,31,30,34
2017/05/27/11:52:07.662663,132917,1495857127,662509918,0,126,198,160,98,49,32,28,32
2017/05/27/11:52:07.671247,132918,1495857127,671035051,0,132,182,149,89,45,29,27,33
2017/05/27/11:52:07.692028,132919,1495857127,691792964,0,130,190,165,99,44,26,25,32
2017/05/27/11:52:07.714491,132920,1495857127,714267015,0,116,185,181,118,50,28,27,33
2017/05/27/11:52:07.731421,132921,1495857127,731200933,0,114,185,182,117,49,28,27,39
2017/05/27/11:52:07.751978,132922,1495857127,751791954,0,108,185,175,119,45,29,23,38
2017/05/27/11:52:07.774507,132923,1495857127,774307966,0,99,200,185,127,46,30,24,36
2017/05/27/11:52:07.789498,132924,1495857127,789316892,0,95,185,190,121,46,28,24,36
2017/05/27/11:52:07.811973,132925,1495857127,811794996,0,84,197,170,109,43,26,22,35
2017/05/27/11:52:07.835123,132926,1495857127,834320068,0,78,209,168,101,39,24,21,26
2017/05/27/11:52:07.849490,132927,1495857127,849291086,0,96,230,172,97,38,22,22,28
2017/05/27/11:52:07.872068,132928,1495857127,871769905,0,96,212,163,88,38,23,21,27
2017/05/27/11:52:07.902635,132929,1495857127,902467012,0,92,203,160,87,38,23,21,28
2017/05/27/11:52:07.909545,132930,1495857127,909332036,0,80,181,153,79,40,25,20,25
2017/05/27/11:52:07.932136,132931,1495857127,931896924,0,77,174,171,86,43,28,20,28
2017/05/27/11:52:07.954416,132932,1495857127,954298019,0,56,181,166,98,45,29,22,28
2017/05/27/11:52:07.969414,132933,1495857127,969289064,0,52,176,185,116,49,27,23,28
2017/05/27/11:52:07.991906,132934,1495857127,991703033,0,52,180,173,112,49,27,22,27
2017/05/27/11:52:08.014936,132935,1495857128,14612913,0,57,195,191,121,46,27,21,29
2017/05/27/11:52:08.029485,132936,1495857128,29283046,0,58,203,182,117,45,24,22,26
2017/05/27/11:52:08.053393,132937,1495857128,53205966,0,56,183,175,108,44,26,21,27
2017/05/27/11:52:08.075203,132938,1495857128,74748992,0,58,233,163,91,37,27,22,30
2017/05/27/11:52:08.089432,132939,1495857128,89234113,0,56,240,165,100,38,27,23,30
2017/05/27/11:52:08.120134,132940,1495857128,119942903,0,55,237,150,96,37,25,24,30
2017/05/27/11:52:08.134434,132941,1495857128,134270906,0,51,231,139,99,36,26,23,30
2017/05/27/11:52:08.156977,132942,1495857128,156776905,0,50,240,155,107,42,26,25,28
2017/05/27/11:52:08.173479,132943,1495857128,173260927,0,52,213,170,114,48,26,25,24
2017/05/27/11:52:08.196069,132944,1495857128,195723056,0,54,197,164,109,48,28,24,24
2017/05/27/11:52:08.216950,132945,1495857128,216784954,0,51,183,164,108,50,27,24,26
2017/05/27/11:52:08.233382,132946,1495857128,233215093,0,50,185,178,122,52,28,24,27
2017/05/27/11:52:08.254471,132947,1495857128,254281997,0,48,215,190,121,44,26,21,28
2017/05/27/11:52:08.277175,132948,1495857128,276860952,0,46,197,174,115,42,25,21,29
2017/05/27/11:52:08.293470,132949,1495857128,293257951,0,48,207,166,110,41,24,21,29
2017/05/27/11:52:08.314496,132950,1495857128,314280986,0,49,215,161,110,39,23,22,26
2017/05/27/11:52:08.336877,132951,1495857128,336743116,0,43,200,176,121,55,24,23,24
2017/05/27/11:52:08.353466,132952,1495857128,353281021,0,47,218,169,124,60,26,24,25
2017/05/27/11:52:08.374532,132953,1495857128,374274015,0,46,234,161,118,57,27,24,23
2017/05/27/11:52:08.404543,132954,1495857128,404269933,0,43,223,161,118,57,28,24,24
2017/05/27/11:52:08.413637,132955,1495857128,413222074,0,47,227,170,120,59,28,24,24
2017/05/27/11:52:08.435869,132956,1495857128,435688972,0,49,243,168,107,45,27,23,26
2017/05/27/11:52:08.457039,132957,1495857128,456799983,0,45,184,161,95,40,26,23,24
2017/05/27/11:52:08.473406,132958,1495857128,473222017,0,44,161,164,103,40,24,22,23
2017/05/27/11:52:08.496111,132959,1495857128,495804071,0,45,174,166,103,42,23,22,22
2017/05/27/11:52:08.516957,132960,1495857128,516774892,0,45,172,166,103,39,24,22,22
2017/05/27/11:52:08.533525,132961,1495857128,533252954,0,46,157,152,100,41,24,23,23
2017/05/27/11:52:08.563402,132962,1495857128,563252925,0,47,200,163,101,40,22,23,26
2017/05/27/11:52:08.576966,132963,1495857128,576747894,0,43,217,162,96,38,22,23,27
2017/05/27/11:52:08.593490,132964,1495857128,593267917,0,41,205,181,106,41,24,24,28
2017/05/27/11:52:08.623507,132965,1495857128,623276948,0,39,200,170,97,38,21,24,27
2017/05/27/11:52:08.639103,132966,1495857128,638858079,0,37,204,162,88,35,22,23,26
2017/05/27/11:52:08.653403,132967,1495857128,653223037,0,36,191,154,94,34,22,21,22
2017/05/27/11:52:08.674572,132968,1495857128,674314022,0,43,207,149,93,39,25,25,24
2017/05/27/11:52:08.697097,132969,1495857128,696883916,0,47,218,137,87,37,25,23,26
2017/05/27/11:52:08.713452,132970,1495857128,713274955,0,48,239,143,102,40,26,23,27
2017/05/27/11:52:08.740023,132971,1495857128,734369993,0,50,243,133,101,41,25,26,27
2017/05/27/11:52:08.756859,132972,1495857128,756742000,0,49,221,128,109,44,26,26,30
2017/05/27/11:52:08.773497,132973,1495857128,773205041,0,46,202,137,114,39,24,23,27
2017/05/27/11:52:08.794682,132974,1495857128,794378995,0,42,190,123,111,36,23,24,25
2017/05/27/11:52:08.816905,132975,1495857128,816730976,0,39,173,125,110,37,25,24,26
2017/05/27/11:52:08.833380,132976,1495857128,833208084,0,41,225,135,112,34,23,21,24
2017/05/27/11:52:08.854599,132977,1495857128,854288101,0,41,225,137,101,38,26,21,22
2017/05/27/11:52:08.877283,132978,1495857128,876931905,0,41,221,132,95,40,27,22,24
2017/05/27/11:52:08.893431,132979,1495857128,893232107,0,40,218,130,94,40,27,22,24
2017/05/27/11:52:08.915906,132980,1495857128,915735006,0,41,209,117,75,36,25,19,22
2017/05/27/11:52:08.937066,132981,1495857128,936789989,0,35,132,99,67,34,26,19,23
2017/05/27/11:52:08.953468,132982,1495857128,953253984,0,41,175,101,68,29,24,20,22
2017/05/27/11:52:08.976103,132983,1495857128,975744962,0,44,164,95,69,29,22,19,21
2017/05/27/11:52:08.997016,132984,1495857128,996776103,0,50,174,110,76,33,23,19,25
2017/05/27/11:52:09.013399,132985,1495857129,13206005,0,55,228,109,76,34,25,20,24
2017/05/27/11:52:09.036032,132986,1495857129,35798072,0,57,233,110,72,40,27,31,28
2017/05/27/11:52:09.056989,132987,1495857129,56802034,0,57,219,117,76,50,32,50,37
2017/05/27/11:52:09.073637,132988,1495857129,73301076,0,56,242,142,92,54,33,53,39
2017/05/27/11:52:09.095844,132989,1495857129,95689058,0,51,254,154,98,52,32,53,37
2017/05/27/11:52:09.117003,132990,1495857129,116785049,0,45,210,159,103,53,32,54,38
2017/05/27/11:52:09.141216,132991,1495857129,140999078,0,43,210,157,102,50,29,49,37
2017/05/27/11:52:09.155918,132992,1495857129,155723094,0,40,196,138,93,38,24,31,28
2017/05/27/11:52:09.176984,132993,1495857129,176832914,0,47,197,141,79,37,22,27,26
2017/05/27/11:52:09.199533,132994,1495857129,199352025,0,49,231,125,76,37,22,25,26
2017/05/27/11:52:09.215975,132995,1495857129,215718030,0,48,223,120,74,37,23,25,25
2017/05/27/11:52:09.237186,132996,1495857129,236867904,0,48,220,123,75,38,23,22,23
2017/05/27/11:52:09.259784,132997,1495857129,259402036,0,44,214,117,74,38,25,20,21
2017/05/27/11:52:09.275890,132998,1495857129,275763988,0,32,189,80,74,31,22,17,20
2017/05/27/11:52:09.297229,132999,1495857129,296902894,0,37,135,89,83,35,24,18,20
2017/05/27/11:52:09.319531,133000,1495857129,319271087,0,39,148,89,83,34,23,18,20
2017/05/27/11:52:09.335943,133001,1495857129,335736036,0,41,156,90,86,34,23,20,22
2017/05/27/11:52:09.357268,133002,1495857129,356893062,0,43,153,91,84,34,22,22,25
2017/05/27/11:52:09.379448,133003,1495857129,379261970,0,43,155,91,79,35,22,21,26
2017/05/27/11:52:09.395900,133004,1495857129,395720958,0,37,143,81,65,30,22,20,25
2017/05/27/11:52:09.417181,133005,1495857129,416847944,0,38,164,98,81,34,24,22,25
2017/05/27/11:52:09.439392,133006,1495857129,439192056,0,35,161,95,78,33,24,21,25
2017/05/27/11:52:09.456105,133007,1495857129,455765008,0,35,180,98,81,31,24,20,22
2017/05/27/11:52:09.476889,133008,1495857129,476712942,0,39,190,99,81,29,25,21,23
2017/05/27/11:52:09.499621,133009,1495857129,499319076,0,39,184,87,75,30,24,22,24
2017/05/27/11:52:09.515889,133010,1495857129,515712976,0,39,169,82,68,27,22,19,24
2017/05/27/11:52:09.537159,133011,1495857129,536854028,0,43,186,87,71,29,21,19,25
2017/05/27/11:52:09.559459,133012,1495857129,559225082,0,45,186,83,64,29,21,18,25
2017/05/27/11:52:09.575890,133013,1495857129,575689077,0,48,181,96,83,33,20,17,24
2017/05/27/11:52:09.596956,133014,1495857129,596762895,0,47,179,101,86,32,20,17,25
2017/05/27/11:52:09.619690,133015,1495857129,619405031,0,49,170,86,73,29,22,20,24
2017/05/27/11:52:09.635871,133016,1495857129,635688066,0,48,156,83,73,32,23,21,23
2017/05/27/11:52:09.657008,133017,1495857129,656790018,0,46,127,105,88,33,24,22,23
2017/05/27/11:52:09.679429,133018,1495857129,679258108,0,39,134,97,71,30,26,22,22
2017/05/27/11:52:09.696010,133019,1495857129,695822954,0,43,214,97,67,32,27,23,23
2017/05/27/11:52:09.717073,133020,1495857129,716763973,0,40,213,101,68,30,26,21,25
2017/05/27/11:52:09.739448,133021,1495857129,739259004,0,37,204,100,63,30,25,20,24
2017/05/27/11:52:09.755955,133022,1495857129,755763053,0,37,208,78,39,28,24,21,25
2017/05/27/11:52:09.777016,133023,1495857129,776809930,0,41,211,88,56,30,24,21,25
2017/05/27/11:52:09.799592,133024,1495857129,799300909,0,37,134,87,57,30,21,19,22
2017/05/27/11:52:09.815968,133025,1495857129,815790891,0,36,126,88,57,31,23,19,19
2017/05/27/11:52:09.836956,133026,1495857129,836719989,0,37,133,83,57,29,24,19,21
2017/05/27/11:52:09.861066,133027,1495857129,860780000,0,39,146,80,57,30,23,19,21
2017/05/27/11:52:09.875904,133028,1495857129,875720977,0,35,128,65,40,27,21,18,21
2017/05/27/11:52:09.897069,133029,1495857129,896888017,0,36,126,76,43,29,23,19,24
2017/05/27/11:52:09.919684,133030,1495857129,919280052,0,38,132,122,65,35,22,19,25
2017/05/27/11:52:09.935856,133031,1495857129,935678958,0,36,125,129,71,38,23,19,25
2017/05/27/11:52:09.957094,133032,1495857129,956788063,0,33,100,130,71,37,23,20,24
2017/05/27/11:52:09.979468,133033,1495857129,979264020,0,32,105,130,69,37,23,19,25
2017/05/27/11:52:09.995926,133034,1495857129,995745897,0,30,114,123,66,35,24,22,24
2017/05/27/11:52:10.017120,133035,1495857130,16877889,0,27,114,75,43,29,24,24,22
2017/05/27/11:52:10.039453,133036,1495857130,39258003,0,28,120,66,33,25,21,24,21
2017/05/27/11:52:10.055914,133037,1495857130,55741071,0,31,122,63,30,22,21,25,19
2017/05/27/11:52:10.076992,133038,1495857130,76797962,0,30,115,55,28,22,20,26,18
2017/05/27/11:52:10.099497,133039,1495857130,99287033,0,29,101,50,26,21,18,23,18
2017/05/27/11:52:10.115886,133040,1495857130,115698099,0,28,100,47,27,18,17,22,18
2017/05/27/11:52:10.136925,133041,1495857130,136734962,0,25,89,49,30,20,18,21,17
2017/05/27/11:52:10.159492,133042,1495857130,159264087,0,22,92,46,31,22,20,20,18
2017/05/27/11:52:10.175918,133043,1495857130,175751924,0,23,89,48,31,21,21,19,17
2017/05/27/11:52:10.198360,133044,1495857130,198173046,0,25,94,50,33,24,22,19,16
2017/05/27/11:52:10.226949,133045,1495857130,226737976,0,24,84,50,32,24,23,19,16
2017/05/27/11:52:10.235965,133046,1495857130,235774993,0,24,80,41,25,22,21,18,17
2017/05/27/11:52:10.258666,133047,1495857130,258255004,0,22,79,41,24,21,20,17,20
2017/05/27/11:52:10.279431,133048,1495857130,279242992,0,29,91,39,24,22,20,19,21
2017/05/27/11:52:10.302013,133049,1495857130,301780939,0,30,108,38,23,21,20,20,22
2017/05/27/11:52:10.319509,133050,1495857130,319345951,0,32,117,44,22,23,20,20,22
2017/05/27/11:52:10.339467,133051,1495857130,339260101,0,34,120,46,24,24,20,19,22
2017/05/27/11:52:10.362011,133052,1495857130,361754894,0,38,138,58,31,23,20,20,22
2017/05/27/11:52:10.378410,133053,1495857130,378245115,0,34,142,66,34,24,20,17,20
2017/05/27/11:52:10.404772,133054,1495857130,399301052,0,33,129,65,33,23,20,16,19
2017/05/27/11:52:10.421929,133055,1495857130,421783924,0,33,121,65,34,22,19,17,20
2017/05/27/11:52:10.438396,133056,1495857130,438199996,0,32,135,65,34,20,21,20,20
2017/05/27/11:52:10.459568,133057,1495857130,459347963,0,29,114,57,34,21,21,20,19
2017/05/27/11:52:10.481969,133058,1495857130,481762886,0,27,93,51,31,18,21,21,19
2017/05/27/11:52:10.504758,133059,1495857130,504285097,0,25,95,53,34,18,20,21,20
2017/05/27/11:52:10.519430,133060,1495857130,519217014,0,26,110,55,37,22,21,21,19
2017/05/27/11:52:10.541878,133061,1495857130,541692972,0,26,114,63,35,21,19,18,19
2017/05/27/11:52:10.558406,133062,1495857130,558199882,0,25,117,61,32,23,18,18,19
2017/05/27/11:52:10.579388,133063,1495857130,579222917,0,28,119,62,33,24,18,17,20
2017/05/27/11:52:10.602177,133064,1495857130,601878881,0,28,115,69,34,26,19,16,19
2017/05/27/11:52:10.618343,133065,1495857130,618179082,0,26,98,65,32,24,20,18,21
2017/05/27/11:52:10.639438,133066,1495857130,639244079,0,25,82,65,38,24,19,20,21
2017/05/27/11:52:10.662110,133067,1495857130,661859035,0,27,104,65,36,24,20,21,20
2017/05/27/11:52:10.678409,133068,1495857130,678280115,0,23,106,61,35,23,21,22,21
2017/05/27/11:52:10.699463,133069,1495857130,699264049,0,25,108,52,31,21,21,22,22
2017/05/27/11:52:10.721932,133070,1495857130,721734046,0,25,113,49,28,19,22,21,20
2017/05/27/11:52:10.738440,133071,1495857130,738244056,0,27,118,54,29,20,22,19,20
2017/05/27/11:52:10.759393,133072,1495857130,759227037,0,27,99,53,34,19,22,16,21
2017/05/27/11:52:10.782014,133073,1495857130,781752109,0,28,97,52,33,19,21,16,19
2017/05/27/11:52:10.798441,133074,1495857130,798207998,0,28,107,52,35,20,21,15,18
2017/05/27/11:52:10.819499,133075,1495857130,819227933,0,28,111,54,35,20,20,16,18
2017/05/27/11:52:10.842076,133076,1495857130,841833114,0,28,93,49,37,22,19,17,18
2017/05/27/11:52:10.858433,133077,1495857130,858252048,0,26,92,52,35,23,19,18,17
2017/05/27/11:52:10.879382,133078,1495857130,879219055,0,27,109,58,35,25,20,18,17
2017/05/27/11:52:10.905375,133079,1495857130,905003070,0,27,95,57,36,24,19,18,19
2017/05/27/11:52:10.920731,133080,1495857130,918205022,0,32,106,59,39,26,19,18,19
2017/05/27/11:52:10.939656,133081,1495857130,939261913,0,29,107,57,34,25,20,17,19
2017/05/27/11:52:10.961928,133082,1495857130,961710929,0,30,107,60,42,26,23,17,20
2017/05/27/11:52:10.978358,133083,1495857130,978183031,0,30,91,60,47,25,22,18,20
2017/05/27/11:52:10.999454,133084,1495857130,999254941,0,29,92,58,47,26,22,18,20
2017/05/27/11:52:11.022127,133085,1495857131,21855115,0,27,100,56,47,26,21,20,20
2017/05/27/11:52:11.038408,133086,1495857131,38172006,0,28,106,51,48,25,20,20,19
2017/05/27/11:52:11.059606,133087,1495857131,59351921,0,27,107,45,39,24,19,20,19
2017/05/27/11:52:11.081932,133088,1495857131,81726074,0,27,105,41,31,25,21,20,20
2017/05/27/11:52:11.098416,133089,1495857131,98218917,0,29,123,51,32,24,22,20,19
2017/05/27/11:52:11.119435,133090,1495857131,119256019,0,26,98,57,33,21,23,18,17
2017/05/27/11:52:11.141953,133091,1495857131,141766071,0,29,91,57,32,22,23,20,18
2017/05/27/11:52:11.158379,133092,1495857131,158225059,0,28,90,57,34,22,22,19,18
2017/05/27/11:52:11.180096,133093,1495857131,179757118,0,28,103,59,37,22,20,18,17
2017/05/27/11:52:11.201936,133094,1495857131,201760053,0,27,84,56,37,22,18,17,18
2017/05/27/11:52:11.218347,133095,1495857131,218204021,0,28,92,56,37,23,18,18,20
2017/05/27/11:52:11.246974,133096,1495857131,246778011,0,27,93,54,36,22,19,17,19
2017/05/27/11:52:11.261955,133097,1495857131,261758089,0,26,94,54,37,21,18,19,21
2017/05/27/11:52:11.284416,133098,1495857131,284230947,0,27,82,48,35,21,19,21,21
2017/05/27/11:52:11.299404,133099,1495857131,299235105,0,26,78,40,33,21,20,21,22
