time,.header.seq,.header.stamp.secs,.header.stamp.nsecs,.header.frame_id,.ch0,.ch1,.ch2,.ch3,.ch4,.ch5,.ch6,.ch7
2017/05/27/11:52:48.824119,134970,1495857168,823807001,0,177,353,436,336,210,93,64,67
2017/05/27/11:52:48.836702,134971,1495857168,836483001,0,167,326,378,315,209,94,58,56
2017/05/27/11:52:48.859173,134972,1495857168,858966112,0,162,333,386,322,210,91,55,55
2017/05/27/11:52:48.881678,134973,1495857168,881498098,0,176,366,406,333,223,100,59,57
2017/05/27/11:52:48.896660,134974,1495857168,896476030,0,306,402,421,353,223,96,55,70
2017/05/27/11:52:48.919163,134975,1495857168,918955087,0,303,461,340,277,166,79,48,64
2017/05/27/11:52:48.941836,134976,1495857168,941560983,0,311,482,314,248,140,64,42,63
2017/05/27/11:52:48.956694,134977,1495857168,956521987,0,332,514,315,257,154,76,47,62
2017/05/27/11:52:48.979121,134978,1495857168,978952884,0,341,529,304,252,137,71,44,61
2017/05/27/11:52:49.001637,134979,1495857169,1465082,0,266,541,276,228,126,73,45,50
2017/05/27/11:52:49.016739,134980,1495857169,16540050,0,285,498,234,221,153,78,47,53
2017/05/27/11:52:49.039240,134981,1495857169,39061069,0,312,476,277,220,149,76,46,52
2017/05/27/11:52:49.061817,134982,1495857169,61577081,0,294,436,294,240,148,77,48,63
2017/05/27/11:52:49.076938,134983,1495857169,76548099,0,292,461,308,253,156,74,46,64
2017/05/27/11:52:49.099183,134984,1495857169,99010944,0,311,460,359,285,166,86,51,68
2017/05/27/11:52:49.121861,134985,1495857169,121608972,0,400,426,379,281,154,86,52,71
2017/05/27/11:52:49.144317,134986,1495857169,144010066,0,395,425,371,267,151,87,55,73
2017/05/27/11:52:49.159395,134987,1495857169,159073114,0,436,427,361,235,134,75,47,68
2017/05/27/11:52:49.181773,134988,1495857169,181514024,0,479,387,348,228,135,73,45,74
2017/05/27/11:52:49.204220,134989,1495857169,204035043,0,459,329,328,209,131,73,46,76
2017/05/27/11:52:49.219336,134990,1495857169,219080924,0,441,357,385,233,124,77,47,74
2017/05/27/11:52:49.241594,134991,1495857169,241449117,0,448,343,371,241,132,80,46,74
2017/05/27/11:52:49.264198,134992,1495857169,263972043,0,447,336,369,246,136,93,55,71
2017/05/27/11:52:49.279167,134993,1495857169,278966903,0,418,341,387,250,130,94,57,65
2017/05/27/11:52:49.301794,134994,1495857169,301539897,0,412,371,378,228,113,84,49,58
2017/05/27/11:52:49.324185,134995,1495857169,323967933,0,402,376,348,230,129,91,54,65
2017/05/27/11:52:49.339237,134996,1495857169,339000940,0,419,397,338,232,124,87,54,60
2017/05/27/11:52:49.361789,134997,1495857169,361521959,0,415,399,414,297,164,87,50,62
2017/05/27/11:52:49.384362,134998,1495857169,384093046,0,427,420,453,339,195,93,55,68
2017/05/27/11:52:49.399318,134999,1495857169,399104118,0,487,446,440,345,196,92,55,70
2017/05/27/11:52:49.421849,135000,1495857169,421566009,0,459,419,397,321,191,77,47,61
2017/05/27/11:52:49.444243,135001,1495857169,444010972,0,473,398,418,344,196,85,47,62
2017/05/27/11:52:49.459208,135002,1495857169,459033966,0,462,405,383,313,169,84,48,61
2017/05/27/11:52:49.490200,135003,1495857169,489778995,0,474,363,328,259,136,82,48,63
2017/05/27/11:52:49.504192,135004,1495857169,503987073,0,480,295,366,285,147,90,50,58
2017/05/27/11:52:49.519490,135005,1495857169,519052982,0,507,368,396,321,150,91,55,64
2017/05/27/11:52:49.541683,135006,1495857169,541491985,0,493,420,383,303,147,93,56,71
2017/05/27/11:52:49.564231,135007,1495857169,564012050,0,503,416,344,276,143,92,52,74
2017/05/27/11:52:49.579248,135008,1495857169,579068899,0,524,423,334,277,144,88,47,69
2017/05/27/11:52:49.601699,135009,1495857169,601512908,0,528,447,389,284,148,88,50,74
2017/05/27/11:52:49.624175,135010,1495857169,623982906,0,531,443,396,268,161,106,51,78
2017/05/27/11:52:49.639209,135011,1495857169,638992071,0,522,476,398,258,174,111,52,80
2017/05/27/11:52:49.661696,135012,1495857169,661475896,0,518,517,482,290,191,122,58,83
2017/05/27/11:52:49.684172,135013,1495857169,683974981,0,456,527,509,298,194,121,58,79
2017/05/27/11:52:49.699334,135014,1495857169,699050903,0,417,514,469,275,197,119,53,80
2017/05/27/11:52:49.722001,135015,1495857169,721631050,0,397,516,462,273,201,115,51,80
2017/05/27/11:52:49.744197,135016,1495857169,743982076,0,351,458,472,280,193,105,50,70
2017/05/27/11:52:49.759481,135017,1495857169,759182929,0,373,513,426,263,173,88,45,79
2017/05/27/11:52:49.781971,135018,1495857169,781599998,0,371,505,391,250,170,88,45,85
2017/05/27/11:52:49.804152,135019,1495857169,803975105,0,327,565,398,266,171,97,53,82
2017/05/27/11:52:49.820833,135020,1495857169,820506095,0,291,571,426,268,170,94,55,78
2017/05/27/11:52:49.843104,135021,1495857169,842902898,0,348,576,408,261,167,96,53,86
2017/05/27/11:52:49.864110,135022,1495857169,863928079,0,297,550,411,289,189,97,53,75
2017/05/27/11:52:49.879130,135023,1495857169,878957033,0,316,597,446,302,190,98,54,75
2017/05/27/11:52:49.901829,135024,1495857169,901509046,0,336,546,412,287,181,92,48,79
2017/05/27/11:52:49.924372,135025,1495857169,924067974,0,360,523,355,262,156,82,44,83
2017/05/27/11:52:49.939146,135026,1495857169,938986063,0,324,510,347,260,154,87,46,80
2017/05/27/11:52:49.963142,135027,1495857169,962930917,0,314,470,289,212,120,81,45,81
2017/05/27/11:52:49.984190,135028,1495857169,984040021,0,294,393,244,180,112,83,49,84
2017/05/27/11:52:50.008192,135029,1495857170,8014917,0,264,376,272,172,99,74,49,89
2017/05/27/11:52:50.021773,135030,1495857170,21502971,0,208,329,325,182,97,71,50,82
2017/05/27/11:52:50.044219,135031,1495857170,44017076,0,164,341,323,172,96,61,50,76
2017/05/27/11:52:50.068764,135032,1495857170,66814899,0,144,360,333,182,117,77,51,76
2017/05/27/11:52:50.081723,135033,1495857170,81518888,0,137,377,330,185,118,74,47,68
2017/05/27/11:52:50.104165,135034,1495857170,103988885,0,129,379,305,180,117,86,45,64
2017/05/27/11:52:50.126869,135035,1495857170,126570940,0,107,463,288,189,132,86,43,60
2017/05/27/11:52:50.141673,135036,1495857170,141460895,0,115,453,316,226,134,94,46,64
2017/05/27/11:52:50.164126,135037,1495857170,163938045,0,108,416,323,225,136,84,45,58
2017/05/27/11:52:50.186604,135038,1495857170,186450004,0,106,458,373,245,145,86,47,59
2017/05/27/11:52:50.201929,135039,1495857170,201464891,0,102,469,376,243,150,77,48,47
2017/05/27/11:52:50.224197,135040,1495857170,224000930,0,97,411,365,238,155,91,50,47
2017/05/27/11:52:50.246706,135041,1495857170,246515989,0,91,472,471,261,172,109,53,48
2017/05/27/11:52:50.261917,135042,1495857170,261565923,0,90,470,483,261,164,110,53,48
2017/05/27/11:52:50.284132,135043,1495857170,283951044,0,84,453,438,240,160,114,54,53
2017/05/27/11:52:50.307127,135044,1495857170,306490898,0,82,450,443,246,159,128,66,55
2017/05/27/11:52:50.321723,135045,1495857170,321477890,0,83,455,478,263,157,130,67,56
2017/05/27/11:52:50.344245,135046,1495857170,343991994,0,81,443,414,248,152,113,63,56
2017/05/27/11:52:50.366701,135047,1495857170,366514921,0,87,477,394,245,148,115,63,55
2017/05/27/11:52:50.381680,135048,1495857170,381499052,0,85,460,403,262,147,119,66,52
2017/05/27/11:52:50.404346,135049,1495857170,404035091,0,83,457,399,267,154,111,57,53
2017/05/27/11:52:50.426636,135050,1495857170,426501035,0,86,471,374,254,142,104,56,55
2017/05/27/11:52:50.441698,135051,1495857170,441478967,0,83,462,308,222,126,100,53,51
2017/05/27/11:52:50.472348,135052,1495857170,472166061,0,77,437,364,252,139,101,53,51
2017/05/27/11:52:50.486637,135053,1495857170,486499071,0,80,423,354,248,146,97,47,46
2017/05/27/11:52:50.501729,135054,1495857170,501523971,0,84,425,364,249,145,90,43,40
2017/05/27/11:52:50.524226,135055,1495857170,523948907,0,80,392,356,232,142,86,43,41
2017/05/27/11:52:50.546700,135056,1495857170,546494007,0,79,414,378,228,138,81,42,42
2017/05/27/11:52:50.561878,135057,1495857170,561578035,0,79,414,312,186,127,78,43,48
2017/05/27/11:52:50.584241,135058,1495857170,584043979,0,79,406,304,177,166,104,61,50
2017/05/27/11:52:50.606660,135059,1495857170,606446981,0,83,485,286,201,171,107,66,53
2017/05/27/11:52:50.621767,135060,1495857170,621474027,0,82,471,256,203,180,107,68,51
2017/05/27/11:52:50.644180,135061,1495857170,643990993,0,80,463,347,299,214,122,76,53
2017/05/27/11:52:50.666758,135062,1495857170,666587114,0,93,530,370,310,226,123,79,53
2017/05/27/11:52:50.681622,135063,1495857170,681457042,0,89,570,398,330,206,96,65,55
2017/05/27/11:52:50.704717,135064,1495857170,704031944,0,86,514,429,307,212,123,70,68
2017/05/27/11:52:50.726587,135065,1495857170,726459980,0,88,548,462,342,210,123,68,70
2017/05/27/11:52:50.741669,135066,1495857170,741473913,0,85,502,383,308,193,124,61,67
2017/05/27/11:52:50.764176,135067,1495857170,763974905,0,73,426,357,295,180,125,57,67
2017/05/27/11:52:50.786641,135068,1495857170,786467075,0,73,359,338,280,184,136,63,67
2017/05/27/11:52:50.801851,135069,1495857170,801531076,0,73,347,291,293,201,134,59,55
2017/05/27/11:52:50.824209,135070,1495857170,823997974,0,65,297,246,269,205,135,59,52
2017/05/27/11:52:50.846884,135071,1495857170,846595048,0,63,285,246,237,189,127,59,61
2017/05/27/11:52:50.861718,135072,1495857170,861454963,0,68,361,264,243,192,126,63,61
2017/05/27/11:52:50.891920,135073,1495857170,891577005,0,88,430,380,278,180,115,59,64
2017/05/27/11:52:50.906974,135074,1495857170,906549930,0,85,421,382,264,142,89,54,60
2017/05/27/11:52:50.929476,135075,1495857170,929106950,0,88,412,389,276,142,104,59,64
2017/05/27/11:52:50.944127,135076,1495857170,943932056,0,95,430,391,276,155,99,64,63
2017/05/27/11:52:50.968272,135077,1495857170,967991113,0,101,438,476,314,169,97,61,59
2017/05/27/11:52:50.981667,135078,1495857170,981451988,0,100,465,480,280,162,99,59,56
2017/05/27/11:52:51.004218,135079,1495857171,4021883,0,100,455,494,285,162,92,59,56
2017/05/27/11:52:51.026619,135080,1495857171,26487112,0,99,465,496,266,156,74,54,53
2017/05/27/11:52:51.057473,135081,1495857171,57279109,0,95,461,498,264,149,81,49,50
2017/05/27/11:52:51.065826,135082,1495857171,65628051,0,83,446,420,218,126,74,47,47
2017/05/27/11:52:51.086658,135083,1495857171,86524963,0,73,399,325,246,144,71,54,50
2017/05/27/11:52:51.109215,135084,1495857171,109061956,0,71,421,312,243,134,72,49,49
2017/05/27/11:52:51.124150,135085,1495857171,123986005,0,75,490,301,246,130,65,48,49
2017/05/27/11:52:51.146779,135086,1495857171,146507024,0,73,484,281,226,114,61,50,45
2017/05/27/11:52:51.169178,135087,1495857171,169029951,0,70,416,251,222,108,70,51,44
2017/05/27/11:52:51.184076,135088,1495857171,183919906,0,70,424,254,187,83,65,45,41
2017/05/27/11:52:51.206703,135089,1495857171,206532001,0,70,395,237,192,101,73,47,44
2017/05/27/11:52:51.229260,135090,1495857171,229016065,0,66,305,246,191,106,79,46,40
2017/05/27/11:52:51.245700,135091,1495857171,245414018,0,66,328,289,206,110,75,44,45
2017/05/27/11:52:51.266649,135092,1495857171,266490936,0,70,342,308,211,114,74,49,46
2017/05/27/11:52:51.290959,135093,1495857171,288996934,0,65,296,319,204,105,77,46,43
2017/05/27/11:52:51.305688,135094,1495857171,305418014,0,69,330,370,222,104,82,51,46
2017/05/27/11:52:51.326688,135095,1495857171,326474905,0,67,344,366,217,98,79,51,51
2017/05/27/11:52:51.349247,135096,1495857171,349019050,0,68,348,348,217,96,84,51,50
2017/05/27/11:52:51.364119,135097,1495857171,363929033,0,75,388,398,235,106,82,49,56
2017/05/27/11:52:51.386702,135098,1495857171,386507034,0,73,376,370,231,111,83,52,59
2017/05/27/11:52:51.409199,135099,1495857171,409018039,0,79,454,354,210,100,71,47,56
2017/05/27/11:52:51.424262,135100,1495857171,424021959,0,81,473,373,204,101,73,48,54
2017/05/27/11:52:51.446678,135101,1495857171,446456909,0,83,460,371,220,116,71,46,51
2017/05/27/11:52:51.469331,135102,1495857171,469054937,0,79,465,318,193,109,68,45,46
2017/05/27/11:52:51.484148,135103,1495857171,483947992,0,81,458,328,200,117,75,47,50
2017/05/27/11:52:51.506714,135104,1495857171,506500959,0,74,403,294,191,114,76,49,50
2017/05/27/11:52:51.529262,135105,1495857171,529000997,0,72,367,293,245,123,72,49,52
2017/05/27/11:52:51.544168,135106,1495857171,543942928,0,67,404,314,233,120,67,52,53
2017/05/27/11:52:51.566650,135107,1495857171,566477060,0,78,451,308,246,116,66,50,52
2017/05/27/11:52:51.589236,135108,1495857171,589006900,0,84,469,323,248,111,62,46,46
2017/05/27/11:52:51.611894,135109,1495857171,611569881,0,82,450,365,265,118,70,47,47
2017/05/27/11:52:51.635134,135110,1495857171,634676933,0,81,444,341,219,105,75,43,42
2017/05/27/11:52:51.649153,135111,1495857171,648953914,0,85,409,315,211,98,86,42,38
2017/05/27/11:52:51.664142,135112,1495857171,663954019,0,72,318,317,191,102,95,46,41
2017/05/27/11:52:51.686752,135113,1495857171,686470031,0,69,361,309,191,98,95,49,46
2017/05/27/11:52:51.709195,135114,1495857171,708980083,0,73,362,314,205,101,94,49,45
2017/05/27/11:52:51.724180,135115,1495857171,723995923,0,78,397,328,205,103,92,55,52
2017/05/27/11:52:51.746653,135116,1495857171,746458053,0,83,429,347,205,113,87,55,55
2017/05/27/11:52:51.777468,135117,1495857171,777257919,0,84,436,355,244,115,79,53,53
2017/05/27/11:52:51.784361,135118,1495857171,784059047,0,81,409,385,293,136,78,51,49
2017/05/27/11:52:51.806817,135119,1495857171,806514024,0,92,435,378,287,134,71,53,53
2017/05/27/11:52:51.829185,135120,1495857171,828990936,0,92,419,395,297,134,74,52,49
2017/05/27/11:52:51.844201,135121,1495857171,843986988,0,93,458,396,297,129,66,53,49
2017/05/27/11:52:51.866709,135122,1495857171,866555929,0,100,503,407,274,139,78,54,53
2017/05/27/11:52:51.889181,135123,1495857171,888973951,0,103,511,366,216,129,81,54,54
2017/05/27/11:52:51.905625,135124,1495857171,905422925,0,101,571,363,215,153,106,61,61
2017/05/27/11:52:51.926608,135125,1495857171,926449060,0,102,575,337,200,158,108,61,61
2017/05/27/11:52:51.949224,135126,1495857171,949019908,0,105,589,323,201,153,109,58,60
2017/05/27/11:52:51.971760,135127,1495857171,971503973,0,96,543,332,217,156,117,67,62
2017/05/27/11:52:51.987001,135128,1495857171,986687898,0,93,563,337,227,160,114,69,65
2017/05/27/11:52:52.012729,135129,1495857172,9007930,0,81,470,293,204,128,93,58,54
2017/05/27/11:52:52.031666,135130,1495857172,31477928,0,78,478,283,204,128,96,55,53
2017/05/27/11:52:52.046647,135131,1495857172,46474933,0,69,454,312,220,128,95,55,52
2017/05/27/11:52:52.073228,135132,1495857172,73039054,0,75,477,281,209,120,77,42,50
2017/05/27/11:52:52.091736,135133,1495857172,91517925,0,74,433,272,190,100,74,37,43
2017/05/27/11:52:52.106575,135134,1495857172,106420040,0,73,434,287,203,119,76,44,55
2017/05/27/11:52:52.129108,135135,1495857172,128926992,0,83,429,385,261,134,68,47,55
2017/05/27/11:52:52.151670,135136,1495857172,151458024,0,91,436,360,239,136,76,50,55
2017/05/27/11:52:52.166910,135137,1495857172,166506052,0,95,458,348,229,132,74,49,52
2017/05/27/11:52:52.189162,135138,1495857172,188986063,0,97,456,350,236,137,70,52,56
2017/05/27/11:52:52.211627,135139,1495857172,211446046,0,96,464,367,242,129,67,50,49
2017/05/27/11:52:52.226579,135140,1495857172,226452112,0,89,501,265,174,108,63,50,50
2017/05/27/11:52:52.249125,135141,1495857172,248975992,0,89,483,281,201,113,53,46,50
2017/05/27/11:52:52.271908,135142,1495857172,271665096,0,76,426,303,195,105,51,44,48
2017/05/27/11:52:52.286615,135143,1495857172,286452054,0,83,438,322,206,113,63,47,46
2017/05/27/11:52:52.309221,135144,1495857172,308994054,0,86,451,292,200,108,63,47,46
2017/05/27/11:52:52.332266,135145,1495857172,331655025,0,84,399,318,214,110,70,46,43
2017/05/27/11:52:52.354128,135146,1495857172,353944063,0,85,391,332,215,126,76,51,45
2017/05/27/11:52:52.369378,135147,1495857172,369045972,0,88,462,334,242,144,77,53,48
2017/05/27/11:52:52.392092,135148,1495857172,391948938,0,87,497,352,247,148,73,47,47
2017/05/27/11:52:52.406595,135149,1495857172,406440019,0,85,480,361,246,157,75,45,48
2017/05/27/11:52:52.430662,135150,1495857172,430457115,0,96,543,354,264,161,72,43,47
2017/05/27/11:52:52.451657,135151,1495857172,451481103,0,89,524,323,252,145,72,42,50
2017/05/27/11:52:52.468163,135152,1495857172,467948913,0,91,495,305,237,132,70,41,48
2017/05/27/11:52:52.489142,135153,1495857172,488974094,0,108,531,299,238,128,76,47,49
2017/05/27/11:52:52.519906,135154,1495857172,519671916,0,112,541,286,223,135,98,57,49
2017/05/27/11:52:52.526671,135155,1495857172,526478052,0,102,495,274,220,133,99,57,50
2017/05/27/11:52:52.564882,135156,1495857172,564708948,0,111,585,280,229,132,94,58,45
2017/05/27/11:52:52.571711,135157,1495857172,571499109,0,110,582,269,219,127,94,58,46
2017/05/27/11:52:52.586663,135158,1495857172,586437940,0,97,562,259,207,118,88,54,44
2017/05/27/11:52:52.609111,135159,1495857172,608911037,0,111,599,339,240,127,62,46,46
2017/05/27/11:52:52.631801,135160,1495857172,631556987,0,117,603,325,214,128,63,46,49
2017/05/27/11:52:52.646688,135161,1495857172,646465063,0,115,544,316,193,135,70,43,48
2017/05/27/11:52:52.669214,135162,1495857172,669013977,0,118,587,335,217,148,76,48,49
2017/05/27/11:52:52.691696,135163,1495857172,691476106,0,108,529,356,221,148,76,48,48
2017/05/27/11:52:52.706636,135164,1495857172,706451892,0,94,518,319,204,126,74,46,44
2017/05/27/11:52:52.729275,135165,1495857172,729023933,0,88,485,317,198,120,66,44,39
2017/05/27/11:52:52.751630,135166,1495857172,751460075,0,77,431,314,212,111,67,48,41
2017/05/27/11:52:52.766690,135167,1495857172,766521930,0,71,366,310,206,104,68,45,42
2017/05/27/11:52:52.797323,135168,1495857172,797169923,0,72,373,292,208,110,70,44,41
2017/05/27/11:52:52.811588,135169,1495857172,811433076,0,70,329,243,188,105,70,42,40
2017/05/27/11:52:52.826542,135170,1495857172,826423883,0,69,340,309,233,117,83,49,46
2017/05/27/11:52:52.858888,135171,1495857172,858654975,0,67,367,313,222,122,79,49,51
2017/05/27/11:52:52.871609,135172,1495857172,871464014,0,70,345,339,245,121,74,51,50
2017/05/27/11:52:52.894248,135173,1495857172,894048929,0,72,353,314,231,119,72,55,55
2017/05/27/11:52:52.910578,135174,1495857172,910418033,0,68,343,334,239,128,69,55,54
2017/05/27/11:52:52.931788,135175,1495857172,931535959,0,71,343,275,194,123,60,51,53
2017/05/27/11:52:52.970551,135176,1495857172,970341920,0,71,349,276,200,118,62,51,49
2017/05/27/11:52:52.972006,135177,1495857172,971869945,0,93,419,302,176,118,59,48,50
2017/05/27/11:52:52.991581,135178,1495857172,991449117,0,93,435,313,180,116,60,46,45
2017/05/27/11:52:53.022411,135179,1495857173,22222042,0,99,443,300,170,105,67,47,49
2017/05/27/11:52:53.029107,135180,1495857173,28970956,0,107,465,321,180,100,67,48,47
2017/05/27/11:52:53.051656,135181,1495857173,51503896,0,110,438,346,180,99,65,44,46
2017/05/27/11:52:53.074286,135182,1495857173,74074029,0,90,414,284,165,98,67,46,43
2017/05/27/11:52:53.089067,135183,1495857173,88934898,0,97,487,275,164,96,69,48,46
2017/05/27/11:52:53.111603,135184,1495857173,111459970,0,90,489,291,191,106,64,46,42
2017/05/27/11:52:53.135895,135185,1495857173,135761022,0,81,505,277,190,110,66,46,42
2017/05/27/11:52:53.149095,135186,1495857173,148947000,0,76,510,249,189,109,65,49,39
2017/05/27/11:52:53.171767,135187,1495857173,171520948,0,84,472,275,214,127,66,49,46
2017/05/27/11:52:53.194090,135188,1495857173,193949937,0,78,372,280,210,125,63,43,42
2017/05/27/11:52:53.209286,135189,1495857173,209022998,0,77,375,276,198,121,65,44,43
2017/05/27/11:52:53.247516,135190,1495857173,247268915,0,75,322,273,197,121,65,42,42
2017/05/27/11:52:53.254186,135191,1495857173,253993034,0,79,329,290,205,126,62,38,42
2017/05/27/11:52:53.269125,135192,1495857173,268964052,0,67,352,260,170,122,66,36,35
2017/05/27/11:52:53.301286,135193,1495857173,301098108,0,61,345,281,180,121,67,40,36
2017/05/27/11:52:53.314184,135194,1495857173,313994884,0,60,348,293,172,119,65,40,37
2017/05/27/11:52:53.329141,135195,1495857173,328958034,0,61,366,290,163,120,67,40,40
2017/05/27/11:52:53.353214,135196,1495857173,352973937,0,55,363,262,156,115,69,42,40
2017/05/27/11:52:53.374164,135197,1495857173,373975038,0,55,356,298,172,88,60,42,40
2017/05/27/11:52:53.392845,135198,1495857173,388976097,0,58,360,309,189,97,60,42,43
2017/05/27/11:52:53.413128,135199,1495857173,412925004,0,60,341,306,189,90,56,46,43
2017/05/27/11:52:53.434207,135200,1495857173,433985948,0,63,355,321,191,82,49,45,38
2017/05/27/11:52:53.449300,135201,1495857173,449021100,0,65,382,354,193,84,49,46,39
2017/05/27/11:52:53.473160,135202,1495857173,472970008,0,64,425,347,180,85,58,46,39
2017/05/27/11:52:53.494313,135203,1495857173,494043111,0,83,535,335,176,105,65,46,39
2017/05/27/11:52:53.525498,135204,1495857173,525012969,0,84,527,371,211,112,65,44,39
2017/05/27/11:52:53.531701,135205,1495857173,531455993,0,95,562,380,220,115,65,45,43
2017/05/27/11:52:53.554307,135206,1495857173,554043054,0,103,585,399,222,121,65,44,43
2017/05/27/11:52:53.570790,135207,1495857173,570493936,0,114,604,390,233,130,65,46,44
2017/05/27/11:52:53.591564,135208,1495857173,591401100,0,103,556,400,230,109,54,42,40
2017/05/27/11:52:53.614135,135209,1495857173,613954067,0,108,592,368,199,105,56,43,40
2017/05/27/11:52:53.638157,135210,1495857173,637907981,0,102,564,341,186,102,54,44,36
2017/05/27/11:52:53.651719,135211,1495857173,651550054,0,96,552,308,188,100,56,44,35
2017/05/27/11:52:53.690623,135212,1495857173,690392971,0,89,506,323,181,97,55,43,35
2017/05/27/11:52:53.692066,135213,1495857173,691910028,0,95,513,305,165,99,58,47,36
2017/05/27/11:52:53.711747,135214,1495857173,711426019,0,88,483,301,166,104,57,47,38
2017/05/27/11:52:53.742465,135215,1495857173,742172002,0,80,465,316,184,103,54,45,38
2017/05/27/11:52:53.749119,135216,1495857173,748970031,0,76,418,286,169,93,49,44,38
2017/05/27/11:52:53.771513,135217,1495857173,771382093,0,72,388,263,183,97,46,43,39
2017/05/27/11:52:53.802429,135218,1495857173,802160978,0,68,378,255,212,103,49,42,42
2017/05/27/11:52:53.809234,135219,1495857173,809039115,0,65,388,251,220,106,49,41,41
2017/05/27/11:52:53.831759,135220,1495857173,831552028,0,79,436,244,224,115,53,45,44
2017/05/27/11:52:53.855615,135221,1495857173,855452060,0,82,444,304,256,132,58,47,46
2017/05/27/11:52:53.884962,135222,1495857173,884723901,0,87,471,345,265,132,57,50,47
2017/05/27/11:52:53.891628,135223,1495857173,891438007,0,84,422,342,251,129,56,52,47
2017/05/27/11:52:53.915553,135224,1495857173,915364980,0,87,416,342,246,124,54,50,46
2017/05/27/11:52:53.936713,135225,1495857173,936481952,0,75,341,362,238,116,52,47,43
2017/05/27/11:52:53.967363,135226,1495857173,967170000,0,74,368,321,209,115,50,47,45
2017/05/27/11:52:53.977115,135227,1495857173,976994991,0,68,378,274,204,106,50,44,44
2017/05/27/11:52:53.996682,135228,1495857173,996491909,0,70,415,279,193,109,49,42,40
2017/05/27/11:52:54.035626,135229,1495857174,35489082,0,70,407,269,185,107,51,43,40
2017/05/27/11:52:54.042247,135230,1495857174,42118072,0,71,423,243,189,109,57,48,41
2017/05/27/11:52:54.056511,135231,1495857174,56391954,0,73,418,244,179,87,53,44,37
2017/05/27/11:52:54.077496,135232,1495857174,77367067,0,74,412,278,186,108,55,46,37
2017/05/27/11:52:54.094398,135233,1495857174,94063043,0,67,377,282,196,105,54,43,38
2017/05/27/11:52:54.132821,135234,1495857174,132606029,0,70,392,294,211,110,56,44,40
2017/05/27/11:52:54.139140,135235,1495857174,138942956,0,66,410,324,229,121,56,40,41
2017/05/27/11:52:54.154352,135236,1495857174,154099941,0,62,423,324,235,126,55,39,40
2017/05/27/11:52:54.184876,135237,1495857174,184696912,0,60,432,296,214,115,55,37,39
2017/05/27/11:52:54.191720,135238,1495857174,191474914,0,64,421,304,223,124,56,41,41
2017/05/27/11:52:54.214505,135239,1495857174,214169025,0,57,389,277,209,123,52,38,38
2017/05/27/11:52:54.244846,135240,1495857174,244642019,0,59,361,314,199,141,56,42,43
2017/05/27/11:52:54.251721,135241,1495857174,251507997,0,76,421,334,200,141,58,45,44
2017/05/27/11:52:54.274479,135242,1495857174,274111032,0,71,387,332,197,131,56,46,42
2017/05/27/11:52:54.296762,135243,1495857174,296539068,0,68,381,311,183,126,54,43,40
2017/05/27/11:52:54.311843,135244,1495857174,311539888,0,76,439,337,192,130,58,46,40
2017/05/27/11:52:54.335741,135245,1495857174,335481882,0,79,473,342,193,108,52,42,33
2017/05/27/11:52:54.356770,135246,1495857174,356519937,0,69,408,344,207,104,50,40,30
2017/05/27/11:52:54.371574,135247,1495857174,371413946,0,82,450,360,206,115,51,39,35
2017/05/27/11:52:54.409914,135248,1495857174,409638881,0,81,446,352,198,122,61,42,35
2017/05/27/11:52:54.416604,135249,1495857174,416402101,0,75,397,338,212,118,64,41,37
2017/05/27/11:52:54.431687,135250,1495857174,431482076,0,85,391,337,248,122,74,52,46
2017/05/27/11:52:54.469871,135251,1495857174,469692945,0,81,352,325,234,124,76,56,47
2017/05/27/11:52:54.476640,135252,1495857174,476476907,0,72,320,313,238,114,76,58,48
2017/05/27/11:52:54.499162,135253,1495857174,498963117,0,76,337,337,283,130,76,58,52
2017/05/27/11:52:54.522474,135254,1495857174,522114038,0,75,377,325,269,131,71,56,50
2017/05/27/11:52:54.536612,135255,1495857174,536432981,0,62,350,244,221,117,60,46,43
2017/05/27/11:52:54.551919,135256,1495857174,551580905,0,62,359,306,260,131,63,41,44
2017/05/27/11:52:54.574186,135257,1495857174,573964118,0,70,392,320,258,157,71,46,48
2017/05/27/11:52:54.596683,135258,1495857174,596468925,0,77,459,306,213,135,62,45,43
2017/05/27/11:52:54.611557,135259,1495857174,611394882,0,86,471,338,221,138,66,51,45
2017/05/27/11:52:54.636248,135260,1495857174,635972023,0,84,458,351,228,139,65,51,46
2017/05/27/11:52:54.656810,135261,1495857174,656503915,0,84,466,276,175,129,63,53,45
2017/05/27/11:52:54.687307,135262,1495857174,687130928,0,73,440,247,170,109,65,48,39
2017/05/27/11:52:54.694100,135263,1495857174,693918943,0,76,414,272,168,107,65,48,41
2017/05/27/11:52:54.716633,135264,1495857174,716469049,0,73,394,235,149,107,61,41,38
2017/05/27/11:52:54.755712,135265,1495857174,755418062,0,73,389,225,141,103,58,41,35
2017/05/27/11:52:54.758972,135266,1495857174,758816003,0,78,418,274,153,107,61,44,38
2017/05/27/11:52:54.776682,135267,1495857174,776488065,0,95,477,334,179,108,60,49,40
2017/05/27/11:52:54.800696,135268,1495857174,800445079,0,85,446,318,183,117,60,47,41
2017/05/27/11:52:54.814098,135269,1495857174,813939094,0,80,427,318,184,111,63,51,44
2017/05/27/11:52:54.836788,135270,1495857174,836527109,0,91,522,339,218,136,68,55,53
2017/05/27/11:52:54.859132,135271,1495857174,858916044,0,93,526,333,226,134,68,53,52
2017/05/27/11:52:54.874155,135272,1495857174,873949050,0,78,450,272,201,127,67,53,52
2017/05/27/11:52:54.912599,135273,1495857174,912308931,0,79,486,331,226,122,67,55,53
2017/05/27/11:52:54.919354,135274,1495857174,919044971,0,84,495,361,250,132,64,51,51
2017/05/27/11:52:54.934453,135275,1495857174,934087038,0,79,491,333,220,110,61,48,45
2017/05/27/11:52:54.964866,135276,1495857174,964668035,0,78,477,330,221,103,56,45,41
2017/05/27/11:52:54.979066,135277,1495857174,978890895,0,88,541,369,251,104,47,37,37
2017/05/27/11:52:54.994320,135278,1495857174,993983030,0,90,533,372,247,112,47,43,41
2017/05/27/11:52:55.016621,135279,1495857175,16447067,0,92,566,363,245,126,52,47,44
2017/05/27/11:52:55.039423,135280,1495857175,39073944,0,101,562,365,240,131,57,47,44
2017/05/27/11:52:55.054496,135281,1495857175,54115056,0,102,575,417,278,157,68,54,49
2017/05/27/11:52:55.078067,135282,1495857175,77896118,0,95,535,404,255,155,72,58,57
2017/05/27/11:52:55.099339,135283,1495857175,99062919,0,93,503,353,235,148,73,53,56
2017/05/27/11:52:55.114197,135284,1495857175,113991022,0,89,478,344,215,149,82,54,55
2017/05/27/11:52:55.136806,135285,1495857175,136540889,0,80,417,386,251,149,81,52,55
2017/05/27/11:52:55.159192,135286,1495857175,158953905,0,77,399,316,203,125,74,46,52
2017/05/27/11:52:55.189836,135287,1495857175,189642906,0,75,406,287,197,130,73,39,43
2017/05/27/11:52:55.196583,135288,1495857175,196408987,0,76,418,310,224,128,78,39,43
2017/05/27/11:52:55.219097,135289,1495857175,218926906,0,74,424,323,233,103,73,39,40
2017/05/27/11:52:55.243331,135290,1495857175,243000030,0,71,421,281,196,92,71,39,38
2017/05/27/11:52:55.256577,135291,1495857175,256431102,0,65,404,269,183,93,72,38,37
2017/05/27/11:52:55.279313,135292,1495857175,279000043,0,90,515,305,224,107,80,42,43
2017/05/27/11:52:55.303120,135293,1495857175,302913904,0,95,521,289,215,122,75,43,43
2017/05/27/11:52:55.316624,135294,1495857175,316457033,0,92,486,254,203,120,66,37,41
2017/05/27/11:52:55.347840,135295,1495857175,347632884,0,96,527,238,205,122,70,37,45
2017/05/27/11:52:55.355627,135296,1495857175,355468988,0,103,572,256,214,125,69,39,48
2017/05/27/11:52:55.376814,135297,1495857175,376558065,0,88,466,339,240,119,61,43,49
2017/05/27/11:52:55.407336,135298,1495857175,407145977,0,81,462,345,235,136,70,46,46
2017/05/27/11:52:55.414110,135299,1495857175,413925886,0,79,467,346,237,134,73,48,47
2017/05/27/11:52:55.436811,135300,1495857175,436552047,0,85,445,346,238,153,81,51,46
2017/05/27/11:52:55.467368,135301,1495857175,467163085,0,76,378,343,238,149,79,50,45
2017/05/27/11:52:55.474098,135302,1495857175,473907947,0,70,368,244,172,136,77,44,42
2017/05/27/11:52:55.496851,135303,1495857175,496551036,0,70,354,228,175,110,70,43,46
2017/05/27/11:52:55.520520,135304,1495857175,520374059,0,70,357,233,177,133,75,45,47
2017/05/27/11:52:55.534089,135305,1495857175,533924102,0,55,316,229,167,110,57,42,45
2017/05/27/11:52:55.556720,135306,1495857175,556471109,0,67,346,226,171,110,58,41,41
2017/05/27/11:52:55.579570,135307,1495857175,579375028,0,75,404,209,169,107,56,38,40
2017/05/27/11:52:55.594075,135308,1495857175,593890905,0,77,424,196,141,102,51,35,35
2017/05/27/11:52:55.616686,135309,1495857175,616483926,0,81,443,197,130,72,36,34,35
2017/05/27/11:52:55.639042,135310,1495857175,638905048,0,102,498,256,162,71,38,40,58
2017/05/27/11:52:55.654118,135311,1495857175,653950929,0,102,483,257,148,77,44,43,68
2017/05/27/11:52:55.684856,135312,1495857175,684684038,0,98,442,246,146,85,44,48,73
2017/05/27/11:52:55.699153,135313,1495857175,698971033,0,109,448,239,164,103,52,52,81
2017/05/27/11:52:55.714122,135314,1495857175,713943958,0,110,448,242,180,112,56,50,82
2017/05/27/11:52:55.738012,135315,1495857175,737876892,0,98,380,178,163,111,58,46,72
2017/05/27/11:52:55.759173,135316,1495857175,759011983,0,89,389,157,169,106,53,43,63
2017/05/27/11:52:55.798133,135317,1495857175,797821044,0,85,373,148,171,100,52,39,55
2017/05/27/11:52:55.799494,135318,1495857175,799361944,0,70,325,146,150,79,44,50,59
2017/05/27/11:52:55.819325,135319,1495857175,818958997,0,68,288,115,124,67,50,78,80
2017/05/27/11:52:55.858660,135320,1495857175,858458995,0,54,268,112,112,62,46,81,75
2017/05/27/11:52:55.860215,135321,1495857175,860037088,0,55,228,99,92,58,45,109,83
2017/05/27/11:52:55.879310,135322,1495857175,879050016,0,54,209,94,81,55,45,114,83
2017/05/27/11:52:55.909814,135323,1495857175,909648895,0,58,292,95,77,52,45,110,74
2017/05/27/11:52:55.916622,135324,1495857175,916461944,0,56,290,89,72,41,35,99,57
2017/05/27/11:52:55.939051,135325,1495857175,938911914,0,55,280,73,61,38,38,130,69
2017/05/27/11:52:55.962202,135326,1495857175,961982965,0,52,272,87,54,36,38,111,63
2017/05/27/11:52:55.976611,135327,1495857175,976476907,0,60,271,102,46,44,100,189,89
2017/05/27/11:52:55.999120,135328,1495857175,998914957,0,51,175,104,40,43,103,192,90
2017/05/27/11:52:56.023060,135329,1495857176,22881031,0,49,181,114,40,42,104,191,85
2017/05/27/11:52:56.039534,135330,1495857176,39349079,0,47,166,114,38,41,103,171,75
2017/05/27/11:52:56.075166,135331,1495857176,74812889,0,46,151,98,37,40,104,170,73
2017/05/27/11:52:56.081615,135332,1495857176,81481933,0,36,139,75,34,26,47,72,53
2017/05/27/11:52:56.096718,135333,1495857176,96438884,0,40,159,59,33,26,36,58,47
2017/05/27/11:52:56.137404,135334,1495857176,137063980,0,41,136,40,32,25,32,47,46
2017/05/27/11:52:56.141716,135335,1495857176,141475915,0,46,127,40,29,27,31,63,51
2017/05/27/11:52:56.156881,135336,1495857176,156564950,0,53,200,56,33,26,28,60,53
2017/05/27/11:52:56.189599,135337,1495857176,189316987,0,51,212,65,36,27,28,53,36
2017/05/27/11:52:56.201804,135338,1495857176,201584100,0,48,190,84,56,30,28,54,38
2017/05/27/11:52:56.216566,135339,1495857176,216408014,0,51,203,138,108,46,30,54,38
2017/05/27/11:52:56.239265,135340,1495857176,239033937,0,48,204,143,116,49,30,32,29
2017/05/27/11:52:56.261740,135341,1495857176,261464118,0,41,141,148,116,49,27,30,25
2017/05/27/11:52:56.276699,135342,1495857176,276494026,0,72,197,234,164,70,35,30,34
2017/05/27/11:52:56.299091,135343,1495857176,298924922,0,72,201,235,167,72,36,30,33
2017/05/27/11:52:56.321596,135344,1495857176,321429967,0,82,189,218,158,70,35,31,32
2017/05/27/11:52:56.336575,135345,1495857176,336443901,0,104,195,254,174,68,34,28,36
2017/05/27/11:52:56.359105,135346,1495857176,358942031,0,109,194,264,187,71,34,29,37
2017/05/27/11:52:56.381762,135347,1495857176,381485939,0,96,123,216,160,53,26,26,29
2017/05/27/11:52:56.404241,135348,1495857176,404010057,0,99,125,214,158,50,26,25,29
2017/05/27/11:52:56.419113,135349,1495857176,418927907,0,90,132,231,152,54,29,25,29
2017/05/27/11:52:56.441695,135350,1495857176,441467046,0,161,164,232,137,61,32,27,33
2017/05/27/11:52:56.465551,135351,1495857176,465394020,0,200,174,218,126,60,33,28,34
2017/05/27/11:52:56.479092,135352,1495857176,478949069,0,206,167,199,114,60,35,27,33
2017/05/27/11:52:56.501769,135353,1495857176,501532077,0,209,201,205,119,63,35,26,33
2017/05/27/11:52:56.518140,135354,1495857176,517930030,0,219,216,196,111,57,32,24,34
2017/05/27/11:52:56.539092,135355,1495857176,538918972,0,171,203,167,105,49,29,25,30
2017/05/27/11:52:56.561567,135356,1495857176,561398983,0,174,204,200,120,49,26,23,29
2017/05/27/11:52:56.578210,135357,1495857176,577917098,0,181,207,207,135,52,27,26,29
2017/05/27/11:52:56.599038,135358,1495857176,598889112,0,189,180,198,128,48,24,29,31
2017/05/27/11:52:56.629872,135359,1495857176,629636049,0,183,161,180,120,45,23,28,31
2017/05/27/11:52:56.636713,135360,1495857176,636528968,0,183,150,171,121,47,24,25,39
2017/05/27/11:52:56.659228,135361,1495857176,659013032,0,282,183,146,118,51,30,28,53
2017/05/27/11:52:56.681634,135362,1495857176,681467056,0,290,204,156,111,50,30,25,55
2017/05/27/11:52:56.704229,135363,1495857176,703985929,0,289,204,159,109,51,31,23,56
2017/05/27/11:52:56.719159,135364,1495857176,718938112,0,286,202,160,109,51,30,25,55
2017/05/27/11:52:56.743192,135365,1495857176,742940902,0,285,197,156,107,48,29,26,49
2017/05/27/11:52:56.764272,135366,1495857176,763988018,0,177,162,163,105,48,27,27,44
2017/05/27/11:52:56.779051,135367,1495857176,778928995,0,169,141,181,111,48,24,28,46
2017/05/27/11:52:56.801593,135368,1495857176,801443099,0,160,129,191,117,49,22,28,43
2017/05/27/11:52:56.824069,135369,1495857176,823944091,0,158,138,219,130,50,26,27,45
2017/05/27/11:52:56.854796,135370,1495857176,854645013,0,165,143,268,159,60,30,28,46
2017/05/27/11:52:56.861595,135371,1495857176,861435890,0,225,170,256,149,54,28,25,36
2017/05/27/11:52:56.884331,135372,1495857176,884036064,0,217,168,235,139,49,29,23,33
2017/05/27/11:52:56.900585,135373,1495857176,900393009,0,215,169,244,143,47,31,22,35
2017/05/27/11:52:56.921672,135374,1495857176,921479940,0,225,169,236,140,47,30,21,33
2017/05/27/11:52:56.944173,135375,1495857176,943988084,0,215,173,184,120,41,27,21,30
2017/05/27/11:52:56.968050,135376,1495857176,967892885,0,109,141,182,120,42,26,21,29
2017/05/27/11:52:56.981578,135377,1495857176,981395006,0,95,148,229,140,57,32,24,26
2017/05/27/11:52:57.012541,135378,1495857177,12188911,0,133,160,229,144,64,35,24,29
2017/05/27/11:52:57.019085,135379,1495857177,18908977,0,125,164,229,149,66,33,25,29
2017/05/27/11:52:57.041564,135380,1495857177,41398048,0,127,152,221,136,63,34,26,32
2017/05/27/11:52:57.064173,135381,1495857177,63962936,0,134,158,228,152,67,34,25,37
2017/05/27/11:52:57.079181,135382,1495857177,78979969,0,136,153,187,138,56,31,26,39
2017/05/27/11:52:57.101633,135383,1495857177,101422071,0,129,154,173,126,49,27,27,36
2017/05/27/11:52:57.132322,135384,1495857177,132121086,0,131,174,154,119,54,29,26,35
2017/05/27/11:52:57.139112,135385,1495857177,138911962,0,129,190,174,138,56,29,25,34
2017/05/27/11:52:57.161726,135386,1495857177,161459922,0,135,199,163,126,54,29,27,28
2017/05/27/11:52:57.185593,135387,1495857177,185400009,0,135,206,151,118,51,25,25,31
2017/05/27/11:52:57.199097,135388,1495857177,198889017,0,134,198,156,117,52,26,24,32
2017/05/27/11:52:57.221935,135389,1495857177,221621990,0,123,173,165,115,45,26,24,34
2017/05/27/11:52:57.245569,135390,1495857177,245384931,0,122,165,189,117,50,26,27,35
2017/05/27/11:52:57.259275,135391,1495857177,259036064,0,103,150,193,113,49,27,27,37
2017/05/27/11:52:57.281718,135392,1495857177,281474113,0,97,134,191,112,51,29,27,34
2017/05/27/11:52:57.304172,135393,1495857177,303941965,0,48,129,179,108,49,27,26,34
2017/05/27/11:52:57.319163,135394,1495857177,318954944,0,48,150,221,123,49,27,25,34
2017/05/27/11:52:57.349909,135395,1495857177,349678039,0,54,169,188,107,50,29,25,38
2017/05/27/11:52:57.364193,135396,1495857177,363986015,0,59,179,181,104,50,31,24,37
2017/05/27/11:52:57.379173,135397,1495857177,378933906,0,58,174,185,102,47,29,23,36
2017/05/27/11:52:57.401622,135398,1495857177,401416063,0,59,175,196,103,48,32,24,34
2017/05/27/11:52:57.424299,135399,1495857177,423998117,0,57,148,142,85,47,32,25,34
2017/05/27/11:52:57.439551,135400,1495857177,439101934,0,45,140,148,79,38,29,21,28
2017/05/27/11:52:57.461701,135401,1495857177,461443901,0,35,126,157,80,39,25,20,26
2017/05/27/11:52:57.484132,135402,1495857177,483931064,0,33,133,151,81,40,25,20,26
2017/05/27/11:52:57.499111,135403,1495857177,498894929,0,31,136,139,81,39,23,20,27
2017/05/27/11:52:57.521949,135404,1495857177,521632909,0,29,150,141,77,34,22,20,25
2017/05/27/11:52:57.544145,135405,1495857177,543844938,0,26,122,144,99,36,23,20,23
2017/05/27/11:52:57.574780,135406,1495857177,574584007,0,27,118,140,105,33,26,19,21
2017/05/27/11:52:57.582197,135407,1495857177,581496953,0,28,112,139,103,33,26,20,22
2017/05/27/11:52:57.604094,135408,1495857177,603925943,0,28,119,138,103,34,26,20,21
2017/05/27/11:52:57.619122,135409,1495857177,618921995,0,26,111,164,119,36,26,21,22
2017/05/27/11:52:57.641596,135410,1495857177,641395092,0,28,124,185,116,36,24,21,22
2017/05/27/11:52:57.664106,135411,1495857177,663902997,0,30,124,189,117,37,24,22,24
2017/05/27/11:52:57.688101,135412,1495857177,687923908,0,29,130,210,129,41,26,21,24
2017/05/27/11:52:57.701664,135413,1495857177,701510906,0,30,125,212,132,42,28,23,24
2017/05/27/11:52:57.739829,135414,1495857177,739613056,0,30,124,197,132,43,27,22,22
2017/05/27/11:52:57.746641,135415,1495857177,746448040,0,31,121,178,130,41,28,23,23
2017/05/27/11:52:57.761624,135416,1495857177,761435985,0,30,117,184,126,42,28,24,23
2017/05/27/11:52:57.784047,135417,1495857177,783902883,0,33,118,167,121,41,28,24,23
2017/05/27/11:52:57.806761,135418,1495857177,806463956,0,33,109,164,121,42,26,22,23
2017/05/27/11:52:57.821560,135419,1495857177,821379899,0,35,97,150,103,44,27,21,23
2017/05/27/11:52:57.852300,135420,1495857177,852114915,0,34,87,143,105,48,28,19,22
2017/05/27/11:52:57.866583,135421,1495857177,866416931,0,34,94,140,108,47,29,18,23
2017/05/27/11:52:57.881562,135422,1495857177,881407022,0,33,93,140,104,45,29,20,26
2017/05/27/11:52:57.904326,135423,1495857177,904026031,0,30,89,139,102,44,30,19,27
2017/05/27/11:52:57.926716,135424,1495857177,926487922,0,29,112,135,99,38,27,20,26
2017/05/27/11:52:57.941536,135425,1495857177,941391944,0,29,116,129,95,39,27,21,26
2017/05/27/11:52:57.964107,135426,1495857177,963912963,0,30,114,114,87,38,25,22,26
2017/05/27/11:52:57.986600,135427,1495857177,986424922,0,29,106,117,89,36,26,21,25
2017/05/27/11:52:58.001572,135428,1495857178,1389026,0,28,107,118,91,36,26,22,25
2017/05/27/11:52:58.024214,135429,1495857178,23963928,0,27,80,112,88,37,28,21,24
2017/05/27/11:52:58.046569,135430,1495857178,46381950,0,26,68,100,70,32,26,20,26
2017/05/27/11:52:58.061591,135431,1495857178,61398029,0,27,77,100,65,30,26,20,24
2017/05/27/11:52:58.084259,135432,1495857178,84038972,0,25,73,90,59,30,24,19,22
2017/05/27/11:52:58.106800,135433,1495857178,106492042,0,25,71,86,71,29,22,20,21
2017/05/27/11:52:58.121611,135434,1495857178,121424913,0,25,67,92,73,29,21,19,21
2017/05/27/11:52:58.144132,135435,1495857178,143922090,0,25,67,98,72,36,25,21,22
2017/05/27/11:52:58.166599,135436,1495857178,166412115,0,23,51,96,75,39,24,20,24
2017/05/27/11:52:58.181656,135437,1495857178,181436061,0,22,50,85,75,42,24,23,28
2017/05/27/11:52:58.204111,135438,1495857178,203953027,0,23,48,77,55,41,23,24,30
2017/05/27/11:52:58.226792,135439,1495857178,226547002,0,22,49,114,108,47,28,25,30
2017/05/27/11:52:58.243088,135440,1495857178,242925882,0,23,56,119,115,42,25,23,27
2017/05/27/11:52:58.264315,135441,1495857178,264010906,0,27,50,117,114,39,25,24,26
2017/05/27/11:52:58.286639,135442,1495857178,286448001,0,27,52,130,116,43,30,23,23
2017/05/27/11:52:58.301612,135443,1495857178,301430940,0,28,57,151,131,46,31,23,20
2017/05/27/11:52:58.324135,135444,1495857178,323918104,0,30,65,122,91,40,27,24,22
2017/05/27/11:52:58.346627,135445,1495857178,346462011,0,29,71,126,95,43,28,23,22
2017/05/27/11:52:58.361589,135446,1495857178,361382961,0,27,75,130,97,44,28,22,21
2017/05/27/11:52:58.384072,135447,1495857178,383882999,0,27,73,122,94,38,23,20,20
2017/05/27/11:52:58.406720,135448,1495857178,406474113,0,28,85,109,74,32,23,18,18
2017/05/27/11:52:58.421628,135449,1495857178,421412944,0,27,82,115,77,31,22,16,17
2017/05/27/11:52:58.444068,135450,1495857178,443905115,0,29,80,99,61,27,20,17,19
2017/05/27/11:52:58.466816,135451,1495857178,466564893,0,27,82,92,56,27,20,16,19
2017/05/27/11:52:58.481594,135452,1495857178,481425046,0,27,80,85,51,26,20,17,20
2017/05/27/11:52:58.504147,135453,1495857178,503922939,0,23,69,66,45,27,19,17,21
2017/05/27/11:52:58.526621,135454,1495857178,526413917,0,25,78,80,52,28,19,18,19
2017/05/27/11:52:58.541896,135455,1495857178,541475057,0,22,74,79,52,27,21,18,17
2017/05/27/11:52:58.573853,135456,1495857178,573610067,0,23,70,76,48,24,22,20,20
2017/05/27/11:52:58.586663,135457,1495857178,586471080,0,22,71,77,51,25,23,19,19
2017/05/27/11:52:58.609109,135458,1495857178,608963012,0,22,67,77,53,25,22,19,21
2017/05/27/11:52:58.632309,135459,1495857178,632141113,0,19,53,52,40,26,22,20,21
2017/05/27/11:52:58.646658,135460,1495857178,646446943,0,21,61,62,39,25,22,19,21
2017/05/27/11:52:58.669128,135461,1495857178,668945074,0,20,66,67,39,25,20,20,19
2017/05/27/11:52:58.684061,135462,1495857178,683900117,0,21,67,68,38,24,21,22,18
2017/05/27/11:52:58.706566,135463,1495857178,706422090,0,21,74,69,35,21,22,23,20
2017/05/27/11:52:58.729128,135464,1495857178,728920936,0,23,85,96,53,27,22,21,20
2017/05/27/11:52:58.744118,135465,1495857178,743921995,0,21,77,94,56,30,21,22,21
2017/05/27/11:52:58.766593,135466,1495857178,766429901,0,22,74,100,77,36,21,20,20
2017/05/27/11:52:58.789234,135467,1495857178,788924932,0,20,74,99,81,38,21,19,22
2017/05/27/11:52:58.804032,135468,1495857178,803877115,0,22,69,99,82,39,21,18,20
2017/05/27/11:52:58.826720,135469,1495857178,826502084,0,20,57,74,71,35,21,20,21
2017/05/27/11:52:58.849247,135470,1495857178,848989009,0,22,58,82,72,32,21,20,19
2017/05/27/11:52:58.864166,135471,1495857178,863971948,0,27,87,73,49,26,22,19,21
2017/05/27/11:52:58.886576,135472,1495857178,886415958,0,29,92,75,43,25,20,18,21
2017/05/27/11:52:58.909204,135473,1495857178,908968925,0,28,98,72,42,28,21,18,20
2017/05/27/11:52:58.924116,135474,1495857178,923932075,0,30,106,67,44,28,20,17,21
2017/05/27/11:52:58.946623,135475,1495857178,946429967,0,30,110,62,44,28,21,17,21
2017/05/27/11:52:58.977264,135476,1495857178,977142095,0,24,86,58,45,28,18,19,21
2017/05/27/11:52:58.984242,135477,1495857178,984006881,0,22,80,59,44,27,19,19,19
2017/05/27/11:52:59.006642,135478,1495857179,6433963,0,23,72,61,43,25,18,21,22
2017/05/27/11:52:59.029317,135479,1495857179,29025077,0,22,67,65,41,24,19,22,21
2017/05/27/11:52:59.044378,135480,1495857179,44054985,0,21,52,61,36,25,20,21,22
2017/05/27/11:52:59.074757,135481,1495857179,74582099,0,21,53,60,32,26,19,19,20
2017/05/27/11:52:59.089131,135482,1495857179,88922023,0,21,54,63,35,26,21,20,22
2017/05/27/11:52:59.104203,135483,1495857179,103931903,0,23,63,64,34,25,20,18,19
2017/05/27/11:52:59.126605,135484,1495857179,126440048,0,20,55,64,38,25,18,17,19
2017/05/27/11:52:59.149332,135485,1495857179,149133920,0,22,64,60,40,24,18,18,20
2017/05/27/11:52:59.164119,135486,1495857179,163918018,0,21,73,59,39,24,20,17,20
2017/05/27/11:52:59.188146,135487,1495857179,187901020,0,21,76,54,38,24,21,15,19
2017/05/27/11:52:59.209134,135488,1495857179,208977937,0,20,69,58,39,26,22,16,20
2017/05/27/11:52:59.239862,135489,1495857179,239630937,0,23,68,68,38,25,22,16,21
2017/05/27/11:52:59.246537,135490,1495857179,246402978,0,26,76,65,38,26,22,17,21
2017/05/27/11:52:59.269212,135491,1495857179,268995046,0,26,70,68,40,25,19,17,20
2017/05/27/11:52:59.284097,135492,1495857179,283921003,0,27,79,69,41,25,19,18,21
2017/05/27/11:52:59.306659,135493,1495857179,306441068,0,26,81,65,39,22,20,19,20
2017/05/27/11:52:59.329324,135494,1495857179,329041957,0,25,81,57,39,26,21,20,21
2017/05/27/11:52:59.351588,135495,1495857179,351416110,0,20,65,55,37,25,20,19,20
2017/05/27/11:52:59.366678,135496,1495857179,366482019,0,20,73,57,38,26,21,19,20
2017/05/27/11:52:59.389174,135497,1495857179,388972997,0,21,68,57,38,24,21,19,20
2017/05/27/11:52:59.404105,135498,1495857179,403877973,0,21,67,54,38,27,20,16,19
2017/05/27/11:52:59.426643,135499,1495857179,426414966,0,23,66,48,34,26,18,17,17
2017/05/27/11:52:59.449092,135500,1495857179,448901891,0,23,66,51,34,28,19,18,17
2017/05/27/11:52:59.465709,135501,1495857179,465364933,0,23,60,50,32,27,20,18,17
2017/05/27/11:52:59.486675,135502,1495857179,486398935,0,22,57,47,30,29,21,18,18
2017/05/27/11:52:59.517358,135503,1495857179,517187118,0,23,55,53,32,29,21,19,18
2017/05/27/11:52:59.531945,135504,1495857179,531574964,0,23,54,49,31,26,23,19,19
2017/05/27/11:52:59.546622,135505,1495857179,546422004,0,23,62,54,32,25,23,19,19
2017/05/27/11:52:59.569718,135506,1495857179,569509029,0,25,57,58,34,25,25,19,21
2017/05/27/11:52:59.591887,135507,1495857179,591583013,0,25,47,61,35,25,24,19,20
2017/05/27/11:52:59.606529,135508,1495857179,606369018,0,24,54,58,32,24,25,20,20
2017/05/27/11:52:59.629135,135509,1495857179,628940105,0,23,59,59,33,23,24,18,20
2017/05/27/11:52:59.651649,135510,1495857179,651438951,0,24,54,54,32,26,25,19,22
2017/05/27/11:52:59.682499,135511,1495857179,682288885,0,24,53,50,31,25,23,21,19
2017/05/27/11:52:59.689069,135512,1495857179,688905954,0,23,54,68,35,23,22,21,19
2017/05/27/11:52:59.711628,135513,1495857179,711429119,0,23,49,67,36,24,22,20,19
2017/05/27/11:52:59.726604,135514,1495857179,726421117,0,24,50,68,36,24,21,21,20
2017/05/27/11:52:59.749146,135515,1495857179,748961925,0,22,44,65,35,22,19,21,18
2017/05/27/11:52:59.771770,135516,1495857179,771493911,0,22,51,62,34,22,21,20,19
2017/05/27/11:52:59.794124,135517,1495857179,793921947,0,23,55,34,25,22,23,20,20
2017/05/27/11:52:59.809128,135518,1495857179,808948040,0,23,54,41,31,22,23,19,20
2017/05/27/11:52:59.831575,135519,1495857179,831401109,0,22,58,55,35,25,24,19,19
2017/05/27/11:52:59.848026,135520,1495857179,847839117,0,24,65,56,34,24,25,20,19
2017/05/27/11:52:59.869114,135521,1495857179,868933916,0,22,61,57,35,22,22,19,20
2017/05/27/11:52:59.891650,135522,1495857179,891478061,0,23,56,58,35,22,20,20,19
2017/05/27/11:52:59.907970,135523,1495857179,907830953,0,23,56,54,30,21,21,20,19
2017/05/27/11:52:59.929179,135524,1495857179,929007053,0,23,47,38,27,19,21,20,18
2017/05/27/11:52:59.959809,135525,1495857179,959641933,0,21,37,44,28,18,20,18,19
2017/05/27/11:52:59.966495,135526,1495857179,966384887,0,22,52,43,27,21,20,19,19
2017/05/27/11:52:59.989085,135527,1495857179,988925933,0,25,80,45,27,22,23,18,22
2017/05/27/11:53:00.011665,135528,1495857180,11461973,0,26,83,42,26,22,22,21,22
2017/05/27/11:53:00.026609,135529,1495857180,26422977,0,26,86,45,29,21,21,20,21
2017/05/27/11:53:00.049151,135530,1495857180,48921108,0,25,87,46,33,21,22,20,21
2017/05/27/11:53:00.071766,135531,1495857180,71479082,0,25,80,51,36,21,22,19,22
2017/05/27/11:53:00.088044,135532,1495857180,87877035,0,21,64,48,37,21,19,20,19
2017/05/27/11:53:00.109162,135533,1495857180,108932971,0,20,70,49,37,22,18,19,18
2017/05/27/11:53:00.131727,135534,1495857180,131436109,0,22,72,45,34,23,19,19,21
2017/05/27/11:53:00.146644,135535,1495857180,146439075,0,22,72,39,30,24,18,19,21
2017/05/27/11:53:00.169091,135536,1495857180,168935060,0,22,72,33,28,24,17,19,19
2017/05/27/11:53:00.191754,135537,1495857180,191437005,0,22,62,38,27,23,23,21,20
2017/05/27/11:53:00.206847,135538,1495857180,206418037,0,22,57,38,25,23,22,20,20
2017/05/27/11:53:00.229319,135539,1495857180,229043006,0,17,55,58,32,24,21,21,20
2017/05/27/11:53:00.251626,135540,1495857180,251437902,0,19,54,65,37,25,23,20,21
2017/05/27/11:53:00.266556,135541,1495857180,266396999,0,18,53,70,39,26,24,20,21
2017/05/27/11:53:00.289267,135542,1495857180,288971900,0,20,59,69,38,25,18,16,20
2017/05/27/11:53:00.311753,135543,1495857180,311397075,0,19,55,69,38,25,17,17,21
2017/05/27/11:53:00.328695,135544,1495857180,326378107,0,20,57,55,33,23,18,17,19
2017/05/27/11:53:00.349153,135545,1495857180,348915100,0,18,54,45,30,23,17,17,18
2017/05/27/11:53:00.371535,135546,1495857180,371392011,0,18,55,39,27,21,19,19,18
2017/05/27/11:53:00.386577,135547,1495857180,386437892,0,18,46,37,29,20,20,19,19
2017/05/27/11:53:00.409107,135548,1495857180,408902883,0,19,60,41,30,22,22,18,19
2017/05/27/11:53:00.431539,135549,1495857180,431397914,0,18,52,50,32,22,22,18,23
2017/05/27/11:53:00.446589,135550,1495857180,446398019,0,19,56,57,32,22,24,18,22
2017/05/27/11:53:00.469017,135551,1495857180,468899965,0,17,57,57,33,23,22,18,21
2017/05/27/11:53:00.491767,135552,1495857180,491549015,0,19,56,58,31,23,21,20,21
2017/05/27/11:53:00.514210,135553,1495857180,513956069,0,21,52,58,33,21,20,20,21
2017/05/27/11:53:00.529093,135554,1495857180,528929948,0,23,61,58,29,19,21,20,15
2017/05/27/11:53:00.551579,135555,1495857180,551419973,0,22,59,55,31,19,17,21,16
2017/05/27/11:53:00.574057,135556,1495857180,573896884,0,24,58,58,33,19,17,21,17
2017/05/27/11:53:00.589073,135557,1495857180,588882923,0,24,59,59,35,21,18,21,19
2017/05/27/11:53:00.611562,135558,1495857180,611362934,0,23,58,56,33,22,19,20,18
2017/05/27/11:53:00.642531,135559,1495857180,642215967,0,22,49,47,32,23,20,20,21
2017/05/27/11:53:00.657232,135560,1495857180,657084941,0,22,64,52,39,25,21,20,20
2017/05/27/11:53:00.671748,135561,1495857180,671471118,0,22,68,64,43,26,20,20,20
2017/05/27/11:53:00.694251,135562,1495857180,693994045,0,20,70,64,42,26,21,18,19
2017/05/27/11:53:00.709068,135563,1495857180,708908081,0,22,71,63,41,26,20,20,20
2017/05/27/11:53:00.731768,135564,1495857180,731501102,0,23,72,62,42,25,19,20,21
2017/05/27/11:53:00.754059,135565,1495857180,753899097,0,23,70,53,32,24,19,20,23
2017/05/27/11:53:00.769400,135566,1495857180,768996000,0,23,65,35,25,22,19,19,23
