time,.header.seq,.header.stamp.secs,.header.stamp.nsecs,.header.frame_id,.ch0,.ch1,.ch2,.ch3,.ch4,.ch5,.ch6,.ch7
2017/05/27/11:53:09.956575,136024,1495857189,956377983,0,51,53,97,76,40,59,136,89
2017/05/27/11:53:09.979105,136025,1495857189,978884935,0,52,53,98,77,41,61,138,89
2017/05/27/11:53:09.994110,136026,1495857189,993808031,0,50,39,62,47,32,63,137,88
2017/05/27/11:53:10.016524,136027,1495857190,16321897,0,47,31,57,40,31,67,159,138
2017/05/27/11:53:10.039033,136028,1495857190,38815975,0,195,64,54,40,35,75,166,142
2017/05/27/11:53:10.054051,136029,1495857190,53837060,0,213,85,69,52,39,64,165,152
2017/05/27/11:53:10.078155,136030,1495857190,77821969,0,215,93,82,64,51,65,171,156
2017/05/27/11:53:10.099086,136031,1495857190,98860025,0,219,107,84,76,53,64,172,158
2017/05/27/11:53:10.113963,136032,1495857190,113781929,0,249,120,149,134,72,61,147,100
2017/05/27/11:53:10.136483,136033,1495857190,136296033,0,198,168,203,191,81,57,121,91
2017/05/27/11:53:10.159016,136034,1495857190,158823013,0,223,239,314,274,97,50,88,74
2017/05/27/11:53:10.174217,136035,1495857190,173939943,0,232,270,359,325,113,53,73,66
2017/05/27/11:53:10.196577,136036,1495857190,196405887,0,238,273,378,345,121,59,70,60
2017/05/27/11:53:10.219098,136037,1495857190,218844890,0,283,314,421,366,129,61,58,64
2017/05/27/11:53:10.234069,136038,1495857190,233859062,0,363,418,474,397,149,63,46,67
2017/05/27/11:53:10.256611,136039,1495857190,256376028,0,348,418,421,360,155,64,47,68
2017/05/27/11:53:10.279043,136040,1495857190,278824090,0,351,437,406,319,151,65,49,70
2017/05/27/11:53:10.295648,136041,1495857190,295480012,0,371,450,408,302,152,68,50,74
2017/05/27/11:53:10.316569,136042,1495857190,316373109,0,370,428,369,299,161,70,45,70
2017/05/27/11:53:10.339024,136043,1495857190,338829994,0,281,370,302,229,146,63,41,60
2017/05/27/11:53:10.355949,136044,1495857190,355762958,0,288,387,314,221,138,64,41,60
2017/05/27/11:53:10.376519,136045,1495857190,376323938,0,309,368,332,249,138,73,40,62
2017/05/27/11:53:10.399174,136046,1495857190,398924112,0,307,396,364,292,153,87,48,65
2017/05/27/11:53:10.415484,136047,1495857190,415302038,0,299,406,378,260,144,96,59,68
2017/05/27/11:53:10.436587,136048,1495857190,436369895,0,300,365,390,287,152,103,60,67
2017/05/27/11:53:10.459020,136049,1495857190,458806991,0,337,311,406,299,162,110,59,66
2017/05/27/11:53:10.475564,136050,1495857190,475332975,0,374,363,384,284,164,106,59,72
2017/05/27/11:53:10.496603,136051,1495857190,496397018,0,361,391,359,246,151,90,51,64
2017/05/27/11:53:10.520518,136052,1495857190,520317077,0,370,393,362,308,158,94,50,60
2017/05/27/11:53:10.535671,136053,1495857190,535448074,0,423,403,377,323,169,102,58,71
2017/05/27/11:53:10.556493,136054,1495857190,556310892,0,516,470,358,310,162,105,61,89
2017/05/27/11:53:10.579186,136055,1495857190,578953027,0,511,420,377,328,175,105,61,84
2017/05/27/11:53:10.595535,136056,1495857190,595323085,0,535,415,469,406,203,117,67,89
2017/05/27/11:53:10.616682,136057,1495857190,616399049,0,553,420,461,362,199,109,61,92
2017/05/27/11:53:10.638975,136058,1495857190,638787984,0,592,491,451,335,196,109,55,90
2017/05/27/11:53:10.655569,136059,1495857190,655337095,0,560,480,495,361,213,110,54,98
2017/05/27/11:53:10.676503,136060,1495857190,676307916,0,550,531,530,366,203,110,54,101
2017/05/27/11:53:10.699116,136061,1495857190,698865890,0,543,488,451,288,190,106,51,106
2017/05/27/11:53:10.715494,136062,1495857190,715276002,0,528,518,469,293,191,111,51,102
2017/05/27/11:53:10.736498,136063,1495857190,736299991,0,458,497,459,314,203,107,56,102
2017/05/27/11:53:10.759087,136064,1495857190,758866071,0,439,455,427,300,186,108,61,95
2017/05/27/11:53:10.775482,136065,1495857190,775285959,0,546,457,413,317,188,106,65,109
2017/05/27/11:53:10.796526,136066,1495857190,796344041,0,534,479,428,314,176,105,66,102
2017/05/27/11:53:10.819117,136067,1495857190,818855047,0,601,446,400,316,164,106,68,105
2017/05/27/11:53:10.835816,136068,1495857190,835549116,0,638,459,407,300,142,104,63,103
2017/05/27/11:53:10.856518,136069,1495857190,856337070,0,590,546,432,321,139,101,59,89
2017/05/27/11:53:10.879114,136070,1495857190,878879070,0,569,505,459,299,139,113,64,74
2017/05/27/11:53:10.901673,136071,1495857190,901355028,0,590,532,476,325,134,107,59,79
2017/05/27/11:53:10.924794,136072,1495857190,924449920,0,511,524,468,317,134,102,55,74
2017/05/27/11:53:10.946514,136073,1495857190,946365118,0,536,483,454,313,131,94,56,73
2017/05/27/11:53:10.961559,136074,1495857190,961360931,0,543,400,401,273,125,88,51,72
2017/05/27/11:53:10.976465,136075,1495857190,976310014,0,480,414,351,274,108,68,36,72
2017/05/27/11:53:10.999177,136076,1495857190,998857975,0,464,376,308,245,115,68,38,66
2017/05/27/11:53:11.021855,136077,1495857191,21670103,0,483,479,397,261,124,69,39,73
2017/05/27/11:53:11.036529,136078,1495857191,36348104,0,404,514,452,290,151,90,45,77
2017/05/27/11:53:11.058995,136079,1495857191,58801889,0,412,506,460,301,161,106,53,78
2017/05/27/11:53:11.081644,136080,1495857191,81384897,0,376,508,480,282,170,105,53,77
2017/05/27/11:53:11.096630,136081,1495857191,96402883,0,408,512,474,274,170,109,54,81
2017/05/27/11:53:11.119030,136082,1495857191,118834972,0,359,453,472,286,169,111,56,76
2017/05/27/11:53:11.141581,136083,1495857191,141355991,0,328,417,423,254,141,100,51,70
2017/05/27/11:53:11.156514,136084,1495857191,156351089,0,307,440,440,272,140,83,49,68
2017/05/27/11:53:11.179158,136085,1495857191,178917884,0,297,513,376,256,135,86,50,63
2017/05/27/11:53:11.201762,136086,1495857191,201392889,0,260,537,385,253,127,84,46,60
2017/05/27/11:53:11.216490,136087,1495857191,216370105,0,246,628,392,275,144,84,45,63
2017/05/27/11:53:11.239018,136088,1495857191,238856077,0,246,632,411,269,137,81,50,69
2017/05/27/11:53:11.261495,136089,1495857191,261343002,0,231,736,461,251,138,93,50,69
2017/05/27/11:53:11.276569,136090,1495857191,276355028,0,314,700,468,270,157,116,58,74
2017/05/27/11:53:11.298939,136091,1495857191,298787117,0,302,705,451,261,164,119,60,71
2017/05/27/11:53:11.321542,136092,1495857191,321336030,0,315,624,373,202,148,132,63,67
2017/05/27/11:53:11.338132,136093,1495857191,337954998,0,354,690,425,255,175,156,65,63
2017/05/27/11:53:11.358999,136094,1495857191,358845949,0,356,629,347,237,168,149,64,67
2017/05/27/11:53:11.389883,136095,1495857191,389643907,0,275,628,334,215,146,132,55,59
2017/05/27/11:53:11.396606,136096,1495857191,396399021,0,302,620,377,226,153,134,55,59
2017/05/27/11:53:11.426521,136097,1495857191,426347017,0,322,607,379,224,149,120,49,56
2017/05/27/11:53:11.441566,136098,1495857191,441358089,0,278,512,304,169,117,93,41,52
2017/05/27/11:53:11.456542,136099,1495857191,456291913,0,276,443,329,188,118,95,40,50
2017/05/27/11:53:11.486634,136100,1495857191,486377000,0,268,417,343,197,120,97,47,49
2017/05/27/11:53:11.501544,136101,1495857191,501348018,0,200,366,300,190,94,88,45,42
2017/05/27/11:53:11.516518,136102,1495857191,516350030,0,125,377,318,207,95,87,46,45
2017/05/27/11:53:11.539048,136103,1495857191,538822889,0,103,360,350,219,95,77,48,48
2017/05/27/11:53:11.561682,136104,1495857191,561391115,0,94,372,336,206,91,71,46,44
2017/05/27/11:53:11.577940,136105,1495857191,577764987,0,83,354,325,195,103,79,40,41
2017/05/27/11:53:11.599049,136106,1495857191,598850965,0,81,385,327,208,121,81,40,44
2017/05/27/11:53:11.621733,136107,1495857191,621471881,0,74,420,355,212,129,80,41,46
2017/05/27/11:53:11.637941,136108,1495857191,637753963,0,78,450,314,195,134,81,40,43
2017/05/27/11:53:11.659046,136109,1495857191,658830881,0,78,449,304,189,135,84,38,41
2017/05/27/11:53:11.681684,136110,1495857191,681379079,0,78,447,312,199,124,81,41,44
2017/05/27/11:53:11.698093,136111,1495857191,697839021,0,78,462,365,207,134,85,41,43
2017/05/27/11:53:11.719068,136112,1495857191,718857049,0,68,413,341,199,145,85,39,38
2017/05/27/11:53:11.741532,136113,1495857191,741348981,0,71,452,329,190,142,94,39,36
2017/05/27/11:53:11.758007,136114,1495857191,757808923,0,67,432,322,195,149,93,41,38
2017/05/27/11:53:11.778953,136115,1495857191,778825998,0,71,435,326,204,163,104,42,48
2017/05/27/11:53:11.801555,136116,1495857191,801381111,0,70,412,267,185,150,99,42,48
2017/05/27/11:53:11.817934,136117,1495857191,817790985,0,73,416,312,219,150,108,44,52
2017/05/27/11:53:11.839063,136118,1495857191,838888883,0,71,402,307,224,148,105,42,51
2017/05/27/11:53:11.861657,136119,1495857191,861360073,0,67,382,302,221,146,110,40,49
2017/05/27/11:53:11.892833,136120,1495857191,892673969,0,71,478,301,208,133,93,39,38
2017/05/27/11:53:11.898978,136121,1495857191,898813962,0,70,485,340,249,149,95,43,43
2017/05/27/11:53:11.921470,136122,1495857191,921313047,0,69,478,334,233,134,85,44,37
2017/05/27/11:53:11.945622,136123,1495857191,945436954,0,71,453,345,240,141,96,57,46
2017/05/27/11:53:11.959027,136124,1495857191,958825111,0,80,510,401,259,155,97,71,54
2017/05/27/11:53:11.981488,136125,1495857191,981349945,0,84,465,436,283,170,106,76,57
2017/05/27/11:53:12.005456,136126,1495857192,5311965,0,94,468,415,252,152,105,78,59
2017/05/27/11:53:12.020536,136127,1495857192,20361900,0,99,476,429,259,164,112,78,63
2017/05/27/11:53:12.041464,136128,1495857192,41335105,0,101,512,526,310,173,105,72,61
2017/05/27/11:53:12.063991,136129,1495857192,63798904,0,96,466,502,298,156,120,62,56
2017/05/27/11:53:12.089613,136130,1495857192,89438915,0,95,488,480,280,149,130,55,54
2017/05/27/11:53:12.101543,136131,1495857192,101344108,0,94,507,516,312,162,133,57,55
2017/05/27/11:53:12.124112,136132,1495857192,123821973,0,99,543,476,288,157,132,60,54
2017/05/27/11:53:12.139473,136133,1495857192,139245986,0,96,549,375,225,140,133,59,54
2017/05/27/11:53:12.163031,136134,1495857192,162821054,0,102,589,460,276,165,130,58,58
2017/05/27/11:53:12.184207,136135,1495857192,183947086,0,100,551,445,275,155,113,59,58
2017/05/27/11:53:12.206551,136136,1495857192,206322908,0,92,513,422,238,146,116,57,54
2017/05/27/11:53:12.221580,136137,1495857192,221373081,0,96,492,483,279,146,110,53,59
2017/05/27/11:53:12.244043,136138,1495857192,243860006,0,109,434,503,320,194,113,57,63
2017/05/27/11:53:12.259032,136139,1495857192,258826017,0,105,431,446,296,183,95,56,59
2017/05/27/11:53:12.281589,136140,1495857192,281382083,0,105,427,497,304,183,92,56,58
2017/05/27/11:53:12.304280,136141,1495857192,303966999,0,105,428,480,306,184,95,55,56
2017/05/27/11:53:12.318963,136142,1495857192,318772077,0,95,435,425,270,179,100,56,50
2017/05/27/11:53:12.341673,136143,1495857192,341372013,0,80,440,391,266,173,99,50,40
2017/05/27/11:53:12.363983,136144,1495857192,363765954,0,80,441,367,257,188,111,53,42
2017/05/27/11:53:12.379031,136145,1495857192,378801107,0,81,465,367,264,189,112,50,41
2017/05/27/11:53:12.401490,136146,1495857192,401293039,0,87,490,375,261,187,102,49,44
2017/05/27/11:53:12.424011,136147,1495857192,423811912,0,91,560,399,260,181,105,45,40
2017/05/27/11:53:12.439100,136148,1495857192,438874959,0,86,546,402,223,138,101,44,38
2017/05/27/11:53:12.462996,136149,1495857192,462776899,0,99,557,471,229,117,93,38,39
2017/05/27/11:53:12.493701,136150,1495857192,493499994,0,103,576,452,226,123,96,43,51
2017/05/27/11:53:12.499051,136151,1495857192,498840093,0,107,576,441,219,117,107,57,60
2017/05/27/11:53:12.521580,136152,1495857192,521313905,0,104,499,391,220,125,104,61,63
2017/05/27/11:53:12.545488,136153,1495857192,545279026,0,107,537,397,223,130,106,63,69
2017/05/27/11:53:12.558982,136154,1495857192,558789014,0,93,503,330,202,119,97,64,70
2017/05/27/11:53:12.581621,136155,1495857192,581401109,0,83,478,333,194,116,104,64,66
2017/05/27/11:53:12.612486,136156,1495857192,612183094,0,80,481,371,224,122,113,53,57
2017/05/27/11:53:12.619148,136157,1495857192,618844032,0,80,474,400,232,119,126,59,60
2017/05/27/11:53:12.641539,136158,1495857192,641308069,0,84,521,426,223,119,134,63,59
2017/05/27/11:53:12.664077,136159,1495857192,663819074,0,84,536,417,242,136,139,62,57
2017/05/27/11:53:12.679018,136160,1495857192,678817033,0,84,514,410,265,135,134,60,54
2017/05/27/11:53:12.701590,136161,1495857192,701361894,0,82,504,416,264,144,123,61,57
2017/05/27/11:53:12.724193,136162,1495857192,723860025,0,85,517,432,261,137,106,52,52
2017/05/27/11:53:12.739009,136163,1495857192,738846063,0,97,553,433,264,132,97,47,53
2017/05/27/11:53:12.761744,136164,1495857192,761434078,0,96,531,411,241,112,97,45,51
2017/05/27/11:53:12.785507,136165,1495857192,785279035,0,97,535,442,215,111,93,47,55
2017/05/27/11:53:12.806594,136166,1495857192,806380987,0,99,542,414,194,119,99,43,54
2017/05/27/11:53:12.821641,136167,1495857192,821338891,0,102,572,391,192,120,97,42,53
2017/05/27/11:53:12.844004,136168,1495857192,843812942,0,89,457,351,189,128,96,43,50
2017/05/27/11:53:12.866778,136169,1495857192,866591930,0,104,511,398,259,161,92,47,54
2017/05/27/11:53:12.881491,136170,1495857192,881319999,0,109,547,346,256,168,98,47,53
2017/05/27/11:53:12.904015,136171,1495857192,903809070,0,107,542,337,246,153,97,48,51
2017/05/27/11:53:12.926792,136172,1495857192,926386117,0,98,475,324,237,159,106,55,52
2017/05/27/11:53:12.941555,136173,1495857192,941351890,0,107,525,445,301,175,106,57,57
2017/05/27/11:53:12.964348,136174,1495857192,964098930,0,101,495,411,262,150,105,55,57
2017/05/27/11:53:12.994762,136175,1495857192,994537115,0,101,480,409,263,140,105,56,59
2017/05/27/11:53:13.001733,136176,1495857193,1455068,0,108,523,408,267,156,98,57,69
2017/05/27/11:53:13.023980,136177,1495857193,23788928,0,110,546,404,270,158,92,52,73
2017/05/27/11:53:13.046477,136178,1495857193,46300888,0,139,673,326,222,141,90,49,78
2017/05/27/11:53:13.061632,136179,1495857193,61387062,0,140,674,343,219,152,99,62,91
2017/05/27/11:53:13.084005,136180,1495857193,83792924,0,138,667,346,220,183,139,82,97
2017/05/27/11:53:13.106612,136181,1495857193,106360912,0,134,646,431,276,188,147,87,98
2017/05/27/11:53:13.121594,136182,1495857193,121376991,0,143,674,444,276,182,145,89,96
2017/05/27/11:53:13.144016,136183,1495857193,143845081,0,112,524,461,298,194,148,89,95
2017/05/27/11:53:13.166463,136184,1495857193,166337966,0,114,508,450,286,188,146,86,83
2017/05/27/11:53:13.185542,136185,1495857193,185326099,0,117,543,432,276,164,110,68,73
2017/05/27/11:53:13.205717,136186,1495857193,205337047,0,115,525,347,227,140,96,61,67
2017/05/27/11:53:13.226605,136187,1495857193,226332902,0,110,586,395,252,148,98,67,73
2017/05/27/11:53:13.241691,136188,1495857193,241436958,0,103,610,334,209,140,105,65,68
2017/05/27/11:53:13.272239,136189,1495857193,272073030,0,98,614,348,226,149,105,58,65
2017/05/27/11:53:13.288640,136190,1495857193,286426067,0,91,593,369,262,146,107,58,67
2017/05/27/11:53:13.301516,136191,1495857193,301326036,0,96,589,407,283,157,111,61,69
2017/05/27/11:53:13.324086,136192,1495857193,323857069,0,86,470,364,269,160,111,53,65
2017/05/27/11:53:13.346694,136193,1495857193,346354961,0,94,481,439,284,146,96,53,64
2017/05/27/11:53:13.361572,136194,1495857193,361341953,0,94,469,426,280,143,93,55,66
2017/05/27/11:53:13.383961,136195,1495857193,383810043,0,94,447,478,314,155,88,58,75
2017/05/27/11:53:13.406579,136196,1495857193,406394004,0,83,438,486,310,150,82,53,72
2017/05/27/11:53:13.423194,136197,1495857193,422940015,0,84,445,488,324,161,84,49,66
2017/05/27/11:53:13.444038,136198,1495857193,443876981,0,79,396,438,309,164,88,48,65
2017/05/27/11:53:13.466698,136199,1495857193,466459989,0,74,426,457,325,177,85,49,65
2017/05/27/11:53:13.481537,136200,1495857193,481324911,0,86,441,434,288,176,88,58,66
2017/05/27/11:53:13.504055,136201,1495857193,503782033,0,94,464,415,297,196,89,62,64
2017/05/27/11:53:13.526455,136202,1495857193,526257991,0,95,491,404,276,180,87,62,67
2017/05/27/11:53:13.542291,136203,1495857193,542085886,0,98,536,415,285,173,81,62,67
2017/05/27/11:53:13.564020,136204,1495857193,563822984,0,98,507,390,261,154,84,64,72
2017/05/27/11:53:13.588244,136205,1495857193,587889909,0,86,474,336,238,144,91,56,63
2017/05/27/11:53:13.609138,136206,1495857193,608886003,0,85,467,296,200,130,92,51,63
2017/05/27/11:53:13.624144,136207,1495857193,623863935,0,93,476,338,250,147,91,52,61
2017/05/27/11:53:13.646547,136208,1495857193,646292924,0,87,432,326,239,157,95,54,62
2017/05/27/11:53:13.672888,136209,1495857193,672466993,0,101,484,371,254,155,92,51,54
2017/05/27/11:53:13.684045,136210,1495857193,683885097,0,105,519,373,247,154,83,46,50
2017/05/27/11:53:13.708014,136211,1495857193,707782983,0,105,522,404,265,149,84,52,56
2017/05/27/11:53:13.723157,136212,1495857193,722825050,0,101,556,416,257,146,86,54,59
2017/05/27/11:53:13.744031,136213,1495857193,743834972,0,98,523,401,256,152,102,57,60
2017/05/27/11:53:13.782164,136214,1495857193,782011985,0,83,485,381,242,144,101,55,57
2017/05/27/11:53:13.789059,136215,1495857193,788856983,0,78,460,417,269,151,103,55,59
2017/05/27/11:53:13.803952,136216,1495857193,803790092,0,70,447,408,257,136,101,54,58
2017/05/27/11:53:13.836013,136217,1495857193,835813999,0,72,376,354,217,125,96,52,57
2017/05/27/11:53:13.849002,136218,1495857193,848815917,0,78,459,388,233,133,87,46,61
2017/05/27/11:53:13.864060,136219,1495857193,863836050,0,74,439,410,245,132,90,61,68
2017/05/27/11:53:13.896243,136220,1495857193,896100997,0,74,486,379,223,126,86,60,63
2017/05/27/11:53:13.909483,136221,1495857193,909296035,0,79,484,374,229,141,88,60,60
2017/05/27/11:53:13.925494,136222,1495857193,925272941,0,78,518,388,229,142,90,58,60
2017/05/27/11:53:13.947997,136223,1495857193,947798013,0,75,459,326,206,125,79,59,57
2017/05/27/11:53:13.969054,136224,1495857193,968847036,0,81,495,425,276,149,81,51,51
2017/05/27/11:53:13.984076,136225,1495857193,983841896,0,90,467,424,275,151,83,52,57
2017/05/27/11:53:14.009060,136226,1495857194,8868932,0,93,460,407,261,143,76,49,54
2017/05/27/11:53:14.029140,136227,1495857194,28886079,0,90,425,411,263,137,75,54,50
2017/05/27/11:53:14.060425,136228,1495857194,60214042,0,90,451,422,280,132,85,60,51
2017/05/27/11:53:14.066473,136229,1495857194,66298961,0,91,426,350,228,133,85,58,51
2017/05/27/11:53:14.089032,136230,1495857194,88839054,0,105,571,417,286,133,89,56,50
2017/05/27/11:53:14.111484,136231,1495857194,111352920,0,101,565,429,298,140,89,58,52
2017/05/27/11:53:14.126494,136232,1495857194,126308917,0,106,566,439,316,151,87,58,57
2017/05/27/11:53:14.149038,136233,1495857194,148825883,0,107,592,476,314,157,86,48,54
2017/05/27/11:53:14.173020,136234,1495857194,172801017,0,106,580,437,297,138,84,54,57
2017/05/27/11:53:14.186733,136235,1495857194,186439990,0,85,445,379,240,132,77,53,55
2017/05/27/11:53:14.209127,136236,1495857194,208848953,0,82,467,391,233,123,81,53,53
2017/05/27/11:53:14.224168,136237,1495857194,223923921,0,89,505,361,207,126,88,52,52
2017/05/27/11:53:14.246462,136238,1495857194,246282100,0,87,445,307,187,119,86,51,51
2017/05/27/11:53:14.277814,136239,1495857194,277647972,0,94,454,402,250,140,89,48,54
2017/05/27/11:53:14.283972,136240,1495857194,283783912,0,93,448,398,250,140,91,49,56
2017/05/27/11:53:14.306467,136241,1495857194,306308984,0,93,437,371,238,137,87,47,57
2017/05/27/11:53:14.337169,136242,1495857194,336994886,0,77,418,378,255,148,89,44,53
2017/05/27/11:53:14.343979,136243,1495857194,343789100,0,81,487,390,261,165,101,47,52
2017/05/27/11:53:14.366423,136244,1495857194,366257905,0,72,526,294,206,148,94,42,59
2017/05/27/11:53:14.389239,136245,1495857194,388952970,0,75,489,375,255,156,95,44,61
2017/05/27/11:53:14.405430,136246,1495857194,405231952,0,85,509,395,263,157,98,46,63
2017/05/27/11:53:14.426528,136247,1495857194,426333904,0,94,547,423,271,139,96,49,65
2017/05/27/11:53:14.449153,136248,1495857194,448940038,0,87,512,431,268,131,86,51,67
2017/05/27/11:53:14.463990,136249,1495857194,463803052,0,98,488,428,261,133,88,50,57
2017/05/27/11:53:14.495414,136250,1495857194,495199918,0,99,540,388,223,140,89,54,57
2017/05/27/11:53:14.513195,136251,1495857194,513025045,0,95,567,401,221,143,90,54,56
2017/05/27/11:53:14.524176,136252,1495857194,523844957,0,90,501,392,195,139,82,52,57
2017/05/27/11:53:14.546672,136253,1495857194,546370983,0,90,471,369,180,122,74,50,56
2017/05/27/11:53:14.573222,136254,1495857194,573026895,0,77,479,358,180,123,77,48,53
2017/05/27/11:53:14.584034,136255,1495857194,583794116,0,75,437,368,224,128,79,44,50
2017/05/27/11:53:14.615535,136256,1495857194,615267038,0,73,406,353,236,132,78,48,52
2017/05/27/11:53:14.628983,136257,1495857194,628813028,0,71,390,329,228,133,82,47,48
2017/05/27/11:53:14.643996,136258,1495857194,643799066,0,77,430,392,260,132,80,47,47
2017/05/27/11:53:14.666473,136259,1495857194,666301965,0,81,419,389,257,129,74,49,47
2017/05/27/11:53:14.689153,136260,1495857194,688848018,0,83,473,350,223,109,67,45,44
2017/05/27/11:53:14.711516,136261,1495857194,711314916,0,80,449,352,212,97,66,39,41
2017/05/27/11:53:14.726493,136262,1495857194,726331949,0,81,496,362,207,93,61,38,41
2017/05/27/11:53:14.749052,136263,1495857194,748859882,0,75,483,325,192,115,61,40,42
2017/05/27/11:53:14.771937,136264,1495857194,771811962,0,70,475,313,186,113,63,41,42
2017/05/27/11:53:14.794078,136265,1495857194,793843030,0,66,456,326,182,127,74,46,46
2017/05/27/11:53:14.817148,136266,1495857194,816981077,0,79,513,416,255,151,77,47,49
2017/05/27/11:53:14.839723,136267,1495857194,839534044,0,84,524,427,270,162,82,47,51
2017/05/27/11:53:14.846540,136268,1495857194,846326112,0,89,546,418,265,151,81,47,54
2017/05/27/11:53:14.869100,136269,1495857194,868803024,0,96,650,429,266,148,78,44,54
2017/05/27/11:53:14.893099,136270,1495857194,892790079,0,102,655,436,278,139,68,41,54
2017/05/27/11:53:14.906448,136271,1495857194,906266927,0,95,617,340,218,111,60,41,51
2017/05/27/11:53:14.944721,136272,1495857194,944519042,0,91,578,335,212,109,53,43,49
2017/05/27/11:53:14.951523,136273,1495857194,951313018,0,87,575,329,212,107,57,40,48
2017/05/27/11:53:14.966441,136274,1495857194,966281890,0,79,481,332,220,109,66,40,53
2017/05/27/11:53:14.989022,136275,1495857194,988821983,0,70,445,319,200,104,68,41,50
2017/05/27/11:53:15.013195,136276,1495857195,12999057,0,76,511,331,189,104,69,42,50
2017/05/27/11:53:15.026474,136277,1495857195,26297092,0,75,512,342,191,100,73,40,50
2017/05/27/11:53:15.058544,136278,1495857195,58408021,0,75,480,328,175,106,74,42,50
2017/05/27/11:53:15.071607,136279,1495857195,71388959,0,74,472,332,178,113,69,42,43
2017/05/27/11:53:15.086597,136280,1495857195,86397886,0,70,456,335,184,109,64,39,42
2017/05/27/11:53:15.113192,136281,1495857195,113002061,0,61,373,373,195,121,70,40,41
2017/05/27/11:53:15.131548,136282,1495857195,131320953,0,71,405,332,186,115,68,42,52
2017/05/27/11:53:15.146434,136283,1495857195,146286010,0,70,450,350,188,110,66,40,52
2017/05/27/11:53:15.169036,136284,1495857195,168831110,0,71,421,330,171,108,80,46,55
2017/05/27/11:53:15.191495,136285,1495857195,191306114,0,76,452,317,166,113,93,48,59
2017/05/27/11:53:15.206526,136286,1495857195,206336975,0,81,470,281,171,101,92,49,60
2017/05/27/11:53:15.229061,136287,1495857195,228849887,0,71,440,295,172,97,88,47,53
2017/05/27/11:53:15.251539,136288,1495857195,251341104,0,70,390,296,177,98,90,50,53
2017/05/27/11:53:15.282274,136289,1495857195,282072067,0,70,388,314,185,95,90,46,50
2017/05/27/11:53:15.288966,136290,1495857195,288784027,0,82,435,311,180,92,80,46,50
2017/05/27/11:53:15.311533,136291,1495857195,311328887,0,82,435,419,213,112,80,45,51
2017/05/27/11:53:15.333980,136292,1495857195,333803892,0,87,454,429,215,115,83,47,47
2017/05/27/11:53:15.349757,136293,1495857195,349086999,0,87,445,413,205,115,82,44,45
2017/05/27/11:53:15.371557,136294,1495857195,371356964,0,90,447,406,203,114,68,45,45
2017/05/27/11:53:15.387977,136295,1495857195,387779951,0,76,396,468,236,119,66,49,43
2017/05/27/11:53:15.409079,136296,1495857195,408865928,0,77,365,381,209,113,67,49,43
2017/05/27/11:53:15.440229,136297,1495857195,440026044,0,78,360,367,211,112,74,49,40
2017/05/27/11:53:15.448039,136298,1495857195,447755098,0,87,422,374,234,115,71,49,40
2017/05/27/11:53:15.484685,136299,1495857195,484469890,0,88,462,372,233,124,74,54,47
2017/05/27/11:53:15.492591,136300,1495857195,492079019,0,90,444,283,200,124,75,50,44
2017/05/27/11:53:15.506463,136301,1495857195,506269931,0,83,490,255,212,128,70,48,42
2017/05/27/11:53:15.529069,136302,1495857195,528934955,0,79,480,318,227,143,75,52,47
2017/05/27/11:53:15.559644,136303,1495857195,559499979,0,75,446,318,211,147,82,55,47
2017/05/27/11:53:15.566827,136304,1495857195,566545009,0,82,439,313,215,147,81,50,48
2017/05/27/11:53:15.589021,136305,1495857195,588814020,0,84,447,324,220,141,80,48,48
2017/05/27/11:53:15.612970,136306,1495857195,612771034,0,85,378,348,203,129,79,49,48
2017/05/27/11:53:15.634203,136307,1495857195,633841991,0,85,371,331,204,114,67,42,46
2017/05/27/11:53:15.649056,136308,1495857195,648852109,0,80,349,358,223,103,58,38,44
2017/05/27/11:53:15.671668,136309,1495857195,671421051,0,68,335,364,232,94,55,39,38
2017/05/27/11:53:15.694039,136310,1495857195,693837881,0,74,360,406,243,95,55,39,39
2017/05/27/11:53:15.724769,136311,1495857195,724493026,0,68,361,426,269,103,61,39,39
2017/05/27/11:53:15.731549,136312,1495857195,731295108,0,71,371,388,247,103,67,42,43
2017/05/27/11:53:15.754080,136313,1495857195,753875970,0,73,391,357,237,113,86,44,43
2017/05/27/11:53:15.778615,136314,1495857195,778467893,0,76,406,434,285,126,90,47,42
2017/05/27/11:53:15.791657,136315,1495857195,791412115,0,67,381,402,278,130,99,49,40
2017/05/27/11:53:15.814072,136316,1495857195,813903093,0,69,392,372,259,131,125,48,40
2017/05/27/11:53:15.844734,136317,1495857195,844531059,0,75,471,399,283,135,143,45,35
2017/05/27/11:53:15.851624,136318,1495857195,851326942,0,81,553,441,285,132,145,45,37
2017/05/27/11:53:15.890539,136319,1495857195,890291929,0,75,508,373,236,120,143,45,43
2017/05/27/11:53:15.891904,136320,1495857195,891727924,0,87,559,401,257,132,147,49,49
2017/05/27/11:53:15.911492,136321,1495857195,911279916,0,106,625,420,260,152,129,53,52
2017/05/27/11:53:15.935560,136322,1495857195,935422897,0,106,594,466,265,152,106,57,55
2017/05/27/11:53:15.949034,136323,1495857195,948802947,0,111,556,442,261,148,90,56,55
2017/05/27/11:53:15.971551,136324,1495857195,971323013,0,113,606,473,265,152,95,53,56
2017/05/27/11:53:16.003637,136325,1495857196,3454923,0,108,583,439,234,142,81,45,51
2017/05/27/11:53:16.009015,136326,1495857196,8836984,0,93,528,400,206,110,80,42,49
2017/05/27/11:53:16.031489,136327,1495857196,31296968,0,87,516,306,161,103,78,38,45
2017/05/27/11:53:16.055469,136328,1495857196,55254936,0,81,484,358,221,115,93,44,50
2017/05/27/11:53:16.069002,136329,1495857196,68830966,0,87,483,335,237,122,96,49,51
2017/05/27/11:53:16.091544,136330,1495857196,91355085,0,81,489,321,234,117,92,50,50
2017/05/27/11:53:16.114195,136331,1495857196,113862991,0,81,481,319,235,113,86,50,49
2017/05/27/11:53:16.128982,136332,1495857196,128806114,0,85,478,464,318,152,100,56,52
2017/05/27/11:53:16.167303,136333,1495857196,167016983,0,85,490,426,278,157,176,65,50
2017/05/27/11:53:16.173969,136334,1495857196,173779010,0,82,464,416,255,150,209,74,44
2017/05/27/11:53:16.189133,136335,1495857196,188935041,0,82,428,454,278,157,216,79,51
2017/05/27/11:53:16.219749,136336,1495857196,219552040,0,82,459,464,291,165,220,77,52
2017/05/27/11:53:16.234074,136337,1495857196,233886003,0,76,425,323,209,139,216,73,49
2017/05/27/11:53:16.250415,136338,1495857196,250236988,0,62,389,292,201,130,153,60,43
2017/05/27/11:53:16.287410,136339,1495857196,287086963,0,55,386,275,197,126,95,44,45
2017/05/27/11:53:16.293997,136340,1495857196,293843030,0,55,391,265,177,121,90,37,41
2017/05/27/11:53:16.308967,136341,1495857196,308825969,0,55,377,257,152,111,88,36,39
2017/05/27/11:53:16.333555,136342,1495857196,333410024,0,61,445,262,136,98,86,34,41
2017/05/27/11:53:16.353925,136343,1495857196,353786945,0,88,521,307,166,124,83,63,57
2017/05/27/11:53:16.369221,136344,1495857196,368927001,0,104,563,310,155,125,80,62,56
2017/05/27/11:53:16.391464,136345,1495857196,391298055,0,109,563,269,169,124,66,61,56
2017/05/27/11:53:16.414188,136346,1495857196,413904905,0,111,541,263,190,129,60,63,58
2017/05/27/11:53:16.453065,136347,1495857196,452766895,0,119,516,267,218,137,54,64,65
2017/05/27/11:53:16.454396,136348,1495857196,454236984,0,114,485,237,221,113,53,42,57
2017/05/27/11:53:16.473942,136349,1495857196,473771095,0,103,427,255,221,113,52,41,57
2017/05/27/11:53:16.489043,136350,1495857196,488837957,0,105,432,269,205,106,49,39,60
2017/05/27/11:53:16.512955,136351,1495857196,512801885,0,131,451,278,223,108,51,39,78
2017/05/27/11:53:16.534021,136352,1495857196,533827066,0,136,426,322,240,121,53,81,88
2017/05/27/11:53:16.556552,136353,1495857196,556323051,0,130,371,332,229,127,59,132,105
2017/05/27/11:53:16.571441,136354,1495857196,571266889,0,131,360,319,250,129,62,138,110
2017/05/27/11:53:16.610341,136355,1495857196,610161066,0,133,368,327,264,130,62,146,112
2017/05/27/11:53:16.624722,136356,1495857196,624514102,0,103,335,315,238,122,55,145,100
2017/05/27/11:53:16.631667,136357,1495857196,631407022,0,86,332,252,193,98,51,127,89
2017/05/27/11:53:16.669629,136358,1495857196,669475078,0,90,319,223,186,74,43,83,84
2017/05/27/11:53:16.676389,136359,1495857196,676254987,0,93,346,209,160,64,38,75,85
2017/05/27/11:53:16.691668,136360,1495857196,691361904,0,81,327,169,137,65,35,59,80
2017/05/27/11:53:16.738090,136361,1495857196,737803936,0,86,319,148,129,62,33,58,79
2017/05/27/11:53:16.739397,136362,1495857196,739212989,0,82,313,142,132,56,31,56,84
2017/05/27/11:53:16.751632,136363,1495857196,751332044,0,75,350,128,123,56,33,37,74
2017/05/27/11:53:16.774000,136364,1495857196,773838043,0,68,322,94,110,48,31,27,65
2017/05/27/11:53:16.796432,136365,1495857196,796312093,0,67,299,88,94,46,30,29,66
2017/05/27/11:53:16.813991,136366,1495857196,813606023,0,63,291,98,90,45,32,31,65
2017/05/27/11:53:16.835585,136367,1495857196,835344076,0,67,321,102,75,43,33,32,54
2017/05/27/11:53:16.856608,136368,1495857196,856388092,0,61,273,98,56,38,27,33,36
2017/05/27/11:53:16.887147,136369,1495857196,886980056,0,63,242,111,59,37,28,34,37
2017/05/27/11:53:16.894379,136370,1495857196,893978118,0,57,222,107,50,30,28,32,32
2017/05/27/11:53:16.916546,136371,1495857196,916338920,0,61,310,107,45,27,26,30,29
2017/05/27/11:53:16.947460,136372,1495857196,947056055,0,61,272,102,47,28,25,27,31
2017/05/27/11:53:16.954012,136373,1495857196,953735113,0,63,266,100,45,28,24,24,30
2017/05/27/11:53:16.976413,136374,1495857196,976274967,0,61,321,95,42,28,22,25,26
2017/05/27/11:53:17.000577,136375,1495857197,343084,0,62,331,88,40,28,21,24,27
2017/05/27/11:53:17.013931,136376,1495857197,13745069,0,55,246,85,48,29,21,21,26
2017/05/27/11:53:17.036671,136377,1495857197,36408901,0,53,245,95,53,32,23,22,27
2017/05/27/11:53:17.053192,136378,1495857197,52751064,0,53,247,99,49,29,23,22,25
2017/05/27/11:53:17.074004,136379,1495857197,73800086,0,43,171,93,52,29,23,21,26
2017/05/27/11:53:17.112863,136380,1495857197,112658023,0,42,167,97,53,28,23,21,26
2017/05/27/11:53:17.114357,136381,1495857197,114214897,0,40,163,104,73,30,23,21,24
2017/05/27/11:53:17.134092,136382,1495857197,133780002,0,89,147,133,104,39,26,24,28
2017/05/27/11:53:17.156496,136383,1495857197,156274080,0,94,130,146,125,45,27,25,31
2017/05/27/11:53:17.171580,136384,1495857197,171379089,0,107,115,148,127,46,27,26,34
2017/05/27/11:53:17.193964,136385,1495857197,193793058,0,117,108,148,132,49,28,27,34
2017/05/27/11:53:17.224704,136386,1495857197,224505901,0,131,203,382,269,107,48,39,43
2017/05/27/11:53:17.231501,136387,1495857197,231287002,0,105,220,390,273,110,48,37,44
2017/05/27/11:53:17.253994,136388,1495857197,253782987,0,107,220,397,269,109,47,37,46
2017/05/27/11:53:17.276480,136389,1495857197,276295900,0,99,225,402,271,109,47,37,46
2017/05/27/11:53:17.291573,136390,1495857197,291321039,0,87,225,408,275,112,48,37,46
2017/05/27/11:53:17.320755,136391,1495857197,313915014,0,110,173,207,135,59,28,26,41
2017/05/27/11:53:17.347570,136392,1495857197,347356081,0,113,171,200,117,50,25,24,39
2017/05/27/11:53:17.352920,136393,1495857197,352761983,0,109,172,201,121,50,27,25,37
2017/05/27/11:53:17.391747,136394,1495857197,391210079,0,109,161,194,121,51,28,26,34
2017/05/27/11:53:17.397006,136395,1495857197,396403074,0,109,150,182,111,44,25,26,35
2017/05/27/11:53:17.419071,136396,1495857197,418889045,0,69,137,225,122,49,28,30,33
2017/05/27/11:53:17.435848,136397,1495857197,435601949,0,60,113,221,118,47,27,30,33
2017/05/27/11:53:17.456445,136398,1495857197,456268072,0,58,106,199,105,44,25,31,35
2017/05/27/11:53:17.471522,136399,1495857197,471316099,0,66,106,200,107,46,28,29,38
2017/05/27/11:53:17.501689,136400,1495857197,501377105,0,96,160,232,115,47,29,30,38
2017/05/27/11:53:17.516711,136401,1495857197,516383886,0,114,159,249,141,58,31,28,38
2017/05/27/11:53:17.546896,136402,1495857197,546677112,0,132,163,256,153,59,31,29,39
2017/05/27/11:53:17.555540,136403,1495857197,555340051,0,141,167,259,153,59,32,30,37
2017/05/27/11:53:17.576578,136404,1495857197,576370000,0,180,164,259,157,57,29,32,46
2017/05/27/11:53:17.607341,136405,1495857197,607079982,0,304,146,244,158,60,30,31,59
2017/05/27/11:53:17.614076,136406,1495857197,613840103,0,311,163,176,129,44,23,29,58
2017/05/27/11:53:17.636528,136407,1495857197,636302947,0,312,162,143,112,42,25,29,61
2017/05/27/11:53:17.667175,136408,1495857197,666996002,0,322,165,141,110,42,26,26,64
2017/05/27/11:53:17.673945,136409,1495857197,673759937,0,320,190,179,119,51,31,26,59
2017/05/27/11:53:17.696486,136410,1495857197,696280956,0,225,194,194,122,50,30,27,48
2017/05/27/11:53:17.718996,136411,1495857197,718797922,0,233,198,220,125,52,33,28,52
2017/05/27/11:53:17.734093,136412,1495857197,733860969,0,244,198,219,119,49,30,25,47
2017/05/27/11:53:17.756458,136413,1495857197,756283998,0,226,191,213,118,50,29,28,41
2017/05/27/11:53:17.787234,136414,1495857197,786994934,0,212,176,193,115,41,24,28,43
2017/05/27/11:53:17.793908,136415,1495857197,793749094,0,220,173,167,100,37,24,27,46
2017/05/27/11:53:17.832351,136416,1495857197,832026958,0,202,149,160,102,39,23,27,41
2017/05/27/11:53:17.839288,136417,1495857197,838957071,0,182,150,167,104,40,25,27,41
2017/05/27/11:53:17.854114,136418,1495857197,853806972,0,182,156,174,106,39,26,26,46
2017/05/27/11:53:17.884638,136419,1495857197,884442090,0,175,155,179,95,37,26,23,43
2017/05/27/11:53:17.899127,136420,1495857197,898853063,0,132,126,187,103,34,24,22,40
2017/05/27/11:53:17.914030,136421,1495857197,913814067,0,130,131,196,90,29,28,27,49
2017/05/27/11:53:17.946234,136422,1495857197,945983886,0,132,131,208,101,40,29,28,49
2017/05/27/11:53:17.959171,136423,1495857197,958839893,0,132,123,206,100,41,30,27,46
2017/05/27/11:53:17.973986,136424,1495857197,973787069,0,133,124,190,97,42,30,28,46
2017/05/27/11:53:17.997883,136425,1495857197,997726917,0,142,129,182,101,45,31,30,50
2017/05/27/11:53:18.018961,136426,1495857198,18765926,0,138,118,160,102,44,27,25,40
2017/05/27/11:53:18.034384,136427,1495857198,33930063,0,132,113,125,89,37,26,26,43
2017/05/27/11:53:18.057860,136428,1495857198,57715892,0,132,136,127,90,39,24,25,42
2017/05/27/11:53:18.079182,136429,1495857198,78856945,0,127,128,134,98,37,24,24,42
2017/05/27/11:53:18.109751,136430,1495857198,109497070,0,114,123,128,90,36,25,23,39
2017/05/27/11:53:18.125025,136431,1495857198,124571084,0,109,120,107,87,36,26,23,39
2017/05/27/11:53:18.170886,136432,1495857198,170640945,0,103,122,122,92,32,26,20,35
2017/05/27/11:53:18.172248,136433,1495857198,172117948,0,100,101,132,97,31,26,19,35
2017/05/27/11:53:18.178006,136434,1495857198,177776098,0,96,108,122,86,29,24,20,35
2017/05/27/11:53:18.198957,136435,1495857198,198779106,0,119,116,116,76,29,23,22,34
2017/05/27/11:53:18.223215,136436,1495857198,222795963,0,153,124,141,84,34,24,22,41
2017/05/27/11:53:18.236661,136437,1495857198,236367940,0,168,137,134,80,34,22,23,42
2017/05/27/11:53:18.275805,136438,1495857198,275551080,0,177,149,139,97,40,23,24,44
2017/05/27/11:53:18.276875,136439,1495857198,276752948,0,181,146,145,106,44,23,22,43
2017/05/27/11:53:18.296658,136440,1495857198,296454906,0,178,141,160,118,47,24,20,42
2017/05/27/11:53:18.335702,136441,1495857198,335438966,0,161,140,152,120,44,24,19,34
2017/05/27/11:53:18.337075,136442,1495857198,336738109,0,153,136,162,125,48,26,19,35
2017/05/27/11:53:18.356482,136443,1495857198,356280088,0,144,123,152,116,45,26,19,33
2017/05/27/11:53:18.388602,136444,1495857198,388398885,0,134,124,152,109,41,27,19,30
2017/05/27/11:53:18.393958,136445,1495857198,393771886,0,111,135,139,100,37,28,21,28
2017/05/27/11:53:18.416445,136446,1495857198,416290044,0,105,135,137,92,35,25,23,28
2017/05/27/11:53:18.440556,136447,1495857198,440290927,0,89,134,136,100,38,26,23,28
2017/05/27/11:53:18.455641,136448,1495857198,455394029,0,97,149,151,124,48,25,24,28
2017/05/27/11:53:18.476402,136449,1495857198,476238965,0,110,153,164,137,51,27,25,30
2017/05/27/11:53:18.499165,136450,1495857198,498847007,0,119,153,179,139,50,24,22,31
2017/05/27/11:53:18.521440,136451,1495857198,521255970,0,110,161,174,140,50,25,20,32
2017/05/27/11:53:18.543932,136452,1495857198,543751001,0,111,152,161,127,45,21,21,33
2017/05/27/11:53:18.559188,136453,1495857198,558960914,0,104,144,143,96,32,21,21,33
2017/05/27/11:53:18.581452,136454,1495857198,581269979,0,102,141,136,83,31,18,21,31
2017/05/27/11:53:18.612396,136455,1495857198,612099885,0,128,151,117,82,38,20,22,34
2017/05/27/11:53:18.618930,136456,1495857198,618743896,0,136,176,127,79,38,21,22,34
2017/05/27/11:53:18.641514,136457,1495857198,641319990,0,136,176,126,78,36,21,21,33
2017/05/27/11:53:18.663934,136458,1495857198,663750886,0,139,170,126,77,38,23,21,33
2017/05/27/11:53:18.680669,136459,1495857198,680321931,0,133,166,117,78,39,26,23,34
2017/05/27/11:53:18.701453,136460,1495857198,701246976,0,97,169,120,78,40,28,23,29
2017/05/27/11:53:18.718155,136461,1495857198,717729091,0,84,140,103,79,43,28,24,30
2017/05/27/11:53:18.739021,136462,1495857198,738816976,0,85,141,104,83,42,30,24,29
2017/05/27/11:53:18.761464,136463,1495857198,761280059,0,82,140,110,80,41,27,23,28
2017/05/27/11:53:18.778214,136464,1495857198,777784109,0,78,151,113,72,42,26,26,29
2017/05/27/11:53:18.799183,136465,1495857198,798784017,0,83,127,107,67,38,25,25,29
2017/05/27/11:53:18.829988,136466,1495857198,829587936,0,82,110,113,77,38,26,24,27
2017/05/27/11:53:18.836464,136467,1495857198,836293935,0,85,108,116,76,39,26,24,28
2017/05/27/11:53:18.858966,136468,1495857198,858783960,0,83,107,109,78,39,27,22,34
2017/05/27/11:53:18.889709,136469,1495857198,889486074,0,157,121,112,78,36,26,21,37
2017/05/27/11:53:18.903959,136470,1495857198,903783082,0,193,129,113,82,36,27,22,38
2017/05/27/11:53:18.919021,136471,1495857198,918829917,0,200,142,114,88,37,26,22,36
2017/05/27/11:53:18.942921,136472,1495857198,942724943,0,210,149,129,88,44,27,24,39
2017/05/27/11:53:18.957908,136473,1495857198,957715034,0,211,157,130,89,47,29,25,37
2017/05/27/11:53:18.979329,136474,1495857198,978879928,0,177,144,116,85,46,30,23,35
2017/05/27/11:53:19.001658,136475,1495857199,1365900,0,129,134,113,82,44,28,23,34
2017/05/27/11:53:19.016380,136476,1495857199,16232013,0,116,132,111,61,42,29,23,33
2017/05/27/11:53:19.055035,136477,1495857199,54636955,0,100,131,85,57,36,27,22,32
2017/05/27/11:53:19.061456,136478,1495857199,61259984,0,96,121,126,95,38,26,23,29
2017/05/27/11:53:19.076448,136479,1495857199,76278924,0,81,109,125,97,39,24,25,27
2017/05/27/11:53:19.108694,136480,1495857199,108489990,0,119,110,125,97,39,25,27,33
2017/05/27/11:53:19.121410,136481,1495857199,121268987,0,120,89,117,95,38,24,27,34
2017/05/27/11:53:19.136459,136482,1495857199,136290073,0,118,75,116,96,36,23,28,33
2017/05/27/11:53:19.167081,136483,1495857199,166956901,0,124,71,57,51,29,22,27,37
2017/05/27/11:53:19.181590,136484,1495857199,181366920,0,119,63,47,42,25,22,25,35
2017/05/27/11:53:19.196465,136485,1495857199,196297883,0,84,54,35,34,23,24,22,31
2017/05/27/11:53:19.220438,136486,1495857199,220223903,0,96,48,33,31,23,23,22,38
2017/05/27/11:53:19.241447,136487,1495857199,241292953,0,100,46,29,27,21,23,20,39
2017/05/27/11:53:19.256471,136488,1495857199,256272077,0,95,53,44,30,25,25,18,34
2017/05/27/11:53:19.279241,136489,1495857199,278887033,0,97,62,59,34,25,24,19,37
2017/05/27/11:53:19.301524,136490,1495857199,301259994,0,94,63,59,34,25,23,18,35
2017/05/27/11:53:19.324103,136491,1495857199,323820114,0,110,73,60,34,25,22,18,31
2017/05/27/11:53:19.347177,136492,1495857199,346987009,0,109,81,64,38,27,22,17,29
2017/05/27/11:53:19.361586,136493,1495857199,361357927,0,109,79,65,38,24,19,19,32
2017/05/27/11:53:19.376454,136494,1495857199,376327037,0,104,74,56,35,24,20,18,29
2017/05/27/11:53:19.398947,136495,1495857199,398770093,0,139,79,57,35,24,20,21,33
2017/05/27/11:53:19.421465,136496,1495857199,421298980,0,121,70,58,36,23,18,20,32
2017/05/27/11:53:19.443935,136497,1495857199,443758010,0,118,60,53,31,22,20,20,32
2017/05/27/11:53:19.459194,136498,1495857199,458892107,0,118,56,42,28,21,19,18,29
2017/05/27/11:53:19.481401,136499,1495857199,481256961,0,131,56,36,26,19,21,21,30
2017/05/27/11:53:19.504228,136500,1495857199,503911018,0,111,49,44,31,19,20,21,28
2017/05/27/11:53:19.518992,136501,1495857199,518795967,0,110,46,42,31,18,20,21,28
2017/05/27/11:53:19.541450,136502,1495857199,541270017,0,111,45,43,33,17,21,21,28
2017/05/27/11:53:19.563999,136503,1495857199,563818931,0,109,42,41,32,18,23,21,27
2017/05/27/11:53:19.579043,136504,1495857199,578794002,0,99,40,41,32,17,20,19,31
2017/05/27/11:53:19.609673,136505,1495857199,609486103,0,78,37,32,26,18,20,17,29
2017/05/27/11:53:19.623922,136506,1495857199,623765945,0,72,42,33,25,19,20,17,27
2017/05/27/11:53:19.639387,136507,1495857199,638864994,0,67,40,31,24,19,18,16,29
2017/05/27/11:53:19.662948,136508,1495857199,662734985,0,75,41,31,25,19,17,18,30
2017/05/27/11:53:19.683931,136509,1495857199,683773994,0,79,37,31,23,18,19,18,23
2017/05/27/11:53:19.698931,136510,1495857199,698760986,0,82,37,30,24,20,19,18,25
2017/05/27/11:53:19.724784,136511,1495857199,721240043,0,80,32,28,23,20,20,19,25
2017/05/27/11:53:19.744019,136512,1495857199,743798971,0,81,31,27,22,20,20,21,25
2017/05/27/11:53:19.759005,136513,1495857199,758799076,0,77,28,25,19,22,19,20,24
2017/05/27/11:53:19.789699,136514,1495857199,789485931,0,59,28,26,19,22,18,21,25
2017/05/27/11:53:19.804247,136515,1495857199,803827047,0,106,40,48,28,22,17,20,24
2017/05/27/11:53:19.826435,136516,1495857199,826268911,0,113,49,58,31,23,19,19,26
2017/05/27/11:53:19.841493,136517,1495857199,841300964,0,118,51,58,31,23,19,17,25
2017/05/27/11:53:19.863982,136518,1495857199,863774061,0,118,52,59,31,21,18,18,23
2017/05/27/11:53:19.888026,136519,1495857199,887720108,0,119,51,60,33,23,20,17,23
2017/05/27/11:53:19.901498,136520,1495857199,901274919,0,79,42,46,27,22,22,18,24
2017/05/27/11:53:19.924027,136521,1495857199,923767089,0,73,33,33,25,20,20,19,22
2017/05/27/11:53:19.939112,136522,1495857199,938826084,0,70,32,33,25,21,20,19,24
2017/05/27/11:53:19.961590,136523,1495857199,961299896,0,64,31,40,33,22,20,20,26
2017/05/27/11:53:20.000332,136524,1495857200,148057,0,60,33,50,35,22,18,18,25
2017/05/27/11:53:20.001838,136525,1495857200,1713037,0,63,32,53,37,21,17,17,25
2017/05/27/11:53:20.021761,136526,1495857200,21363019,0,57,30,53,37,22,19,17,24
2017/05/27/11:53:20.052206,136527,1495857200,52000999,0,52,26,53,38,20,19,16,23
2017/05/27/11:53:20.060518,136528,1495857200,60225963,0,84,35,50,32,21,19,15,22
2017/05/27/11:53:20.082989,136529,1495857200,82721948,0,87,36,39,29,20,19,17,23
2017/05/27/11:53:20.103965,136530,1495857200,103781938,0,83,37,62,40,22,19,18,20
2017/05/27/11:53:20.120410,136531,1495857200,120230913,0,82,38,68,42,24,18,18,21
2017/05/27/11:53:20.141708,136532,1495857200,141375064,0,80,41,68,42,24,18,19,22
2017/05/27/11:53:20.166072,136533,1495857200,165909051,0,51,33,67,43,23,18,18,21
2017/05/27/11:53:20.178938,136534,1495857200,178745985,0,97,39,67,42,24,19,17,24
2017/05/27/11:53:20.209639,136535,1495857200,209456920,0,102,42,41,28,22,18,16,26
2017/05/27/11:53:20.224021,136536,1495857200,223803043,0,105,43,36,29,22,21,18,27
2017/05/27/11:53:20.239104,136537,1495857200,238893032,0,107,43,40,34,21,21,17,26
2017/05/27/11:53:20.261494,136538,1495857200,261292934,0,104,43,46,34,22,22,17,27
2017/05/27/11:53:20.284051,136539,1495857200,283824920,0,72,38,49,35,20,20,17,25
2017/05/27/11:53:20.298908,136540,1495857200,298707008,0,66,34,47,34,21,22,17,24
2017/05/27/11:53:20.331143,136541,1495857200,330952882,0,68,31,43,31,20,18,15,23
2017/05/27/11:53:20.343940,136542,1495857200,343751907,0,82,34,38,27,22,18,17,23
2017/05/27/11:53:20.366414,136543,1495857200,366271972,0,85,36,30,26,22,18,17,25
2017/05/27/11:53:20.381358,136544,1495857200,381226062,0,75,36,47,39,22,19,18,23
2017/05/27/11:53:20.404110,136545,1495857200,403872013,0,77,34,52,42,24,18,21,24
2017/05/27/11:53:20.426544,136546,1495857200,426280021,0,74,37,52,41,24,19,21,25
2017/05/27/11:53:20.442889,136547,1495857200,442723035,0,55,33,51,41,24,19,20,25
2017/05/27/11:53:20.463922,136548,1495857200,463766098,0,54,30,51,42,24,17,20,24
2017/05/27/11:53:20.486383,136549,1495857200,486244916,0,53,28,33,28,24,17,20,26
2017/05/27/11:53:20.501436,136550,1495857200,501277923,0,52,30,27,25,23,19,18,25
2017/05/27/11:53:20.523912,136551,1495857200,523763895,0,47,29,25,23,23,18,18,24
2017/05/27/11:53:20.554804,136552,1495857200,554548025,0,45,26,26,23,21,20,19,24
2017/05/27/11:53:20.561436,136553,1495857200,561269044,0,46,26,25,22,21,21,19,23
2017/05/27/11:53:20.584141,136554,1495857200,583851099,0,49,25,22,22,20,22,18,20
2017/05/27/11:53:20.606474,136555,1495857200,606256961,0,42,22,26,20,20,21,21,21
2017/05/27/11:53:20.623028,136556,1495857200,622746944,0,45,22,28,22,21,21,20,22
2017/05/27/11:53:20.643891,136557,1495857200,643732070,0,45,23,27,20,22,21,20,20
2017/05/27/11:53:20.666477,136558,1495857200,666291952,0,39,22,27,20,21,22,20,20
2017/05/27/11:53:20.681544,136559,1495857200,681313037,0,34,22,26,20,21,21,21,20
2017/05/27/11:53:20.703967,136560,1495857200,703773021,0,31,21,20,21,19,20,18,19
2017/05/27/11:53:20.726481,136561,1495857200,726294994,0,26,20,18,21,18,20,18,20
2017/05/27/11:53:20.741442,136562,1495857200,741252899,0,36,21,21,21,16,20,18,20
2017/05/27/11:53:20.772461,136563,1495857200,772023916,0,35,20,20,20,16,17,19,19
2017/05/27/11:53:20.786383,136564,1495857200,786252975,0,35,21,20,20,16,18,18,19
2017/05/27/11:53:20.801576,136565,1495857200,801311016,0,36,23,19,19,17,19,17,20
2017/05/27/11:53:20.823974,136566,1495857200,823781967,0,33,21,19,17,17,18,18,17
2017/05/27/11:53:20.846647,136567,1495857200,846343040,0,21,20,19,18,18,18,19,19
2017/05/27/11:53:20.861700,136568,1495857200,861355066,0,24,21,21,20,19,19,19,21
2017/05/27/11:53:20.883937,136569,1495857200,883764982,0,37,20,21,21,20,19,19,22
2017/05/27/11:53:20.906462,136570,1495857200,906290054,0,38,19,21,21,21,17,20,20
2017/05/27/11:53:20.921423,136571,1495857200,921278953,0,39,23,26,22,20,19,18,21
2017/05/27/11:53:20.944165,136572,1495857200,943866968,0,39,23,27,22,21,19,18,21
2017/05/27/11:53:20.966442,136573,1495857200,966284990,0,38,22,27,22,20,18,17,19
2017/05/27/11:53:20.981581,136574,1495857200,981287956,0,24,24,27,20,19,19,18,17
2017/05/27/11:53:21.003960,136575,1495857201,3803968,0,23,24,28,22,21,20,18,18
2017/05/27/11:53:21.026449,136576,1495857201,26277065,0,23,22,24,22,20,19,18,19
2017/05/27/11:53:21.041454,136577,1495857201,41235923,0,23,21,23,22,20,18,22,17
2017/05/27/11:53:21.064030,136578,1495857201,63736915,0,23,21,22,21,23,19,21,18
2017/05/27/11:53:21.086429,136579,1495857201,86250066,0,22,19,22,20,22,18,20,18
2017/05/27/11:53:21.101452,136580,1495857201,101254940,0,23,19,20,20,20,21,19,20
2017/05/27/11:53:21.124200,136581,1495857201,123861074,0,22,19,20,20,21,22,20,19
2017/05/27/11:53:21.146368,136582,1495857201,146217107,0,24,22,21,20,21,22,15,21
2017/05/27/11:53:21.165373,136583,1495857201,165096998,0,22,22,20,21,17,23,17,20
2017/05/27/11:53:21.183859,136584,1495857201,183732032,0,22,21,22,21,19,23,15,20
2017/05/27/11:53:21.206458,136585,1495857201,206268072,0,20,21,22,19,19,20,15,19
2017/05/27/11:53:21.221505,136586,1495857201,221295118,0,21,21,22,18,19,18,16,18
2017/05/27/11:53:21.244271,136587,1495857201,243846893,0,18,18,21,20,18,20,19,16
2017/05/27/11:53:21.266648,136588,1495857201,266360998,0,22,18,21,18,20,21,18,17
2017/05/27/11:53:21.281442,136589,1495857201,281275987,0,22,18,21,18,19,21,20,18
2017/05/27/11:53:21.304087,136590,1495857201,303854942,0,22,18,22,20,20,21,20,18
2017/05/27/11:53:21.326477,136591,1495857201,326314926,0,19,17,21,22,19,21,18,18
2017/05/27/11:53:21.349060,136592,1495857201,348846912,0,20,17,21,20,20,20,17,17
2017/05/27/11:53:21.364017,136593,1495857201,363742113,0,16,20,22,21,21,18,18,18
2017/05/27/11:53:21.386529,136594,1495857201,386342048,0,16,19,22,22,21,17,17,18
2017/05/27/11:53:21.408977,136595,1495857201,408791065,0,21,19,21,21,20,17,18,18
2017/05/27/11:53:21.424132,136596,1495857201,423837900,0,21,19,23,21,21,16,19,20
2017/05/27/11:53:21.446596,136597,1495857201,446289062,0,21,22,23,21,20,18,20,21
2017/05/27/11:53:21.469311,136598,1495857201,468863964,0,22,21,23,19,18,19,18,20
2017/05/27/11:53:21.483932,136599,1495857201,483745098,0,24,22,24,19,17,17,19,22
2017/05/27/11:53:21.506465,136600,1495857201,506253957,0,20,21,25,21,17,19,20,22
2017/05/27/11:53:21.529258,136601,1495857201,528917074,0,20,22,24,21,19,19,19,21
2017/05/27/11:53:21.544029,136602,1495857201,543814897,0,27,20,23,20,20,18,19,20
2017/05/27/11:53:21.566426,136603,1495857201,566250085,0,26,19,23,21,22,17,20,19
2017/05/27/11:53:21.589056,136604,1495857201,588829040,0,25,20,21,21,24,19,19,18
2017/05/27/11:53:21.603966,136605,1495857201,603782892,0,26,21,20,18,25,20,19,18
2017/05/27/11:53:21.626578,136606,1495857201,626305103,0,25,21,21,18,24,19,18,18
2017/05/27/11:53:21.648978,136607,1495857201,648766040,0,17,21,20,18,23,19,19,17
