time,.header.seq,.header.stamp.secs,.header.stamp.nsecs,.header.frame_id,.ch0,.ch1,.ch2,.ch3,.ch4,.ch5,.ch6,.ch7
2017/05/27/11:44:31.447840,110177,1495856671,447515964,0,92,205,329,213,114,96,69,64
2017/05/27/11:44:31.470117,110178,1495856671,469896078,0,91,202,295,194,112,94,69,58
2017/05/27/11:44:31.492790,110179,1495856671,492422103,0,104,212,320,220,131,89,70,54
2017/05/27/11:44:31.507614,110180,1495856671,507416963,0,101,178,274,205,122,82,62,48
2017/05/27/11:44:31.530215,110181,1495856671,529927015,0,93,179,239,198,117,80,60,48
2017/05/27/11:44:31.552675,110182,1495856671,552445888,0,102,336,287,219,127,87,64,54
2017/05/27/11:44:31.567821,110183,1495856671,567501068,0,131,356,310,237,131,93,65,61
2017/05/27/11:44:31.590166,110184,1495856671,589905023,0,119,338,287,211,125,98,68,64
2017/05/27/11:44:31.612608,110185,1495856671,612401962,0,118,352,303,216,124,98,69,64
2017/05/27/11:44:31.627832,110186,1495856671,627474069,0,133,382,313,231,131,103,72,67
2017/05/27/11:44:31.650190,110187,1495856671,649928092,0,134,288,271,214,133,107,78,71
2017/05/27/11:44:31.672824,110188,1495856671,672430038,0,113,306,294,210,131,99,74,63
2017/05/27/11:44:31.687828,110189,1495856671,687495946,0,111,298,303,218,129,100,71,65
2017/05/27/11:44:31.710140,110190,1495856671,709924936,0,110,308,306,225,140,106,75,68
2017/05/27/11:44:31.732764,110191,1495856671,732512950,0,81,283,303,211,128,98,70,65
2017/05/27/11:44:31.747680,110192,1495856671,747443914,0,73,264,303,210,115,96,63,57
2017/05/27/11:44:31.770212,110193,1495856671,769987106,0,63,237,297,233,125,98,65,60
2017/05/27/11:44:31.792619,110194,1495856671,792428016,0,67,270,310,234,118,91,62,53
2017/05/27/11:44:31.807894,110195,1495856671,807523012,0,73,280,332,232,135,104,66,52
2017/05/27/11:44:31.830105,110196,1495856671,829880952,0,73,283,345,255,146,105,67,53
2017/05/27/11:44:31.852542,110197,1495856671,852391004,0,77,362,385,295,159,99,64,55
2017/05/27/11:44:31.867675,110198,1495856671,867436885,0,79,387,365,264,153,108,73,60
2017/05/27/11:44:31.890208,110199,1495856671,890022993,0,77,400,332,253,155,106,72,61
2017/05/27/11:44:31.914136,110200,1495856671,913927078,0,73,394,319,256,131,87,73,62
2017/05/27/11:44:31.935078,110201,1495856671,934916973,0,72,400,311,252,125,85,75,61
2017/05/27/11:44:31.950163,110202,1495856671,949930906,0,63,348,299,219,115,86,72,58
2017/05/27/11:44:31.972677,110203,1495856671,972440004,0,61,362,279,220,124,83,66,55
2017/05/27/11:44:31.995129,110204,1495856671,994927883,0,58,325,289,222,116,80,64,52
2017/05/27/11:44:32.010118,110205,1495856672,9890079,0,53,347,247,195,112,78,50,47
2017/05/27/11:44:32.032610,110206,1495856672,32397031,0,50,336,233,181,111,79,43,43
2017/05/27/11:44:32.055212,110207,1495856672,54949045,0,58,344,208,179,130,122,55,55
2017/05/27/11:44:32.070201,110208,1495856672,69968938,0,55,341,232,187,132,141,56,53
2017/05/27/11:44:32.102329,110209,1495856672,102114915,0,59,380,247,183,133,141,57,55
2017/05/27/11:44:32.115276,110210,1495856672,115036010,0,62,350,258,195,132,139,56,55
2017/05/27/11:44:32.131655,110211,1495856672,131402015,0,76,394,272,215,141,150,66,63
2017/05/27/11:44:32.152671,110212,1495856672,152436971,0,78,433,254,201,127,124,56,54
2017/05/27/11:44:32.175251,110213,1495856672,174990892,0,80,415,244,185,110,95,51,52
2017/05/27/11:44:32.190137,110214,1495856672,189893960,0,87,403,326,232,124,105,57,61
2017/05/27/11:44:32.212706,110215,1495856672,212414026,0,89,422,343,245,137,115,68,70
2017/05/27/11:44:32.235306,110216,1495856672,234994888,0,81,392,353,228,124,101,64,75
2017/05/27/11:44:32.250117,110217,1495856672,249887943,0,76,333,353,219,118,106,69,79
2017/05/27/11:44:32.272621,110218,1495856672,272417068,0,83,360,361,229,119,111,78,85
2017/05/27/11:44:32.295154,110219,1495856672,294918060,0,78,361,296,200,111,108,75,79
2017/05/27/11:44:32.310146,110220,1495856672,309937953,0,73,344,290,190,100,106,73,73
2017/05/27/11:44:32.334176,110221,1495856672,333919048,0,76,369,266,188,100,115,73,69
2017/05/27/11:44:32.363286,110222,1495856672,363118886,0,75,380,264,195,101,109,69,65
2017/05/27/11:44:32.370725,110223,1495856672,369901895,0,66,341,240,188,102,107,67,61
2017/05/27/11:44:32.392874,110224,1495856672,392534971,0,61,333,220,165,114,121,75,59
2017/05/27/11:44:32.423309,110225,1495856672,423084020,0,64,320,196,152,136,124,79,64
2017/05/27/11:44:32.430155,110226,1495856672,429944992,0,74,413,215,153,142,125,81,58
2017/05/27/11:44:32.452862,110227,1495856672,452497959,0,79,420,245,177,146,127,80,58
2017/05/27/11:44:32.476672,110228,1495856672,476366043,0,81,441,253,175,164,135,77,59
2017/05/27/11:44:32.500995,110229,1495856672,500730991,0,83,436,243,181,159,134,76,63
2017/05/27/11:44:32.529801,110230,1495856672,529586076,0,87,447,252,174,150,127,67,55
2017/05/27/11:44:32.542602,110231,1495856672,542414903,0,80,353,231,160,146,122,63,57
2017/05/27/11:44:32.559052,110232,1495856672,558825969,0,90,389,198,129,144,130,73,69
2017/05/27/11:44:32.574072,110233,1495856672,573873043,0,87,348,189,117,125,132,76,65
2017/05/27/11:44:32.596639,110234,1495856672,596399068,0,91,365,223,131,130,133,75,66
2017/05/27/11:44:32.617691,110235,1495856672,617472887,0,94,402,319,187,122,134,81,72
2017/05/27/11:44:32.634176,110236,1495856672,633965969,0,89,383,326,199,134,130,79,75
2017/05/27/11:44:32.655309,110237,1495856672,655010938,0,76,317,330,205,132,121,79,71
2017/05/27/11:44:32.677677,110238,1495856672,677465915,0,73,339,355,221,147,117,82,72
2017/05/27/11:44:32.694129,110239,1495856672,693892955,0,92,425,359,210,169,106,75,74
2017/05/27/11:44:32.715241,110240,1495856672,714982032,0,84,399,263,160,164,107,80,69
2017/05/27/11:44:32.737599,110241,1495856672,737361907,0,81,387,257,144,157,120,80,65
2017/05/27/11:44:32.760164,110242,1495856672,759908914,0,89,409,276,158,169,123,75,64
2017/05/27/11:44:32.782933,110243,1495856672,782538890,0,90,416,245,140,151,117,70,66
2017/05/27/11:44:32.797700,110244,1495856672,797418117,0,61,304,193,140,120,118,76,73
2017/05/27/11:44:32.814263,110245,1495856672,813922882,0,61,287,206,145,122,122,77,86
2017/05/27/11:44:32.835131,110246,1495856672,834899902,0,71,325,236,178,119,110,82,88
2017/05/27/11:44:32.857956,110247,1495856672,857527017,0,56,301,207,165,119,99,81,84
2017/05/27/11:44:32.874077,110248,1495856672,873862028,0,64,294,205,158,139,108,79,83
2017/05/27/11:44:32.895375,110249,1495856672,894998073,0,72,328,238,186,135,100,79,79
2017/05/27/11:44:32.917662,110250,1495856672,917387008,0,76,346,232,181,137,100,68,67
2017/05/27/11:44:32.934248,110251,1495856672,933878898,0,74,342,209,159,134,97,62,62
2017/05/27/11:44:32.956574,110252,1495856672,956357955,0,94,382,215,161,127,103,62,71
2017/05/27/11:44:32.977775,110253,1495856672,977514028,0,90,369,227,182,113,99,67,72
2017/05/27/11:44:32.994084,110254,1495856672,993880033,0,88,340,229,171,114,97,68,68
2017/05/27/11:44:33.016806,110255,1495856673,16421079,0,87,318,234,189,140,88,65,71
2017/05/27/11:44:33.037625,110256,1495856673,37396907,0,90,320,222,190,153,85,69,75
2017/05/27/11:44:33.054104,110257,1495856673,53874015,0,73,269,209,186,148,78,66,67
2017/05/27/11:44:33.075215,110258,1495856673,74909925,0,87,333,236,182,165,117,64,69
2017/05/27/11:44:33.097983,110259,1495856673,97536087,0,82,327,228,175,166,118,61,67
2017/05/27/11:44:33.114063,110260,1495856673,113862991,0,89,325,227,156,146,119,62,65
2017/05/27/11:44:33.136566,110261,1495856673,136424064,0,82,294,253,155,134,123,56,63
2017/05/27/11:44:33.161382,110262,1495856673,161005020,0,82,291,263,158,133,135,74,82
2017/05/27/11:44:33.174117,110263,1495856673,173898935,0,76,269,227,156,115,104,80,84
2017/05/27/11:44:33.195186,110264,1495856673,194963932,0,84,286,198,143,115,100,75,83
2017/05/27/11:44:33.217608,110265,1495856673,217397928,0,76,303,215,152,117,112,80,82
2017/05/27/11:44:33.234071,110266,1495856673,233879089,0,76,307,187,149,112,106,82,84
2017/05/27/11:44:33.255425,110267,1495856673,255019903,0,80,362,205,142,113,90,65,71
2017/05/27/11:44:33.279164,110268,1495856673,278873920,0,74,349,204,143,100,84,59,72
2017/05/27/11:44:33.305340,110269,1495856673,305084943,0,66,354,226,173,91,88,65,84
2017/05/27/11:44:33.315163,110270,1495856673,314913988,0,70,374,210,170,81,79,63,85
2017/05/27/11:44:33.337883,110271,1495856673,337541103,0,76,417,220,173,89,80,64,84
2017/05/27/11:44:33.354217,110272,1495856673,353893041,0,76,410,196,177,89,94,67,85
2017/05/27/11:44:33.375155,110273,1495856673,374960899,0,80,437,196,185,113,100,71,84
2017/05/27/11:44:33.397603,110274,1495856673,397394895,0,105,546,254,177,126,100,66,79
2017/05/27/11:44:33.414553,110275,1495856673,414356946,0,122,625,281,199,138,99,78,88
2017/05/27/11:44:33.436620,110276,1495856673,436376094,0,120,601,273,192,138,104,77,102
2017/05/27/11:44:33.457727,110277,1495856673,457426071,0,128,631,287,192,145,95,75,99
2017/05/27/11:44:33.474102,110278,1495856673,473871946,0,124,597,322,202,138,91,72,97
2017/05/27/11:44:33.496643,110279,1495856673,496397972,0,111,501,290,225,145,102,82,98
2017/05/27/11:44:33.517714,110280,1495856673,517493009,0,94,386,273,208,138,102,69,89
2017/05/27/11:44:33.534225,110281,1495856673,533910989,0,99,386,283,215,139,104,77,85
2017/05/27/11:44:33.556587,110282,1495856673,556387901,0,82,314,285,216,131,102,77,89
2017/05/27/11:44:33.577532,110283,1495856673,577392101,0,90,373,248,189,120,97,72,91
2017/05/27/11:44:33.594030,110284,1495856673,593879938,0,91,378,221,140,113,92,63,87
2017/05/27/11:44:33.618225,110285,1495856673,618019104,0,94,383,217,139,112,90,59,83
2017/05/27/11:44:33.637630,110286,1495856673,637423038,0,87,375,232,139,107,86,48,69
2017/05/27/11:44:33.660120,110287,1495856673,659899950,0,89,359,233,167,115,89,50,67
2017/05/27/11:44:33.676674,110288,1495856673,676446914,0,89,406,227,166,113,92,53,59
2017/05/27/11:44:33.697666,110289,1495856673,697432994,0,84,442,225,170,112,85,48,60
2017/05/27/11:44:33.720190,110290,1495856673,719955921,0,78,441,213,165,107,82,52,64
2017/05/27/11:44:33.736660,110291,1495856673,736418008,0,83,444,191,156,106,79,50,63
2017/05/27/11:44:33.757606,110292,1495856673,757389068,0,89,461,238,155,110,74,58,68
2017/05/27/11:44:33.780250,110293,1495856673,780000925,0,96,412,246,158,114,81,63,76
2017/05/27/11:44:33.796583,110294,1495856673,796363115,0,94,369,243,150,118,81,64,76
2017/05/27/11:44:33.817637,110295,1495856673,817428112,0,91,366,266,163,148,87,65,77
2017/05/27/11:44:33.840249,110296,1495856673,839931964,0,86,358,261,175,153,90,68,79
2017/05/27/11:44:33.856571,110297,1495856673,856365919,0,76,318,194,140,149,86,60,70
2017/05/27/11:44:33.877588,110298,1495856673,877422094,0,64,286,201,136,160,82,53,61
2017/05/27/11:44:33.900058,110299,1495856673,899857997,0,59,258,229,151,151,87,55,57
2017/05/27/11:44:33.916583,110300,1495856673,916363954,0,57,224,200,151,138,81,53,56
2017/05/27/11:44:33.937585,110301,1495856673,937412023,0,62,243,196,146,164,98,51,55
2017/05/27/11:44:33.960131,110302,1495856673,959969997,0,64,250,200,150,161,103,55,54
2017/05/27/11:44:33.976597,110303,1495856673,976368904,0,57,206,187,151,152,113,56,52
2017/05/27/11:44:33.997558,110304,1495856673,997404098,0,58,234,163,144,160,107,54,51
2017/05/27/11:44:34.020166,110305,1495856674,19948005,0,58,227,174,145,169,116,61,50
2017/05/27/11:44:34.036546,110306,1495856674,36392927,0,55,216,182,160,193,107,64,50
2017/05/27/11:44:34.057718,110307,1495856674,57504892,0,53,221,178,165,193,102,59,49
2017/05/27/11:44:34.080178,110308,1495856674,79904079,0,55,216,180,167,208,92,58,50
2017/05/27/11:44:34.096859,110309,1495856674,96518993,0,56,166,182,159,213,91,55,49
2017/05/27/11:44:34.117758,110310,1495856674,117409944,0,58,175,194,148,200,77,44,50
2017/05/27/11:44:34.147703,110311,1495856674,147490024,0,60,210,187,122,163,79,43,47
2017/05/27/11:44:34.157683,110312,1495856674,157448053,0,60,207,177,109,165,82,41,48
2017/05/27/11:44:34.177744,110313,1495856674,177431106,0,56,212,176,108,156,79,42,48
2017/05/27/11:44:34.200427,110314,1495856674,199935913,0,52,213,182,109,155,83,44,48
2017/05/27/11:44:34.216549,110315,1495856674,216362953,0,52,216,159,109,163,87,47,44
2017/05/27/11:44:34.237552,110316,1495856674,237363100,0,44,168,164,123,160,86,42,42
2017/05/27/11:44:34.260386,110317,1495856674,259993076,0,44,166,166,123,171,87,44,41
2017/05/27/11:44:34.284173,110318,1495856674,283880949,0,50,193,180,127,154,82,46,43
2017/05/27/11:44:34.297855,110319,1495856674,297511100,0,50,192,177,140,190,94,49,45
2017/05/27/11:44:34.320125,110320,1495856674,319915056,0,46,177,165,136,196,102,58,45
2017/05/27/11:44:34.336873,110321,1495856674,336429119,0,46,173,160,139,214,101,62,45
2017/05/27/11:44:34.357805,110322,1495856674,357435941,0,46,161,165,147,211,100,62,44
2017/05/27/11:44:34.380133,110323,1495856674,379925966,0,39,111,139,138,243,108,65,44
2017/05/27/11:44:34.396489,110324,1495856674,396333932,0,39,128,118,128,220,103,64,42
2017/05/27/11:44:34.417640,110325,1495856674,417408943,0,36,126,125,128,211,94,54,44
2017/05/27/11:44:34.440167,110326,1495856674,439958095,0,39,154,151,150,211,125,61,47
2017/05/27/11:44:34.456559,110327,1495856674,456404924,0,36,161,151,149,211,135,65,49
2017/05/27/11:44:34.485106,110328,1495856674,484910964,0,38,170,156,148,186,129,62,46
2017/05/27/11:44:34.507729,110329,1495856674,507426977,0,38,156,158,156,190,129,63,47
2017/05/27/11:44:34.522631,110330,1495856674,522416114,0,42,156,176,162,194,128,62,44
2017/05/27/11:44:34.537747,110331,1495856674,537476062,0,45,134,159,130,182,102,50,46
2017/05/27/11:44:34.560364,110332,1495856674,560081005,0,44,137,162,123,181,86,46,46
2017/05/27/11:44:34.576595,110333,1495856674,576391935,0,43,156,175,129,177,92,49,50
2017/05/27/11:44:34.599895,110334,1495856674,599558115,0,43,168,228,137,175,93,47,48
2017/05/27/11:44:34.620102,110335,1495856674,619882106,0,51,202,222,139,197,106,49,46
2017/05/27/11:44:34.636612,110336,1495856674,636419057,0,49,209,223,135,188,101,51,40
2017/05/27/11:44:34.657622,110337,1495856674,657426118,0,52,202,222,142,186,105,52,42
2017/05/27/11:44:34.680072,110338,1495856674,679882049,0,51,181,231,147,183,101,51,37
2017/05/27/11:44:34.702805,110339,1495856674,702465057,0,51,171,178,126,204,93,48,39
2017/05/27/11:44:34.719051,110340,1495856674,718836069,0,42,119,169,122,189,84,47,40
2017/05/27/11:44:34.740129,110341,1495856674,739937067,0,46,128,161,129,194,84,47,41
2017/05/27/11:44:34.762594,110342,1495856674,762444972,0,48,127,167,124,200,85,46,37
2017/05/27/11:44:34.779080,110343,1495856674,778847932,0,53,189,211,141,214,88,43,37
2017/05/27/11:44:34.800159,110344,1495856674,799935102,0,56,198,219,136,179,91,47,39
2017/05/27/11:44:34.830118,110345,1495856674,829925060,0,55,196,223,140,180,95,50,40
2017/05/27/11:44:34.839165,110346,1495856674,838926076,0,49,178,221,142,194,95,51,41
2017/05/27/11:44:34.867682,110347,1495856674,867454051,0,52,187,209,137,201,94,53,39
2017/05/27/11:44:34.882819,110348,1495856674,882479906,0,52,140,148,124,191,92,54,41
2017/05/27/11:44:34.899063,110349,1495856674,898869991,0,54,133,167,144,196,94,52,41
2017/05/27/11:44:34.920133,110350,1495856674,919888973,0,55,136,159,137,195,88,50,44
2017/05/27/11:44:34.942622,110351,1495856674,942411899,0,54,136,168,134,188,87,48,43
2017/05/27/11:44:34.959118,110352,1495856674,958889007,0,47,124,173,141,207,91,46,47
2017/05/27/11:44:34.980146,110353,1495856674,979896068,0,41,119,165,122,204,92,46,42
2017/05/27/11:44:35.002635,110354,1495856675,2443075,0,34,94,126,100,204,91,44,40
2017/05/27/11:44:35.019114,110355,1495856675,18870115,0,35,99,128,99,205,91,43,37
2017/05/27/11:44:35.040217,110356,1495856675,39931058,0,41,126,136,129,217,94,46,36
2017/05/27/11:44:35.064206,110357,1495856675,63921928,0,47,158,138,127,188,87,47,33
2017/05/27/11:44:35.079024,110358,1495856675,78856945,0,56,161,152,140,196,85,46,38
2017/05/27/11:44:35.100085,110359,1495856675,99872112,0,57,161,160,140,185,78,45,38
2017/05/27/11:44:35.122578,110360,1495856675,122401952,0,55,157,155,146,169,70,44,36
2017/05/27/11:44:35.146536,110361,1495856675,146388053,0,50,137,139,115,157,71,41,35
2017/05/27/11:44:35.160127,110362,1495856675,159945011,0,47,97,135,117,171,85,44,34
2017/05/27/11:44:35.182637,110363,1495856675,182452917,0,36,86,129,117,204,89,52,38
2017/05/27/11:44:35.199109,110364,1495856675,198868036,0,35,87,147,115,209,92,52,38
2017/05/27/11:44:35.221671,110365,1495856675,221412897,0,39,86,152,121,263,120,63,43
2017/05/27/11:44:35.242571,110366,1495856675,242388010,0,42,89,159,126,255,115,64,44
2017/05/27/11:44:35.259108,110367,1495856675,258892059,0,43,93,161,126,244,107,61,44
2017/05/27/11:44:35.280332,110368,1495856675,279944896,0,52,108,148,126,224,104,58,43
2017/05/27/11:44:35.310138,110369,1495856675,309953927,0,52,116,120,134,225,105,63,42
2017/05/27/11:44:35.319071,110370,1495856675,318869113,0,52,119,162,132,181,88,58,42
2017/05/27/11:44:35.340108,110371,1495856675,339919090,0,52,133,191,148,203,97,62,46
2017/05/27/11:44:35.362579,110372,1495856675,362411022,0,51,132,193,145,209,96,61,47
2017/05/27/11:44:35.379053,110373,1495856675,378895998,0,44,122,195,142,212,98,61,45
2017/05/27/11:44:35.402665,110374,1495856675,402373075,0,44,111,198,140,208,98,58,45
2017/05/27/11:44:35.422561,110375,1495856675,422367095,0,42,107,170,123,187,91,57,42
2017/05/27/11:44:35.446616,110376,1495856675,446386098,0,41,104,152,112,182,84,52,35
2017/05/27/11:44:35.460134,110377,1495856675,459940910,0,40,100,152,110,180,94,56,36
2017/05/27/11:44:35.490180,110378,1495856675,489928960,0,35,79,140,98,201,101,53,34
2017/05/27/11:44:35.499205,110379,1495856675,498851060,0,33,98,180,105,210,112,58,39
2017/05/27/11:44:35.520123,110380,1495856675,519901990,0,31,106,197,131,219,110,52,38
2017/05/27/11:44:35.542924,110381,1495856675,542551994,0,33,97,184,123,229,110,49,38
2017/05/27/11:44:35.559057,110382,1495856675,558870077,0,32,103,189,138,220,101,48,37
2017/05/27/11:44:35.580525,110383,1495856675,580029964,0,33,104,193,142,209,97,49,37
2017/05/27/11:44:35.602700,110384,1495856675,602401971,0,31,88,160,131,200,86,42,33
2017/05/27/11:44:35.619385,110385,1495856675,618904113,0,30,78,124,111,189,82,40,33
2017/05/27/11:44:35.640117,110386,1495856675,639889001,0,26,70,115,111,166,78,41,35
2017/05/27/11:44:35.662616,110387,1495856675,662415981,0,26,60,92,96,169,81,38,33
2017/05/27/11:44:35.679213,110388,1495856675,678968906,0,30,67,93,102,140,73,36,35
2017/05/27/11:44:35.700162,110389,1495856675,699920892,0,38,74,87,105,149,69,34,34
2017/05/27/11:44:35.722657,110390,1495856675,722449064,0,42,83,112,106,146,66,37,33
2017/05/27/11:44:35.753263,110391,1495856675,753067970,0,44,85,121,100,138,65,41,31
2017/05/27/11:44:35.760120,110392,1495856675,759900093,0,44,84,132,99,134,69,44,32
2017/05/27/11:44:35.782872,110393,1495856675,782398939,0,41,81,132,99,153,73,44,32
2017/05/27/11:44:35.805213,110394,1495856675,804944992,0,35,73,122,98,161,73,44,31
2017/05/27/11:44:35.820424,110395,1495856675,819930076,0,30,68,100,94,166,75,45,33
2017/05/27/11:44:35.842728,110396,1495856675,842397928,0,33,80,98,100,182,84,42,35
2017/05/27/11:44:35.865469,110397,1495856675,865012884,0,36,89,88,100,181,77,41,37
2017/05/27/11:44:35.880145,110398,1495856675,879931926,0,39,94,107,93,165,73,44,36
2017/05/27/11:44:35.902623,110399,1495856675,902425050,0,41,98,121,108,160,72,48,38
2017/05/27/11:44:35.925120,110400,1495856675,924906969,0,42,96,126,108,162,72,47,39
2017/05/27/11:44:35.940126,110401,1495856675,939913988,0,37,82,122,103,144,61,49,38
2017/05/27/11:44:35.962793,110402,1495856675,962481975,0,36,83,144,108,155,65,47,37
2017/05/27/11:44:35.985160,110403,1495856675,984925985,0,35,74,133,102,155,67,42,35
2017/05/27/11:44:36.001774,110404,1495856676,1492977,0,33,74,141,96,157,69,40,35
2017/05/27/11:44:36.022643,110405,1495856676,22403001,0,31,70,138,100,160,77,39,33
2017/05/27/11:44:36.045176,110406,1495856676,44960021,0,31,75,142,104,182,81,39,34
2017/05/27/11:44:36.061637,110407,1495856676,61400890,0,28,65,119,96,187,83,41,32
2017/05/27/11:44:36.082856,110408,1495856676,82452058,0,28,64,114,99,192,86,50,36
2017/05/27/11:44:36.105084,110409,1495856676,104883909,0,29,64,104,103,193,87,53,39
2017/05/27/11:44:36.121583,110410,1495856676,121365070,0,33,82,110,97,195,80,54,39
2017/05/27/11:44:36.142746,110411,1495856676,142417907,0,33,77,104,92,176,76,53,41
2017/05/27/11:44:36.165070,110412,1495856676,164879083,0,34,79,112,89,178,71,53,44
2017/05/27/11:44:36.181736,110413,1495856676,181395053,0,37,90,116,89,168,64,46,40
2017/05/27/11:44:36.204046,110414,1495856676,203825950,0,35,92,115,92,151,60,41,37
2017/05/27/11:44:36.225203,110415,1495856676,224967956,0,35,80,109,97,184,62,40,39
2017/05/27/11:44:36.241670,110416,1495856676,241389989,0,35,84,115,98,187,63,41,35
2017/05/27/11:44:36.262631,110417,1495856676,262420892,0,38,83,108,100,182,65,43,35
2017/05/27/11:44:36.285098,110418,1495856676,284877061,0,40,73,112,110,185,63,47,40
2017/05/27/11:44:36.301556,110419,1495856676,301382064,0,41,65,105,103,189,65,51,45
2017/05/27/11:44:36.322804,110420,1495856676,322498083,0,42,73,107,99,159,67,51,43
2017/05/27/11:44:36.352946,110421,1495856676,352576017,0,42,73,102,96,146,69,50,43
2017/05/27/11:44:36.361748,110422,1495856676,361469030,0,39,76,104,102,131,67,48,41
2017/05/27/11:44:36.382559,110423,1495856676,382354021,0,34,71,99,94,149,70,49,43
2017/05/27/11:44:36.405293,110424,1495856676,404984951,0,33,73,123,112,147,77,48,38
2017/05/27/11:44:36.421607,110425,1495856676,421386003,0,35,69,124,115,172,83,50,37
2017/05/27/11:44:36.450233,110426,1495856676,449888944,0,35,71,122,119,169,79,53,40
2017/05/27/11:44:36.465236,110427,1495856676,465007066,0,37,66,131,128,171,84,59,44
2017/05/27/11:44:36.481525,110428,1495856676,481333017,0,38,76,133,133,151,87,57,39
2017/05/27/11:44:36.502598,110429,1495856676,502377986,0,40,76,118,123,168,83,58,42
2017/05/27/11:44:36.525241,110430,1495856676,524980068,0,36,68,113,122,138,78,60,47
2017/05/27/11:44:36.541553,110431,1495856676,541342973,0,37,88,121,131,149,72,54,41
2017/05/27/11:44:36.562539,110432,1495856676,562361955,0,36,96,113,120,153,68,47,39
2017/05/27/11:44:36.585200,110433,1495856676,584904909,0,38,94,117,116,158,67,47,43
2017/05/27/11:44:36.602115,110434,1495856676,601917028,0,38,98,98,109,163,65,41,41
2017/05/27/11:44:36.623031,110435,1495856676,622596025,0,38,99,104,112,156,61,33,38
2017/05/27/11:44:36.647081,110436,1495856676,646861076,0,39,86,106,97,151,78,43,45
2017/05/27/11:44:36.667559,110437,1495856676,667357921,0,37,73,103,95,161,76,43,43
2017/05/27/11:44:36.682659,110438,1495856676,682394981,0,33,66,103,99,161,76,43,39
2017/05/27/11:44:36.705163,110439,1495856676,704938888,0,32,58,124,94,138,77,45,41
2017/05/27/11:44:36.727573,110440,1495856676,727411031,0,33,59,121,90,153,78,51,41
2017/05/27/11:44:36.742579,110441,1495856676,742413997,0,29,54,114,101,164,70,51,37
2017/05/27/11:44:36.765074,110442,1495856676,764904975,0,29,59,111,98,168,69,53,40
2017/05/27/11:44:36.787735,110443,1495856676,787399053,0,30,61,103,90,167,65,54,42
2017/05/27/11:44:36.802760,110444,1495856676,802418947,0,29,60,87,94,170,67,52,39
2017/05/27/11:44:36.825233,110445,1495856676,824892997,0,30,82,101,100,160,70,49,37
2017/05/27/11:44:36.855925,110446,1495856676,855644941,0,29,82,98,98,178,70,46,36
2017/05/27/11:44:36.862694,110447,1495856676,862458944,0,33,78,95,104,178,71,42,32
2017/05/27/11:44:36.885107,110448,1495856676,884912014,0,31,82,99,103,173,71,39,31
2017/05/27/11:44:36.917285,110449,1495856676,917114973,0,38,93,104,100,169,67,38,34
2017/05/27/11:44:36.922793,110450,1495856676,922418117,0,48,121,196,155,161,66,43,39
2017/05/27/11:44:36.945148,110451,1495856676,944921970,0,50,128,204,152,123,68,44,44
2017/05/27/11:44:36.969047,110452,1495856676,968817949,0,50,133,210,151,113,69,43,45
2017/05/27/11:44:36.982546,110453,1495856676,982377052,0,51,137,213,149,118,70,42,46
2017/05/27/11:44:37.006552,110454,1495856677,6392955,0,48,142,217,151,135,71,47,45
2017/05/27/11:44:37.027585,110455,1495856677,27436017,0,38,105,131,89,139,68,42,42
2017/05/27/11:44:37.042672,110456,1495856677,42503118,0,35,96,122,97,138,61,35,35
2017/05/27/11:44:37.080825,110457,1495856677,80629110,0,44,127,137,111,143,59,36,33
2017/05/27/11:44:37.087721,110458,1495856677,87452888,0,73,221,184,127,149,57,37,44
2017/05/27/11:44:37.102619,110459,1495856677,102473020,0,98,261,206,149,139,58,33,54
2017/05/27/11:44:37.132700,110460,1495856677,132473945,0,99,271,214,156,139,55,32,53
2017/05/27/11:44:37.147563,110461,1495856677,147367000,0,100,280,216,161,136,49,31,54
2017/05/27/11:44:37.162643,110462,1495856677,162424087,0,108,414,242,203,120,49,31,58
2017/05/27/11:44:37.194234,110463,1495856677,193903923,0,107,436,264,203,107,49,38,64
2017/05/27/11:44:37.207708,110464,1495856677,207405090,0,93,486,252,193,122,72,48,55
2017/05/27/11:44:37.222808,110465,1495856677,222491979,0,98,507,257,194,132,99,53,62
2017/05/27/11:44:37.247246,110466,1495856677,247056961,0,101,519,258,192,137,103,54,62
2017/05/27/11:44:37.267799,110467,1495856677,267436027,0,90,427,227,156,137,107,53,58
2017/05/27/11:44:37.284129,110468,1495856677,283855915,0,74,374,152,145,133,106,47,42
2017/05/27/11:44:37.305321,110469,1495856677,304922103,0,63,270,130,134,115,91,36,41
2017/05/27/11:44:37.327554,110470,1495856677,327404022,0,52,219,104,124,89,57,29,33
2017/05/27/11:44:37.360156,110471,1495856677,359992027,0,47,183,89,109,80,49,51,43
2017/05/27/11:44:37.366536,110472,1495856677,366394042,0,45,168,63,71,62,37,52,42
2017/05/27/11:44:37.387721,110473,1495856677,387470006,0,37,134,52,61,61,34,52,40
2017/05/27/11:44:37.411535,110474,1495856677,411334991,0,37,135,55,57,51,27,53,41
2017/05/27/11:44:37.425040,110475,1495856677,424859046,0,36,136,51,46,49,24,52,38
2017/05/27/11:44:37.447554,110476,1495856677,447377920,0,36,128,49,43,48,25,27,24
2017/05/27/11:44:37.471514,110477,1495856677,471321105,0,37,119,46,42,45,22,25,25
2017/05/27/11:44:37.492604,110478,1495856677,492427110,0,41,127,46,44,44,22,24,25
2017/05/27/11:44:37.524110,110479,1495856677,523816108,0,40,127,58,40,32,21,22,25
2017/05/27/11:44:37.525486,110480,1495856677,525326013,0,41,124,79,41,29,22,22,27
2017/05/27/11:44:37.545298,110481,1495856677,544972896,0,39,125,81,41,27,20,50,36
2017/05/27/11:44:37.575122,110482,1495856677,574889898,0,32,100,88,45,29,21,54,38
2017/05/27/11:44:37.584079,110483,1495856677,583870887,0,28,94,97,49,31,21,54,38
2017/05/27/11:44:37.605120,110484,1495856677,604877948,0,29,82,85,49,31,22,55,38
2017/05/27/11:44:37.629256,110485,1495856677,628911972,0,36,103,72,48,30,20,56,36
2017/05/27/11:44:37.650217,110486,1495856677,649900913,0,39,106,87,59,37,23,34,29
2017/05/27/11:44:37.665257,110487,1495856677,664931058,0,43,130,166,86,45,26,31,28
2017/05/27/11:44:37.687601,110488,1495856677,687381982,0,42,129,167,85,44,26,30,29
2017/05/27/11:44:37.710212,110489,1495856677,709909915,0,46,137,178,95,46,27,30,29
2017/05/27/11:44:37.725086,110490,1495856677,724881887,0,40,133,226,143,67,35,32,28
2017/05/27/11:44:37.749096,110491,1495856677,748864889,0,44,158,296,167,74,37,33,29
2017/05/27/11:44:37.770091,110492,1495856677,769859075,0,67,134,277,161,72,37,31,33
2017/05/27/11:44:37.800802,110493,1495856677,800570011,0,67,133,289,172,74,40,33,32
2017/05/27/11:44:37.807640,110494,1495856677,807415962,0,67,129,300,194,82,45,38,37
2017/05/27/11:44:37.830138,110495,1495856677,829910039,0,68,121,268,167,67,41,38,37
2017/05/27/11:44:37.845191,110496,1495856677,844911098,0,71,87,204,147,58,41,35,37
2017/05/27/11:44:37.867648,110497,1495856677,867377042,0,63,90,183,143,54,38,33,31
2017/05/27/11:44:37.890120,110498,1495856677,889864921,0,68,103,188,144,54,37,34,35
2017/05/27/11:44:37.907159,110499,1495856677,906930923,0,68,112,180,116,44,33,26,30
2017/05/27/11:44:37.927600,110500,1495856677,927350997,0,67,114,199,132,46,34,25,31
2017/05/27/11:44:37.950174,110501,1495856677,949919939,0,72,109,181,133,48,36,26,31
2017/05/27/11:44:37.966548,110502,1495856677,966304063,0,79,132,180,132,49,37,27,34
2017/05/27/11:44:37.987751,110503,1495856677,987446069,0,85,138,185,125,47,35,25,33
2017/05/27/11:44:38.010253,110504,1495856678,9958982,0,87,136,185,122,49,35,27,34
2017/05/27/11:44:38.025199,110505,1495856678,24941921,0,89,138,174,101,46,35,26,35
2017/05/27/11:44:38.047592,110506,1495856678,47338962,0,82,139,183,95,42,31,24,33
2017/05/27/11:44:38.070081,110507,1495856678,69849014,0,65,129,183,97,42,32,26,32
2017/05/27/11:44:38.087251,110508,1495856678,87021112,0,52,127,158,97,43,34,27,30
2017/05/27/11:44:38.109226,110509,1495856678,108902931,0,47,125,144,99,39,31,24,28
2017/05/27/11:44:38.131579,110510,1495856678,131354093,0,41,124,144,100,38,29,23,27
2017/05/27/11:44:38.146581,110511,1495856678,146348953,0,40,126,134,100,40,27,24,28
2017/05/27/11:44:38.167603,110512,1495856678,167340993,0,42,143,206,182,85,51,37,39
2017/05/27/11:44:38.190178,110513,1495856678,189946889,0,43,135,208,183,87,55,43,45
2017/05/27/11:44:38.206573,110514,1495856678,206320047,0,41,134,217,181,91,57,45,45
2017/05/27/11:44:38.243410,110515,1495856678,243184089,0,42,144,233,187,93,57,45,46
2017/05/27/11:44:38.250414,110516,1495856678,249922990,0,41,138,244,196,93,57,45,47
2017/05/27/11:44:38.266569,110517,1495856678,266360998,0,35,114,195,132,63,39,35,37
2017/05/27/11:44:38.287918,110518,1495856678,287468910,0,31,112,202,128,58,31,26,29
2017/05/27/11:44:38.310096,110519,1495856678,309860944,0,32,104,190,125,53,30,25,33
2017/05/27/11:44:38.326802,110520,1495856678,326371908,0,31,85,172,131,52,28,27,38
2017/05/27/11:44:38.355095,110521,1495856678,354891061,0,31,95,169,128,54,32,28,41
2017/05/27/11:44:38.371746,110522,1495856678,371423959,0,31,91,162,114,47,30,27,43
2017/05/27/11:44:38.394284,110523,1495856678,393898963,0,28,95,142,112,46,30,26,42
2017/05/27/11:44:38.409103,110524,1495856678,408849000,0,27,98,144,120,48,31,25,40
2017/05/27/11:44:38.430190,110525,1495856678,429969072,0,25,92,131,102,45,32,27,35
2017/05/27/11:44:38.446536,110526,1495856678,446335077,0,26,81,132,95,44,30,24,31
2017/05/27/11:44:38.469446,110527,1495856678,469280958,0,26,94,145,95,42,28,24,26
2017/05/27/11:44:38.498007,110528,1495856678,497570991,0,27,85,143,98,44,29,27,30
2017/05/27/11:44:38.506521,110529,1495856678,506309032,0,28,108,142,86,39,26,24,29
2017/05/27/11:44:38.527624,110530,1495856678,527396917,0,29,119,154,94,41,26,22,29
2017/05/27/11:44:38.550587,110531,1495856678,550148963,0,27,119,142,87,39,28,25,28
2017/05/27/11:44:38.582395,110532,1495856678,582169055,0,27,118,129,92,41,28,26,29
2017/05/27/11:44:38.587702,110533,1495856678,587433099,0,28,118,131,90,40,26,24,26
2017/05/27/11:44:38.610193,110534,1495856678,609906911,0,28,99,138,95,43,28,25,26
2017/05/27/11:44:38.634115,110535,1495856678,633861064,0,26,88,125,80,41,26,23,23
2017/05/27/11:44:38.649179,110536,1495856678,648886919,0,28,88,115,77,41,24,21,22
2017/05/27/11:44:38.670151,110537,1495856678,669939994,0,27,67,112,79,39,24,17,22
2017/05/27/11:44:38.694460,110538,1495856678,694238901,0,26,71,113,77,38,25,18,21
2017/05/27/11:44:38.707773,110539,1495856678,707496881,0,25,67,105,73,36,24,18,22
2017/05/27/11:44:38.737623,110540,1495856678,737390041,0,25,62,109,75,36,27,19,22
2017/05/27/11:44:38.752587,110541,1495856678,752388954,0,24,64,110,77,33,25,18,23
2017/05/27/11:44:38.769098,110542,1495856678,768881082,0,22,64,113,76,31,26,20,25
2017/05/27/11:44:38.790095,110543,1495856678,789886951,0,20,52,109,75,32,26,20,24
2017/05/27/11:44:38.812623,110544,1495856678,812403917,0,19,44,106,74,31,25,20,22
2017/05/27/11:44:38.827720,110545,1495856678,827450037,0,20,51,115,80,31,22,22,22
2017/05/27/11:44:38.850112,110546,1495856678,849903106,0,21,44,112,78,32,26,22,22
2017/05/27/11:44:38.872631,110547,1495856678,872390985,0,21,42,111,73,31,24,22,21
2017/05/27/11:44:38.887611,110548,1495856678,887377977,0,22,44,122,82,35,23,22,23
2017/05/27/11:44:38.911573,110549,1495856678,911370038,0,23,45,122,93,37,22,22,24
2017/05/27/11:44:38.932628,110550,1495856678,932380914,0,22,37,104,85,34,21,21,25
2017/05/27/11:44:38.947606,110551,1495856678,947387933,0,20,40,123,88,34,17,21,25
2017/05/27/11:44:38.977617,110552,1495856678,977389097,0,21,44,120,89,34,16,22,25
2017/05/27/11:44:38.992604,110553,1495856678,992393970,0,20,41,103,75,27,15,20,23
2017/05/27/11:44:39.007645,110554,1495856679,7389068,0,21,42,95,62,29,18,20,24
2017/05/27/11:44:39.030067,110555,1495856679,29829978,0,22,44,110,80,31,19,20,21
2017/05/27/11:44:39.052555,110556,1495856679,52352905,0,24,45,92,83,30,20,20,21
2017/05/27/11:44:39.075677,110557,1495856679,75453996,0,24,51,101,81,30,22,19,22
2017/05/27/11:44:39.090120,110558,1495856679,89890003,0,24,52,103,82,31,22,19,22
2017/05/27/11:44:39.112552,110559,1495856679,112325906,0,23,54,106,82,29,22,18,21
2017/05/27/11:44:39.127621,110560,1495856679,127379894,0,24,62,87,66,39,24,20,25
2017/05/27/11:44:39.150078,110561,1495856679,149873018,0,22,62,87,63,40,25,20,26
2017/05/27/11:44:39.172818,110562,1495856679,172511100,0,23,56,76,63,41,25,19,24
2017/05/27/11:44:39.189082,110563,1495856679,188849925,0,24,56,74,64,43,27,21,25
2017/05/27/11:44:39.210404,110564,1495856679,209949016,0,24,55,69,61,43,26,21,25
2017/05/27/11:44:39.240737,110565,1495856679,240576028,0,22,42,71,58,33,25,19,20
2017/05/27/11:44:39.247496,110566,1495856679,247318029,0,22,39,68,50,30,24,20,20
2017/05/27/11:44:39.270092,110567,1495856679,269865036,0,19,38,61,42,28,23,21,22
2017/05/27/11:44:39.294093,110568,1495856679,293853044,0,19,36,60,41,24,21,19,21
2017/05/27/11:44:39.307603,110569,1495856679,307353019,0,19,33,58,36,22,21,21,22
2017/05/27/11:44:39.330184,110570,1495856679,329921960,0,19,28,49,33,22,20,20,22
2017/05/27/11:44:39.354069,110571,1495856679,353832006,0,18,28,38,30,22,20,19,22
2017/05/27/11:44:39.367639,110572,1495856679,367410898,0,18,22,29,26,23,20,18,19
2017/05/27/11:44:39.390176,110573,1495856679,389950990,0,18,21,26,22,22,21,20,17
2017/05/27/11:44:39.412557,110574,1495856679,412357091,0,18,20,26,20,20,21,18,17
2017/05/27/11:44:39.427575,110575,1495856679,427350997,0,17,22,24,20,19,22,17,19
2017/05/27/11:44:39.450297,110576,1495856679,449918985,0,18,21,22,20,19,23,18,18
2017/05/27/11:44:39.472870,110577,1495856679,472593069,0,18,23,21,17,16,22,19,19
2017/05/27/11:44:39.495117,110578,1495856679,494921922,0,15,22,21,18,17,20,18,21
2017/05/27/11:44:39.510206,110579,1495856679,509917020,0,16,22,21,19,18,21,19,20
2017/05/27/11:44:39.532629,110580,1495856679,532381057,0,17,21,21,17,18,19,20,18
2017/05/27/11:44:39.555167,110581,1495856679,554879903,0,17,22,22,20,19,17,20,21
2017/05/27/11:44:39.571532,110582,1495856679,571325063,0,16,20,21,22,20,19,19,20
2017/05/27/11:44:39.592603,110583,1495856679,592370986,0,19,20,21,21,18,19,19,19
2017/05/27/11:44:39.615287,110584,1495856679,615001916,0,20,19,20,23,18,19,18,20
2017/05/27/11:44:39.630225,110585,1495856679,629884004,0,19,21,25,23,18,20,19,19
2017/05/27/11:44:39.652515,110586,1495856679,652338027,0,18,19,26,20,18,21,18,19
2017/05/27/11:44:39.675001,110587,1495856679,674845933,0,19,19,24,20,19,21,18,18
2017/05/27/11:44:39.690279,110588,1495856679,689913034,0,16,21,23,20,20,23,18,17
2017/05/27/11:44:39.712587,110589,1495856679,712441921,0,17,22,24,17,21,23,20,18
2017/05/27/11:44:39.735040,110590,1495856679,734879970,0,18,19,20,16,20,22,20,18
2017/05/27/11:44:39.750036,110591,1495856679,749883890,0,19,19,20,18,20,21,20,17
2017/05/27/11:44:39.772483,110592,1495856679,772344112,0,19,19,22,17,20,21,20,19
2017/05/27/11:44:39.795571,110593,1495856679,795353889,0,19,17,21,19,20,20,20,21
2017/05/27/11:44:39.810177,110594,1495856679,809919118,0,16,19,21,18,18,20,18,19
2017/05/27/11:44:39.832592,110595,1495856679,832375049,0,18,21,21,20,20,20,18,18
2017/05/27/11:44:39.855123,110596,1495856679,854917049,0,18,22,22,21,23,22,17,19
2017/05/27/11:44:39.870074,110597,1495856679,869853019,0,18,22,21,22,23,23,19,19
2017/05/27/11:44:39.892592,110598,1495856679,892318964,0,18,22,23,23,26,26,20,20
2017/05/27/11:44:39.915226,110599,1495856679,914948940,0,19,23,23,23,27,25,20,20
2017/05/27/11:44:39.930182,110600,1495856679,929833889,0,18,23,22,24,26,32,19,21
2017/05/27/11:44:39.955830,110601,1495856679,955626010,0,19,21,22,24,27,35,19,20
2017/05/27/11:44:39.975094,110602,1495856679,974911928,0,21,23,23,24,28,37,19,20
2017/05/27/11:44:39.990052,110603,1495856679,989875078,0,21,22,23,22,27,34,17,20
2017/05/27/11:44:40.012582,110604,1495856680,12373924,0,19,20,23,23,29,34,18,21
2017/05/27/11:44:40.035209,110605,1495856680,34873008,0,19,21,22,22,28,28,17,23
2017/05/27/11:44:40.050066,110606,1495856680,49840927,0,18,22,23,21,24,20,18,22
2017/05/27/11:44:40.072585,110607,1495856680,72418928,0,17,20,21,19,22,16,16,20
2017/05/27/11:44:40.095065,110608,1495856680,94854116,0,18,21,21,19,21,17,17,18
2017/05/27/11:44:40.110111,110609,1495856680,109878063,0,18,21,20,19,19,18,16,18
2017/05/27/11:44:40.132823,110610,1495856680,132390022,0,19,20,20,20,21,17,17,17
2017/05/27/11:44:40.155185,110611,1495856680,154911041,0,19,20,19,21,21,18,17,17
2017/05/27/11:44:40.170025,110612,1495856680,169816970,0,18,20,20,22,21,18,17,18
2017/05/27/11:44:40.192577,110613,1495856680,192348957,0,16,19,17,22,20,18,19,18
2017/05/27/11:44:40.215384,110614,1495856680,215074062,0,17,19,19,23,19,19,19,18
2017/05/27/11:44:40.229999,110615,1495856680,229804992,0,17,21,20,23,17,19,19,19
2017/05/27/11:44:40.252543,110616,1495856680,252342939,0,17,22,19,22,18,20,20,19
2017/05/27/11:44:40.275007,110617,1495856680,274812936,0,18,22,21,22,18,20,20,20
2017/05/27/11:44:40.290353,110618,1495856680,289969921,0,18,23,20,25,19,20,17,20
2017/05/27/11:44:40.312643,110619,1495856680,312364101,0,18,24,24,23,18,19,18,20
2017/05/27/11:44:40.335041,110620,1495856680,334816932,0,18,23,23,23,20,18,18,18
2017/05/27/11:44:40.350072,110621,1495856680,349837064,0,16,23,24,25,20,16,18,20
2017/05/27/11:44:40.372587,110622,1495856680,372414112,0,18,23,23,25,20,17,17,19
2017/05/27/11:44:40.395238,110623,1495856680,394887924,0,19,24,25,22,20,18,18,20
2017/05/27/11:44:40.410069,110624,1495856680,409878015,0,20,22,20,22,21,17,17,19
2017/05/27/11:44:40.432660,110625,1495856680,432415008,0,20,21,22,23,19,18,18,21
2017/05/27/11:44:40.455131,110626,1495856680,454915046,0,20,21,21,21,20,20,18,21
2017/05/27/11:44:40.477819,110627,1495856680,477488040,0,20,21,21,21,19,20,18,21
2017/05/27/11:44:40.492696,110628,1495856680,492408990,0,20,21,19,22,18,21,18,20
2017/05/27/11:44:40.523271,110629,1495856680,523047924,0,20,21,19,22,19,22,18,22
2017/05/27/11:44:40.537654,110630,1495856680,537383079,0,20,21,18,21,19,22,18,20
2017/05/27/11:44:40.552572,110631,1495856680,552383899,0,20,23,18,22,17,22,17,20
2017/05/27/11:44:40.576541,110632,1495856680,576334953,0,20,23,18,22,18,21,16,21
2017/05/27/11:44:40.597615,110633,1495856680,597383022,0,21,22,20,22,19,20,16,22
2017/05/27/11:44:40.612877,110634,1495856680,612521886,0,20,22,20,21,20,22,17,20
2017/05/27/11:44:40.635058,110635,1495856680,634848117,0,21,22,20,20,20,23,16,21
2017/05/27/11:44:40.657661,110636,1495856680,657365083,0,21,22,20,19,21,22,15,20
2017/05/27/11:44:40.672772,110637,1495856680,672451019,0,18,22,20,19,21,21,16,20
2017/05/27/11:44:40.695257,110638,1495856680,694907903,0,17,21,18,18,20,24,16,19
2017/05/27/11:44:40.717890,110639,1495856680,717677116,0,15,21,19,18,17,22,16,21
2017/05/27/11:44:40.740072,110640,1495856680,739875078,0,16,21,18,20,18,23,18,21
2017/05/27/11:44:40.755058,110641,1495856680,754820108,0,18,19,16,20,17,22,19,22
2017/05/27/11:44:40.777698,110642,1495856680,777462959,0,19,18,18,20,18,23,19,22
2017/05/27/11:44:40.792573,110643,1495856680,792370080,0,19,18,19,21,19,19,19,23
2017/05/27/11:44:40.815048,110644,1495856680,814842939,0,18,18,19,21,20,18,19,22
2017/05/27/11:44:40.837549,110645,1495856680,837332963,0,16,18,20,20,19,18,18,21
2017/05/27/11:44:40.854161,110646,1495856680,853849887,0,15,19,21,21,21,19,19,22
2017/05/27/11:44:40.875051,110647,1495856680,874834060,0,14,19,20,20,19,20,19,20
2017/05/27/11:44:40.905851,110648,1495856680,905577898,0,15,20,21,19,19,19,19,21
2017/05/27/11:44:40.912807,110649,1495856680,912338972,0,17,18,21,19,19,20,20,21
2017/05/27/11:44:40.935127,110650,1495856680,934904098,0,17,20,21,19,19,18,18,22
2017/05/27/11:44:40.957750,110651,1495856680,957511901,0,17,19,22,19,19,20,17,22
2017/05/27/11:44:40.972548,110652,1495856680,972349882,0,18,20,23,18,22,20,16,24
2017/05/27/11:44:40.995042,110653,1495856680,994838953,0,19,22,22,19,21,20,15,23
2017/05/27/11:44:41.018091,110654,1495856681,17855882,0,20,22,21,18,21,21,15,23
2017/05/27/11:44:41.035217,110655,1495856681,34742116,0,20,20,20,18,23,21,16,21
2017/05/27/11:44:41.055073,110656,1495856681,54871082,0,21,20,20,18,22,20,18,21
2017/05/27/11:44:41.079203,110657,1495856681,79005002,0,20,21,17,19,19,19,20,21
2017/05/27/11:44:41.092807,110658,1495856681,92456102,0,20,21,16,18,19,18,21,21
2017/05/27/11:44:41.115102,110659,1495856681,114847898,0,17,23,19,18,19,18,20,21
2017/05/27/11:44:41.147691,110660,1495856681,145534992,0,18,23,17,20,18,18,22,21
2017/05/27/11:44:41.160396,110661,1495856681,160027027,0,18,24,18,18,19,17,21,21
2017/05/27/11:44:41.175060,110662,1495856681,174860000,0,18,23,21,18,18,18,20,20
2017/05/27/11:44:41.197579,110663,1495856681,197361946,0,17,21,21,19,19,22,19,21
2017/05/27/11:44:41.212545,110664,1495856681,212323904,0,20,19,20,21,19,23,20,21
2017/05/27/11:44:41.235200,110665,1495856681,234853029,0,20,19,23,20,20,23,18,21
2017/05/27/11:44:41.257480,110666,1495856681,257283926,0,18,19,23,20,20,26,19,20
2017/05/27/11:44:41.272538,110667,1495856681,272319078,0,18,18,21,19,23,26,19,18
2017/05/27/11:44:41.295151,110668,1495856681,294920921,0,18,18,22,19,21,24,20,17
2017/05/27/11:44:41.317679,110669,1495856681,317341089,0,16,18,20,18,21,22,18,18
2017/05/27/11:44:41.332673,110670,1495856681,332417964,0,18,19,20,17,19,22,18,18
2017/05/27/11:44:41.355073,110671,1495856681,354862928,0,18,18,21,18,19,21,19,19
2017/05/27/11:44:41.377629,110672,1495856681,377382993,0,19,21,22,19,16,20,18,18
2017/05/27/11:44:41.400037,110673,1495856681,399897098,0,19,22,21,19,18,20,18,19
2017/05/27/11:44:41.415175,110674,1495856681,414930105,0,18,22,25,17,18,20,17,19
2017/05/27/11:44:41.437591,110675,1495856681,437374114,0,15,21,23,18,18,18,18,19
2017/05/27/11:44:41.464834,110676,1495856681,464540958,0,17,20,22,18,20,17,17,18
2017/05/27/11:44:41.475187,110677,1495856681,474894046,0,17,20,21,18,21,20,17,20
2017/05/27/11:44:41.497634,110678,1495856681,497419118,0,16,19,23,19,22,20,17,19
2017/05/27/11:44:41.520179,110679,1495856681,519962072,0,16,18,21,20,21,20,17,18
2017/05/27/11:44:41.535122,110680,1495856681,534879922,0,17,18,21,20,21,21,16,19
2017/05/27/11:44:41.557503,110681,1495856681,557291984,0,15,19,20,21,20,20,17,20
2017/05/27/11:44:41.580064,110682,1495856681,579828977,0,14,19,22,21,19,19,17,18
2017/05/27/11:44:41.595063,110683,1495856681,594850063,0,16,20,20,20,18,18,16,19
2017/05/27/11:44:41.617633,110684,1495856681,617393970,0,18,20,19,20,18,19,16,19
2017/05/27/11:44:41.640092,110685,1495856681,639863967,0,19,21,19,19,20,18,16,20
2017/05/27/11:44:41.655063,110686,1495856681,654854059,0,18,20,23,19,21,19,17,20
2017/05/27/11:44:41.677638,110687,1495856681,677381992,0,19,21,21,19,21,18,17,23
2017/05/27/11:44:41.700678,110688,1495856681,700419902,0,20,21,22,20,20,19,19,23
2017/05/27/11:44:41.715157,110689,1495856681,714932918,0,18,20,22,19,21,18,18,22
2017/05/27/11:44:41.739047,110690,1495856681,738826036,0,17,22,23,19,19,19,19,20
2017/05/27/11:44:41.760190,110691,1495856681,759929895,0,19,23,19,17,16,18,18,20
2017/05/27/11:44:41.775106,110692,1495856681,774859905,0,20,22,19,18,17,18,19,17
2017/05/27/11:44:41.799786,110693,1495856681,797388076,0,19,22,21,17,17,17,18,18
2017/05/27/11:44:41.820122,110694,1495856681,819885969,0,19,21,22,17,17,16,18,19
2017/05/27/11:44:41.835098,110695,1495856681,834886074,0,20,20,20,17,18,15,19,20
2017/05/27/11:44:41.857607,110696,1495856681,857368946,0,18,19,23,19,19,15,19,20
2017/05/27/11:44:41.880142,110697,1495856681,879925012,0,18,19,24,19,19,15,19,19
2017/05/27/11:44:41.895132,110698,1495856681,894897937,0,18,20,21,20,18,15,20,18
2017/05/27/11:44:41.917729,110699,1495856681,917397975,0,18,21,22,20,17,16,20,19
2017/05/27/11:44:41.940123,110700,1495856681,939894914,0,17,20,23,21,17,17,21,20
2017/05/27/11:44:41.962611,110701,1495856681,962388992,0,20,22,23,21,17,18,20,21
2017/05/27/11:44:41.977602,110702,1495856681,977399110,0,19,20,22,21,18,19,19,23
2017/05/27/11:44:42.000072,110703,1495856681,999842882,0,21,21,24,20,18,22,18,24
2017/05/27/11:44:42.015190,110704,1495856682,14899015,0,21,19,22,20,20,22,19,24
2017/05/27/11:44:42.037593,110705,1495856682,37354946,0,23,19,24,20,19,23,17,24
2017/05/27/11:44:42.060200,110706,1495856682,59891939,0,21,17,22,19,20,22,18,25
2017/05/27/11:44:42.075198,110707,1495856682,74955940,0,20,18,22,18,18,22,18,22
2017/05/27/11:44:42.097551,110708,1495856682,97357988,0,19,16,20,19,19,21,18,24
2017/05/27/11:44:42.120139,110709,1495856682,119879961,0,19,19,21,20,22,21,17,22
2017/05/27/11:44:42.135154,110710,1495856682,134901046,0,19,19,22,18,23,23,20,22
2017/05/27/11:44:42.157513,110711,1495856682,157382965,0,19,21,24,20,22,22,18,20
2017/05/27/11:44:42.188323,110712,1495856682,188070058,0,18,22,24,20,23,21,18,22
2017/05/27/11:44:42.195050,110713,1495856682,194837093,0,19,22,24,19,22,20,18,21
2017/05/27/11:44:42.217657,110714,1495856682,217403888,0,17,21,25,20,19,19,19,19
2017/05/27/11:44:42.240072,110715,1495856682,239850044,0,16,19,22,20,19,18,17,19
2017/05/27/11:44:42.255291,110716,1495856682,255019903,0,17,19,23,18,20,19,19,21
2017/05/27/11:44:42.277675,110717,1495856682,277420043,0,17,19,22,19,22,22,19,18
2017/05/27/11:44:42.300244,110718,1495856682,299876928,0,17,21,24,20,23,22,20,18
2017/05/27/11:44:42.315266,110719,1495856682,314915895,0,19,19,25,20,22,21,19,21
2017/05/27/11:44:42.337570,110720,1495856682,337366104,0,18,20,24,20,22,20,18,20
2017/05/27/11:44:42.360266,110721,1495856682,359934091,0,18,18,23,22,22,21,17,18
2017/05/27/11:44:42.382597,110722,1495856682,382390975,0,19,17,24,21,19,18,15,20
2017/05/27/11:44:42.397677,110723,1495856682,397387027,0,20,17,22,21,17,18,15,20
2017/05/27/11:44:42.420035,110724,1495856682,419827938,0,19,18,22,20,19,17,17,18
2017/05/27/11:44:42.442849,110725,1495856682,442394018,0,19,19,22,19,18,20,16,19
2017/05/27/11:44:42.457601,110726,1495856682,457365036,0,19,19,22,20,16,19,18,20
2017/05/27/11:44:42.480089,110727,1495856682,479813098,0,17,21,21,20,18,20,19,19
2017/05/27/11:44:42.502602,110728,1495856682,502393007,0,19,20,22,19,19,22,20,19
2017/05/27/11:44:42.517678,110729,1495856682,517409086,0,19,19,22,20,19,23,19,19
2017/05/27/11:44:42.540108,110730,1495856682,539855957,0,20,20,22,21,21,22,20,17
2017/05/27/11:44:42.562701,110731,1495856682,562408924,0,19,20,22,19,21,23,20,16
2017/05/27/11:44:42.577573,110732,1495856682,577361106,0,19,19,21,19,22,22,20,16
2017/05/27/11:44:42.600342,110733,1495856682,599971055,0,17,18,20,18,22,19,18,16
2017/05/27/11:44:42.622591,110734,1495856682,622387886,0,16,18,20,18,23,18,18,16
2017/05/27/11:44:42.637648,110735,1495856682,637448072,0,17,17,20,18,21,21,17,16
2017/05/27/11:44:42.660164,110736,1495856682,659900903,0,17,17,19,20,21,19,17,17
2017/05/27/11:44:42.682628,110737,1495856682,682394027,0,17,17,20,20,21,19,17,18
2017/05/27/11:44:42.697562,110738,1495856682,697330951,0,17,17,22,21,21,19,17,18
2017/05/27/11:44:42.720135,110739,1495856682,719876050,0,17,20,22,21,21,19,17,19
2017/05/27/11:44:42.742753,110740,1495856682,742511034,0,16,22,21,21,22,17,18,20
2017/05/27/11:44:42.757680,110741,1495856682,757376909,0,17,22,22,21,23,18,17,23
2017/05/27/11:44:42.780043,110742,1495856682,779828071,0,17,23,22,21,22,18,18,20
2017/05/27/11:44:42.802641,110743,1495856682,802366018,0,17,22,21,22,21,20,19,22
2017/05/27/11:44:42.817618,110744,1495856682,817363023,0,19,20,21,21,21,21,20,23
