0.000000000000000000e+00 -5.253884196281433105e-02 4.985437728464603424e-03 7.443642020225524902e-01 5.752427969127893448e-03 -5.545340776443481445e-01 2.684466307982802391e-03 1.264000177383422852e+00 -7.669904152862727642e-04 1.610679775476455688e-01 1.264000177383422852e+00 9.019806981086730957e-01 -9.756118059158325195e-01 -6.366020441055297852e-02 1.293912768363952637e+00 6.135923042893409729e-02 -1.256598758697509766e+01
0.000000000000000000e+00 -5.292233824729919434e-02 4.985437728464603424e-03 7.447476983070373535e-01 6.135923322290182114e-03 -5.549175739288330078e-01 2.684466307982802391e-03 1.264767169952392578e+00 -3.834952076431363821e-04 1.614514738321304321e-01 1.264767169952392578e+00 9.027476906776428223e-01 -9.759953022003173828e-01 -6.212622299790382385e-02 1.294679760932922363e+00 6.212622299790382385e-02 -1.256598758697509766e+01
0.000000000000000000e+00 -5.292233824729919434e-02 4.985437728464603424e-03 7.447476983070373535e-01 4.985437728464603424e-03 -5.549175739288330078e-01 2.300971187651157379e-03 1.264383673667907715e+00 -7.669904152862727642e-04 1.610679775476455688e-01 1.265150666236877441e+00 9.019806981086730957e-01 -9.756118059158325195e-01 -6.327670812606811523e-02 1.294679760932922363e+00 6.174272671341896057e-02 -1.256598758697509766e+01
0.000000000000000000e+00 -5.292233824729919434e-02 4.601942375302314758e-03 7.443642020225524902e-01 5.752427969127893448e-03 -5.553010702133178711e-01 1.917475950904190540e-03 1.264000177383422852e+00 -7.669904152862727642e-04 1.614514738321304321e-01 1.264767169952392578e+00 9.023641943931579590e-01 -9.756118059158325195e-01 -6.327670812606811523e-02 1.294296264648437500e+00 6.097573786973953247e-02 -1.256598758697509766e+01
0.000000000000000000e+00 -5.253884196281433105e-02 5.368932615965604782e-03 7.435972094535827637e-01 5.752427969127893448e-03 -5.545340776443481445e-01 2.300971187651157379e-03 1.263616681098937988e+00 -7.669904152862727642e-04 1.610679775476455688e-01 1.265917658805847168e+00 9.015972018241882324e-01 -9.759953022003173828e-01 -6.327670812606811523e-02 1.294679760932922363e+00 6.135923042893409729e-02 -1.256598758697509766e+01
0.000000000000000000e+00 -5.215534567832946777e-02 4.601942375302314758e-03 7.443642020225524902e-01 5.368932615965604782e-03 -5.545340776443481445e-01 1.917475950904190540e-03 1.264383673667907715e+00 -1.533980830572545528e-03 1.614514738321304321e-01 1.265917658805847168e+00 9.023641943931579590e-01 -9.763787984848022461e-01 -6.327670812606811523e-02 1.294679760932922363e+00 6.250971555709838867e-02 -1.256598758697509766e+01
0.000000000000000000e+00 -5.253884196281433105e-02 4.601942375302314758e-03 7.443642020225524902e-01 5.368932615965604782e-03 -5.549175739288330078e-01 2.300971187651157379e-03 1.264000177383422852e+00 -3.834952076431363821e-04 1.603009849786758423e-01 1.264767169952392578e+00 9.019806981086730957e-01 -9.763787984848022461e-01 -6.327670812606811523e-02 1.294679760932922363e+00 6.174272671341896057e-02 -1.256598758697509766e+01
0.000000000000000000e+00 -5.292233824729919434e-02 4.985437728464603424e-03 7.443642020225524902e-01 5.368932615965604782e-03 -5.553010702133178711e-01 1.917475950904190540e-03 1.264383673667907715e+00 -7.669904152862727642e-04 1.614514738321304321e-01 1.265150666236877441e+00 9.023641943931579590e-01 -9.759953022003173828e-01 -6.327670812606811523e-02 1.294679760932922363e+00 6.212622299790382385e-02 -1.256598758697509766e+01
0.000000000000000000e+00 -5.253884196281433105e-02 4.601942375302314758e-03 7.451311945915222168e-01 5.368932615965604782e-03 -5.545340776443481445e-01 2.300971187651157379e-03 1.264383673667907715e+00 -1.150485593825578690e-03 1.610679775476455688e-01 1.265150666236877441e+00 9.023641943931579590e-01 -9.756118059158325195e-01 -6.366020441055297852e-02 1.294679760932922363e+00 6.212622299790382385e-02 -1.256598758697509766e+01
0.000000000000000000e+00 -5.292233824729919434e-02 3.834951901808381081e-03 7.455146908760070801e-01 4.985437728464603424e-03 -5.545340776443481445e-01 1.917475950904190540e-03 1.264767169952392578e+00 -1.533980830572545528e-03 1.610679775476455688e-01 1.265150666236877441e+00 9.023641943931579590e-01 -9.763787984848022461e-01 -6.327670812606811523e-02 1.293912768363952637e+00 6.174272671341896057e-02 -1.256598758697509766e+01
0.000000000000000000e+00 -5.253884196281433105e-02 4.985437728464603424e-03 7.432137131690979004e-01 5.752427969127893448e-03 -5.556845664978027344e-01 2.300971187651157379e-03 1.264000177383422852e+00 -1.150485593825578690e-03 1.614514738321304321e-01 1.265150666236877441e+00 9.019806981086730957e-01 -9.759953022003173828e-01 -6.250971555709838867e-02 1.294679760932922363e+00 6.174272671341896057e-02 -1.256598758697509766e+01
0.000000000000000000e+00 -5.292233824729919434e-02 4.985437728464603424e-03 7.451311945915222168e-01 5.368932615965604782e-03 -5.553010702133178711e-01 1.533980830572545528e-03 1.264000177383422852e+00 -1.150485593825578690e-03 1.606844812631607056e-01 1.264000177383422852e+00 9.023641943931579590e-01 -9.759953022003173828e-01 -6.327670812606811523e-02 1.293529272079467773e+00 6.289321184158325195e-02 -1.256598758697509766e+01
0.000000000000000000e+00 -5.253884196281433105e-02 4.601942375302314758e-03 7.455146908760070801e-01 5.368932615965604782e-03 -5.545340776443481445e-01 2.300971187651157379e-03 1.264000177383422852e+00 -1.150485593825578690e-03 1.626019626855850220e-01 1.265150666236877441e+00 9.023641943931579590e-01 -9.763787984848022461e-01 -6.289321184158325195e-02 1.294296264648437500e+00 6.174272671341896057e-02 -1.256598758697509766e+01
0.000000000000000000e+00 -5.215534567832946777e-02 5.752427969127893448e-03 7.447476983070373535e-01 5.368932615965604782e-03 -5.549175739288330078e-01 1.533980830572545528e-03 1.264383673667907715e+00 -7.669904152862727642e-04 1.614514738321304321e-01 1.265150666236877441e+00 9.019806981086730957e-01 -9.763787984848022461e-01 -6.327670812606811523e-02 1.294679760932922363e+00 6.212622299790382385e-02 -1.256598758697509766e+01
0.000000000000000000e+00 -5.292233824729919434e-02 4.985437728464603424e-03 7.443642020225524902e-01 5.368932615965604782e-03 -5.556845664978027344e-01 1.917475950904190540e-03 1.263616681098937988e+00 -1.150485593825578690e-03 1.614514738321304321e-01 1.264767169952392578e+00 9.023641943931579590e-01 -9.756118059158325195e-01 -6.366020441055297852e-02 1.293912768363952637e+00 6.135923042893409729e-02 -1.256598758697509766e+01
0.000000000000000000e+00 -5.215534567832946777e-02 4.601942375302314758e-03 7.451311945915222168e-01 5.752427969127893448e-03 -5.549175739288330078e-01 2.684466307982802391e-03 1.263233184814453125e+00 -3.834952076431363821e-04 1.606844812631607056e-01 1.264767169952392578e+00 9.012137055397033691e-01 -9.763787984848022461e-01 -6.366020441055297852e-02 1.294679760932922363e+00 6.097573786973953247e-02 -1.256598758697509766e+01
0.000000000000000000e+00 -5.330583080649375916e-02 4.985437728464603424e-03 7.447476983070373535e-01 4.985437728464603424e-03 -5.556845664978027344e-01 1.917475950904190540e-03 1.264000177383422852e+00 -7.669904152862727642e-04 1.610679775476455688e-01 1.264000177383422852e+00 9.023641943931579590e-01 -9.756118059158325195e-01 -6.327670812606811523e-02 1.293912768363952637e+00 6.212622299790382385e-02 -1.256598758697509766e+01
0.000000000000000000e+00 -5.292233824729919434e-02 4.601942375302314758e-03 7.447476983070373535e-01 4.985437728464603424e-03 -5.549175739288330078e-01 1.917475950904190540e-03 1.264000177383422852e+00 -3.834952076431363821e-04 1.606844812631607056e-01 1.265150666236877441e+00 9.019806981086730957e-01 -9.759953022003173828e-01 -6.327670812606811523e-02 1.294296264648437500e+00 6.212622299790382385e-02 -1.256598758697509766e+01
0.000000000000000000e+00 -5.292233824729919434e-02 4.218447022140026093e-03 7.443642020225524902e-01 5.752427969127893448e-03 -5.549175739288330078e-01 1.917475950904190540e-03 1.264000177383422852e+00 -3.834952076431363821e-04 1.614514738321304321e-01 1.265150666236877441e+00 9.023641943931579590e-01 -9.756118059158325195e-01 -6.327670812606811523e-02 1.294296264648437500e+00 6.097573786973953247e-02 -1.256598758697509766e+01
0.000000000000000000e+00 -5.215534567832946777e-02 4.601942375302314758e-03 7.447476983070373535e-01 5.752427969127893448e-03 -5.549175739288330078e-01 1.533980830572545528e-03 1.264000177383422852e+00 -1.150485593825578690e-03 1.610679775476455688e-01 1.264767169952392578e+00 9.019806981086730957e-01 -9.763787984848022461e-01 -6.289321184158325195e-02 1.294679760932922363e+00 6.212622299790382385e-02 -1.256598758697509766e+01
0.000000000000000000e+00 -5.215534567832946777e-02 4.601942375302314758e-03 7.443642020225524902e-01 5.368932615965604782e-03 -5.545340776443481445e-01 1.917475950904190540e-03 1.264000177383422852e+00 -7.669904152862727642e-04 1.610679775476455688e-01 1.264383673667907715e+00 9.027476906776428223e-01 -9.759953022003173828e-01 -6.327670812606811523e-02 1.294296264648437500e+00 6.174272671341896057e-02 -1.256598758697509766e+01
0.000000000000000000e+00 -5.292233824729919434e-02 4.601942375302314758e-03 7.435972094535827637e-01 4.985437728464603424e-03 -5.549175739288330078e-01 2.300971187651157379e-03 1.263616681098937988e+00 -3.834952076431363821e-04 1.614514738321304321e-01 1.264000177383422852e+00 9.027476906776428223e-01 -9.763787984848022461e-01 -6.327670812606811523e-02 1.294296264648437500e+00 6.174272671341896057e-02 -1.256598758697509766e+01
0.000000000000000000e+00 -5.253884196281433105e-02 4.985437728464603424e-03 7.455146908760070801e-01 5.368932615965604782e-03 -5.545340776443481445e-01 1.533980830572545528e-03 1.264000177383422852e+00 -3.834952076431363821e-04 1.614514738321304321e-01 1.264767169952392578e+00 9.027476906776428223e-01 -9.763787984848022461e-01 -6.289321184158325195e-02 1.294296264648437500e+00 6.135923042893409729e-02 -1.256598758697509766e+01
0.000000000000000000e+00 -5.292233824729919434e-02 4.601942375302314758e-03 7.447476983070373535e-01 5.752427969127893448e-03 -5.541505813598632812e-01 1.150485593825578690e-03 1.264383673667907715e+00 -3.834952076431363821e-04 1.610679775476455688e-01 1.265534162521362305e+00 9.019806981086730957e-01 -9.759953022003173828e-01 -6.327670812606811523e-02 1.293912768363952637e+00 6.212622299790382385e-02 -1.256598758697509766e+01
0.000000000000000000e+00 -5.292233824729919434e-02 4.985437728464603424e-03 7.447476983070373535e-01 5.368932615965604782e-03 -5.549175739288330078e-01 1.917475950904190540e-03 1.264383673667907715e+00 -7.669904152862727642e-04 1.610679775476455688e-01 1.265534162521362305e+00 9.023641943931579590e-01 -9.756118059158325195e-01 -6.327670812606811523e-02 1.293912768363952637e+00 6.174272671341896057e-02 -1.256598758697509766e+01
0.000000000000000000e+00 -5.253884196281433105e-02 4.218447022140026093e-03 7.451311945915222168e-01 5.752427969127893448e-03 -5.553010702133178711e-01 1.533980830572545528e-03 1.264383673667907715e+00 -3.834952076431363821e-04 1.610679775476455688e-01 1.264767169952392578e+00 9.023641943931579590e-01 -9.759953022003173828e-01 -6.250971555709838867e-02 1.294679760932922363e+00 6.174272671341896057e-02 -1.256598758697509766e+01
0.000000000000000000e+00 -5.292233824729919434e-02 4.218447022140026093e-03 7.447476983070373535e-01 5.752427969127893448e-03 -5.541505813598632812e-01 1.917475950904190540e-03 1.264383673667907715e+00 -3.834952076431363821e-04 1.610679775476455688e-01 1.264767169952392578e+00 9.019806981086730957e-01 -9.756118059158325195e-01 -6.366020441055297852e-02 1.295063257217407227e+00 6.135923042893409729e-02 -1.256598758697509766e+01
0.000000000000000000e+00 -5.292233824729919434e-02 5.368932615965604782e-03 7.447476983070373535e-01 5.368932615965604782e-03 -5.553010702133178711e-01 2.300971187651157379e-03 1.264383673667907715e+00 -3.834952076431363821e-04 1.610679775476455688e-01 1.264383673667907715e+00 9.019806981086730957e-01 -9.756118059158325195e-01 -6.250971555709838867e-02 1.294679760932922363e+00 6.250971555709838867e-02 -1.256598758697509766e+01
0.000000000000000000e+00 -5.292233824729919434e-02 4.985437728464603424e-03 7.447476983070373535e-01 5.368932615965604782e-03 -5.549175739288330078e-01 2.300971187651157379e-03 1.264000177383422852e+00 -7.669904152862727642e-04 1.618349701166152954e-01 1.265917658805847168e+00 9.023641943931579590e-01 -9.756118059158325195e-01 -6.327670812606811523e-02 1.294296264648437500e+00 6.212622299790382385e-02 -1.256598758697509766e+01
0.000000000000000000e+00 -5.215534567832946777e-02 4.218447022140026093e-03 7.455146908760070801e-01 5.752427969127893448e-03 -5.545340776443481445e-01 1.150485593825578690e-03 1.264000177383422852e+00 -3.834952076431363821e-04 1.606844812631607056e-01 1.264767169952392578e+00 9.023641943931579590e-01 -9.756118059158325195e-01 -6.289321184158325195e-02 1.294679760932922363e+00 6.212622299790382385e-02 -1.256598758697509766e+01
0.000000000000000000e+00 -5.292233824729919434e-02 4.218447022140026093e-03 7.443642020225524902e-01 5.368932615965604782e-03 -5.545340776443481445e-01 1.917475950904190540e-03 1.264383673667907715e+00 -1.533980830572545528e-03 1.618349701166152954e-01 1.265534162521362305e+00 9.027476906776428223e-01 -9.756118059158325195e-01 -6.289321184158325195e-02 1.294679760932922363e+00 6.174272671341896057e-02 -1.256598758697509766e+01
0.000000000000000000e+00 -5.292233824729919434e-02 4.985437728464603424e-03 7.435972094535827637e-01 5.368932615965604782e-03 -5.537670850753784180e-01 1.917475950904190540e-03 1.264000177383422852e+00 -3.834952076431363821e-04 1.610679775476455688e-01 1.264767169952392578e+00 9.019806981086730957e-01 -9.759953022003173828e-01 -6.289321184158325195e-02 1.294679760932922363e+00 6.212622299790382385e-02 -1.256598758697509766e+01
0.000000000000000000e+00 -5.253884196281433105e-02 4.601942375302314758e-03 7.443642020225524902e-01 4.985437728464603424e-03 -5.545340776443481445e-01 2.300971187651157379e-03 1.263616681098937988e+00 0.000000000000000000e+00 1.610679775476455688e-01 1.264767169952392578e+00 9.023641943931579590e-01 -9.759953022003173828e-01 -6.327670812606811523e-02 1.294296264648437500e+00 6.212622299790382385e-02 -1.256598758697509766e+01
0.000000000000000000e+00 -5.292233824729919434e-02 4.218447022140026093e-03 7.451311945915222168e-01 5.368932615965604782e-03 -5.553010702133178711e-01 2.300971187651157379e-03 1.263616681098937988e+00 0.000000000000000000e+00 1.614514738321304321e-01 1.265150666236877441e+00 9.023641943931579590e-01 -9.759953022003173828e-01 -6.366020441055297852e-02 1.294296264648437500e+00 6.212622299790382385e-02 -1.256598758697509766e+01
0.000000000000000000e+00 -5.253884196281433105e-02 4.985437728464603424e-03 7.443642020225524902e-01 5.368932615965604782e-03 -5.549175739288330078e-01 1.917475950904190540e-03 1.264000177383422852e+00 -7.669904152862727642e-04 1.606844812631607056e-01 1.264383673667907715e+00 9.023641943931579590e-01 -9.752283096313476562e-01 -6.289321184158325195e-02 1.294296264648437500e+00 6.212622299790382385e-02 -1.256598758697509766e+01
0.000000000000000000e+00 -5.253884196281433105e-02 4.985437728464603424e-03 7.443642020225524902e-01 5.368932615965604782e-03 -5.556845664978027344e-01 1.917475950904190540e-03 1.264383673667907715e+00 -7.669904152862727642e-04 1.610679775476455688e-01 1.265150666236877441e+00 9.019806981086730957e-01 -9.756118059158325195e-01 -6.366020441055297852e-02 1.293912768363952637e+00 6.174272671341896057e-02 -1.256598758697509766e+01
0.000000000000000000e+00 -5.253884196281433105e-02 4.985437728464603424e-03 7.443642020225524902e-01 5.368932615965604782e-03 -5.545340776443481445e-01 3.067961661145091057e-03 1.264767169952392578e+00 -1.150485593825578690e-03 1.614514738321304321e-01 1.265150666236877441e+00 9.023641943931579590e-01 -9.763787984848022461e-01 -6.289321184158325195e-02 1.293912768363952637e+00 6.212622299790382385e-02 -1.256598758697509766e+01
0.000000000000000000e+00 -5.253884196281433105e-02 4.985437728464603424e-03 7.443642020225524902e-01 5.752427969127893448e-03 -5.553010702133178711e-01 1.917475950904190540e-03 1.263616681098937988e+00 -7.669904152862727642e-04 1.614514738321304321e-01 1.265150666236877441e+00 9.023641943931579590e-01 -9.756118059158325195e-01 -6.327670812606811523e-02 1.294296264648437500e+00 6.174272671341896057e-02 -1.256598758697509766e+01
0.000000000000000000e+00 -5.253884196281433105e-02 4.601942375302314758e-03 7.435972094535827637e-01 5.368932615965604782e-03 -5.549175739288330078e-01 1.917475950904190540e-03 1.264000177383422852e+00 -1.150485593825578690e-03 1.614514738321304321e-01 1.264767169952392578e+00 9.023641943931579590e-01 -9.759953022003173828e-01 -6.289321184158325195e-02 1.294679760932922363e+00 6.135923042893409729e-02 -1.256598758697509766e+01
0.000000000000000000e+00 -5.292233824729919434e-02 4.601942375302314758e-03 7.435972094535827637e-01 5.368932615965604782e-03 -5.553010702133178711e-01 1.917475950904190540e-03 1.263616681098937988e+00 -1.150485593825578690e-03 1.618349701166152954e-01 1.265150666236877441e+00 9.019806981086730957e-01 -9.759953022003173828e-01 -6.366020441055297852e-02 1.295063257217407227e+00 6.250971555709838867e-02 -1.256598758697509766e+01
0.000000000000000000e+00 -5.253884196281433105e-02 3.834951901808381081e-03 7.447476983070373535e-01 4.985437728464603424e-03 -5.545340776443481445e-01 1.533980830572545528e-03 1.264383673667907715e+00 -7.669904152862727642e-04 1.603009849786758423e-01 1.264383673667907715e+00 9.015972018241882324e-01 -9.752283096313476562e-01 -6.250971555709838867e-02 1.294296264648437500e+00 6.135923042893409729e-02 -1.256598758697509766e+01
0.000000000000000000e+00 -5.215534567832946777e-02 4.985437728464603424e-03 7.443642020225524902e-01 4.985437728464603424e-03 -5.545340776443481445e-01 1.917475950904190540e-03 1.264383673667907715e+00 -3.834952076431363821e-04 1.614514738321304321e-01 1.264767169952392578e+00 9.023641943931579590e-01 -9.759953022003173828e-01 -6.327670812606811523e-02 1.293912768363952637e+00 6.174272671341896057e-02 -1.256598758697509766e+01
0.000000000000000000e+00 -5.253884196281433105e-02 4.985437728464603424e-03 7.443642020225524902e-01 5.368932615965604782e-03 -5.549175739288330078e-01 2.300971187651157379e-03 1.263616681098937988e+00 -1.150485593825578690e-03 1.610679775476455688e-01 1.264383673667907715e+00 9.019806981086730957e-01 -9.763787984848022461e-01 -6.289321184158325195e-02 1.293912768363952637e+00 6.212622299790382385e-02 -1.256598758697509766e+01
0.000000000000000000e+00 -5.292233824729919434e-02 4.601942375302314758e-03 7.447476983070373535e-01 5.752427969127893448e-03 -5.545340776443481445e-01 1.917475950904190540e-03 1.264000177383422852e+00 -7.669904152862727642e-04 1.606844812631607056e-01 1.264383673667907715e+00 9.019806981086730957e-01 -9.759953022003173828e-01 -6.327670812606811523e-02 1.295063257217407227e+00 6.212622299790382385e-02 -1.256598758697509766e+01
0.000000000000000000e+00 -5.292233824729919434e-02 4.985437728464603424e-03 7.443642020225524902e-01 5.752427969127893448e-03 -5.553010702133178711e-01 1.917475950904190540e-03 1.263616681098937988e+00 -7.669904152862727642e-04 1.614514738321304321e-01 1.265150666236877441e+00 9.019806981086730957e-01 -9.763787984848022461e-01 -6.327670812606811523e-02 1.294296264648437500e+00 6.250971555709838867e-02 -1.256598758697509766e+01
0.000000000000000000e+00 -5.253884196281433105e-02 4.985437728464603424e-03 7.432137131690979004e-01 5.368932615965604782e-03 -5.549175739288330078e-01 1.917475950904190540e-03 1.263616681098937988e+00 -3.834952076431363821e-04 1.606844812631607056e-01 1.265150666236877441e+00 9.019806981086730957e-01 -9.763787984848022461e-01 -6.327670812606811523e-02 1.294679760932922363e+00 6.212622299790382385e-02 -1.256598758697509766e+01
0.000000000000000000e+00 -5.292233824729919434e-02 4.601942375302314758e-03 7.447476983070373535e-01 5.368932615965604782e-03 -5.553010702133178711e-01 1.533980830572545528e-03 1.263616681098937988e+00 -7.669904152862727642e-04 1.610679775476455688e-01 1.265150666236877441e+00 9.023641943931579590e-01 -9.752283096313476562e-01 -6.327670812606811523e-02 1.293912768363952637e+00 6.135923042893409729e-02 -1.256598758697509766e+01
0.000000000000000000e+00 -5.330583080649375916e-02 5.368932615965604782e-03 7.447476983070373535e-01 4.985437728464603424e-03 -5.545340776443481445e-01 2.300971187651157379e-03 1.264383673667907715e+00 0.000000000000000000e+00 1.618349701166152954e-01 1.264767169952392578e+00 9.019806981086730957e-01 -9.756118059158325195e-01 -6.327670812606811523e-02 1.293912768363952637e+00 6.212622299790382385e-02 -1.256598758697509766e+01
0.000000000000000000e+00 -5.215534567832946777e-02 4.601942375302314758e-03 7.435972094535827637e-01 5.368932615965604782e-03 -5.549175739288330078e-01 2.300971187651157379e-03 1.264000177383422852e+00 -3.834952076431363821e-04 1.614514738321304321e-01 1.264767169952392578e+00 9.015972018241882324e-01 -9.763787984848022461e-01 -6.366020441055297852e-02 1.293912768363952637e+00 6.174272671341896057e-02 -1.256598758697509766e+01
0.000000000000000000e+00 -5.253884196281433105e-02 4.985437728464603424e-03 7.447476983070373535e-01 5.752427969127893448e-03 -5.549175739288330078e-01 2.300971187651157379e-03 1.264000177383422852e+00 0.000000000000000000e+00 1.614514738321304321e-01 1.265534162521362305e+00 9.019806981086730957e-01 -9.763787984848022461e-01 -6.366020441055297852e-02 1.294679760932922363e+00 6.212622299790382385e-02 -1.256598758697509766e+01
0.000000000000000000e+00 -5.292233824729919434e-02 4.601942375302314758e-03 7.447476983070373535e-01 4.985437728464603424e-03 -5.545340776443481445e-01 2.300971187651157379e-03 1.264000177383422852e+00 -7.669904152862727642e-04 1.618349701166152954e-01 1.265150666236877441e+00 9.023641943931579590e-01 -9.756118059158325195e-01 -6.289321184158325195e-02 1.293912768363952637e+00 6.097573786973953247e-02 -1.256598758697509766e+01
0.000000000000000000e+00 -5.253884196281433105e-02 5.368932615965604782e-03 7.447476983070373535e-01 5.368932615965604782e-03 -5.553010702133178711e-01 1.917475950904190540e-03 1.264383673667907715e+00 -1.150485593825578690e-03 1.614514738321304321e-01 1.265150666236877441e+00 9.027476906776428223e-01 -9.763787984848022461e-01 -6.404370069503784180e-02 1.294296264648437500e+00 6.174272671341896057e-02 -1.256598758697509766e+01
0.000000000000000000e+00 -5.292233824729919434e-02 5.368932615965604782e-03 7.451311945915222168e-01 4.985437728464603424e-03 -5.553010702133178711e-01 1.533980830572545528e-03 1.264383673667907715e+00 -3.834952076431363821e-04 1.614514738321304321e-01 1.264767169952392578e+00 9.019806981086730957e-01 -9.763787984848022461e-01 -6.327670812606811523e-02 1.294679760932922363e+00 6.174272671341896057e-02 -1.256598758697509766e+01
0.000000000000000000e+00 -5.215534567832946777e-02 4.985437728464603424e-03 7.447476983070373535e-01 5.368932615965604782e-03 -5.537670850753784180e-01 1.533980830572545528e-03 1.263616681098937988e+00 -1.150485593825578690e-03 1.614514738321304321e-01 1.264383673667907715e+00 9.015972018241882324e-01 -9.756118059158325195e-01 -6.327670812606811523e-02 1.293529272079467773e+00 6.250971555709838867e-02 -1.256598758697509766e+01
0.000000000000000000e+00 -5.215534567832946777e-02 4.601942375302314758e-03 7.447476983070373535e-01 5.752427969127893448e-03 -5.549175739288330078e-01 1.917475950904190540e-03 1.264000177383422852e+00 -7.669904152862727642e-04 1.614514738321304321e-01 1.264383673667907715e+00 9.023641943931579590e-01 -9.759953022003173828e-01 -6.366020441055297852e-02 1.294296264648437500e+00 6.174272671341896057e-02 -1.256598758697509766e+01
0.000000000000000000e+00 -5.253884196281433105e-02 4.985437728464603424e-03 7.451311945915222168e-01 5.368932615965604782e-03 -5.545340776443481445e-01 2.300971187651157379e-03 1.264383673667907715e+00 -1.150485593825578690e-03 1.610679775476455688e-01 1.264383673667907715e+00 9.027476906776428223e-01 -9.759953022003173828e-01 -6.327670812606811523e-02 1.293912768363952637e+00 6.174272671341896057e-02 -1.256598758697509766e+01
0.000000000000000000e+00 -5.215534567832946777e-02 4.218447022140026093e-03 7.443642020225524902e-01 5.368932615965604782e-03 -5.549175739288330078e-01 2.684466307982802391e-03 1.264383673667907715e+00 -3.834952076431363821e-04 1.614514738321304321e-01 1.264383673667907715e+00 9.027476906776428223e-01 -9.763787984848022461e-01 -6.327670812606811523e-02 1.294296264648437500e+00 6.212622299790382385e-02 -1.256598758697509766e+01
0.000000000000000000e+00 -5.253884196281433105e-02 4.601942375302314758e-03 7.451311945915222168e-01 4.985437728464603424e-03 -5.549175739288330078e-01 1.917475950904190540e-03 1.264000177383422852e+00 -1.533980830572545528e-03 1.610679775476455688e-01 1.264383673667907715e+00 9.023641943931579590e-01 -9.752283096313476562e-01 -6.327670812606811523e-02 1.294679760932922363e+00 6.212622299790382385e-02 -1.256598758697509766e+01
0.000000000000000000e+00 -5.253884196281433105e-02 5.368932615965604782e-03 7.443642020225524902e-01 5.368932615965604782e-03 -5.549175739288330078e-01 1.917475950904190540e-03 1.264000177383422852e+00 -7.669904152862727642e-04 1.610679775476455688e-01 1.264383673667907715e+00 9.023641943931579590e-01 -9.756118059158325195e-01 -6.327670812606811523e-02 1.293912768363952637e+00 6.174272671341896057e-02 -1.256598758697509766e+01
0.000000000000000000e+00 -5.253884196281433105e-02 4.601942375302314758e-03 7.443642020225524902e-01 5.368932615965604782e-03 -5.549175739288330078e-01 2.300971187651157379e-03 1.264383673667907715e+00 -7.669904152862727642e-04 1.603009849786758423e-01 1.265150666236877441e+00 9.019806981086730957e-01 -9.759953022003173828e-01 -6.289321184158325195e-02 1.293912768363952637e+00 6.212622299790382385e-02 -1.256598758697509766e+01
0.000000000000000000e+00 -5.253884196281433105e-02 4.985437728464603424e-03 7.443642020225524902e-01 5.752427969127893448e-03 -5.545340776443481445e-01 2.300971187651157379e-03 1.263616681098937988e+00 -7.669904152862727642e-04 1.610679775476455688e-01 1.264767169952392578e+00 9.015972018241882324e-01 -9.756118059158325195e-01 -6.250971555709838867e-02 1.294679760932922363e+00 6.212622299790382385e-02 -1.256598758697509766e+01
0.000000000000000000e+00 -5.253884196281433105e-02 4.601942375302314758e-03 7.443642020225524902e-01 5.752427969127893448e-03 -5.545340776443481445e-01 2.684466307982802391e-03 1.264000177383422852e+00 0.000000000000000000e+00 1.614514738321304321e-01 1.265150666236877441e+00 9.019806981086730957e-01 -9.756118059158325195e-01 -6.327670812606811523e-02 1.293912768363952637e+00 6.212622299790382385e-02 -1.256598758697509766e+01
0.000000000000000000e+00 -5.253884196281433105e-02 4.985437728464603424e-03 7.443642020225524902e-01 5.368932615965604782e-03 -5.553010702133178711e-01 2.684466307982802391e-03 1.264000177383422852e+00 -7.669904152862727642e-04 1.610679775476455688e-01 1.265534162521362305e+00 9.019806981086730957e-01 -9.759953022003173828e-01 -6.327670812606811523e-02 1.294679760932922363e+00 6.174272671341896057e-02 -1.256598758697509766e+01
0.000000000000000000e+00 -5.253884196281433105e-02 4.601942375302314758e-03 7.443642020225524902e-01 5.368932615965604782e-03 -5.541505813598632812e-01 1.917475950904190540e-03 1.263616681098937988e+00 -3.834952076431363821e-04 1.610679775476455688e-01 1.265150666236877441e+00 9.027476906776428223e-01 -9.763787984848022461e-01 -6.327670812606811523e-02 1.294296264648437500e+00 6.174272671341896057e-02 -1.256598758697509766e+01
0.000000000000000000e+00 -5.215534567832946777e-02 4.218447022140026093e-03 7.443642020225524902e-01 5.368932615965604782e-03 -5.553010702133178711e-01 2.300971187651157379e-03 1.264000177383422852e+00 -3.834952076431363821e-04 1.618349701166152954e-01 1.264767169952392578e+00 9.023641943931579590e-01 -9.759953022003173828e-01 -6.289321184158325195e-02 1.294679760932922363e+00 6.135923042893409729e-02 -1.256598758697509766e+01
0.000000000000000000e+00 -5.292233824729919434e-02 5.368932615965604782e-03 7.435972094535827637e-01 5.752427969127893448e-03 -5.541505813598632812e-01 2.684466307982802391e-03 1.264000177383422852e+00 -7.669904152862727642e-04 1.614514738321304321e-01 1.265534162521362305e+00 9.019806981086730957e-01 -9.763787984848022461e-01 -6.289321184158325195e-02 1.294679760932922363e+00 6.212622299790382385e-02 -1.256598758697509766e+01
0.000000000000000000e+00 -5.253884196281433105e-02 4.601942375302314758e-03 7.447476983070373535e-01 5.752427969127893448e-03 -5.553010702133178711e-01 2.300971187651157379e-03 1.263233184814453125e+00 -1.150485593825578690e-03 1.614514738321304321e-01 1.265150666236877441e+00 9.023641943931579590e-01 -9.759953022003173828e-01 -6.366020441055297852e-02 1.293912768363952637e+00 6.174272671341896057e-02 -1.256598758697509766e+01
0.000000000000000000e+00 -5.292233824729919434e-02 4.985437728464603424e-03 7.443642020225524902e-01 4.985437728464603424e-03 -5.549175739288330078e-01 1.917475950904190540e-03 1.264383673667907715e+00 -3.834952076431363821e-04 1.618349701166152954e-01 1.264767169952392578e+00 9.023641943931579590e-01 -9.756118059158325195e-01 -6.366020441055297852e-02 1.294679760932922363e+00 6.212622299790382385e-02 -1.256598758697509766e+01
0.000000000000000000e+00 -5.253884196281433105e-02 4.985437728464603424e-03 7.447476983070373535e-01 5.368932615965604782e-03 -5.549175739288330078e-01 1.533980830572545528e-03 1.263233184814453125e+00 -7.669904152862727642e-04 1.618349701166152954e-01 1.264383673667907715e+00 9.027476906776428223e-01 -9.759953022003173828e-01 -6.327670812606811523e-02 1.295063257217407227e+00 6.212622299790382385e-02 -1.256598758697509766e+01
0.000000000000000000e+00 -5.253884196281433105e-02 4.985437728464603424e-03 7.447476983070373535e-01 5.368932615965604782e-03 -5.545340776443481445e-01 2.300971187651157379e-03 1.264383673667907715e+00 0.000000000000000000e+00 1.610679775476455688e-01 1.265534162521362305e+00 9.019806981086730957e-01 -9.763787984848022461e-01 -6.289321184158325195e-02 1.294679760932922363e+00 6.212622299790382385e-02 -1.256598758697509766e+01
0.000000000000000000e+00 -5.253884196281433105e-02 4.985437728464603424e-03 7.447476983070373535e-01 5.368932615965604782e-03 -5.556845664978027344e-01 1.917475950904190540e-03 1.263616681098937988e+00 0.000000000000000000e+00 1.610679775476455688e-01 1.265150666236877441e+00 9.015972018241882324e-01 -9.756118059158325195e-01 -6.404370069503784180e-02 1.294296264648437500e+00 6.212622299790382385e-02 -1.256598758697509766e+01
0.000000000000000000e+00 -5.253884196281433105e-02 4.985437728464603424e-03 7.447476983070373535e-01 6.135923322290182114e-03 -5.545340776443481445e-01 1.917475950904190540e-03 1.263233184814453125e+00 -7.669904152862727642e-04 1.610679775476455688e-01 1.264767169952392578e+00 9.012137055397033691e-01 -9.763787984848022461e-01 -6.327670812606811523e-02 1.293529272079467773e+00 6.174272671341896057e-02 -1.256598758697509766e+01
0.000000000000000000e+00 -5.292233824729919434e-02 4.985437728464603424e-03 7.447476983070373535e-01 5.752427969127893448e-03 -5.549175739288330078e-01 1.917475950904190540e-03 1.264383673667907715e+00 -3.834952076431363821e-04 1.610679775476455688e-01 1.265534162521362305e+00 9.019806981086730957e-01 -9.763787984848022461e-01 -6.327670812606811523e-02 1.294296264648437500e+00 6.250971555709838867e-02 -1.256598758697509766e+01
0.000000000000000000e+00 -5.253884196281433105e-02 4.985437728464603424e-03 7.447476983070373535e-01 4.985437728464603424e-03 -5.549175739288330078e-01 1.917475950904190540e-03 1.264383673667907715e+00 -3.834952076431363821e-04 1.618349701166152954e-01 1.265150666236877441e+00 9.019806981086730957e-01 -9.752283096313476562e-01 -6.327670812606811523e-02 1.294296264648437500e+00 6.212622299790382385e-02 -1.256598758697509766e+01
0.000000000000000000e+00 -5.330583080649375916e-02 4.985437728464603424e-03 7.443642020225524902e-01 5.752427969127893448e-03 -5.549175739288330078e-01 2.300971187651157379e-03 1.264000177383422852e+00 -7.669904152862727642e-04 1.614514738321304321e-01 1.264383673667907715e+00 9.019806981086730957e-01 -9.756118059158325195e-01 -6.327670812606811523e-02 1.294296264648437500e+00 6.135923042893409729e-02 -1.256598758697509766e+01
0.000000000000000000e+00 -5.292233824729919434e-02 4.601942375302314758e-03 7.447476983070373535e-01 5.368932615965604782e-03 -5.549175739288330078e-01 2.300971187651157379e-03 1.264383673667907715e+00 0.000000000000000000e+00 1.618349701166152954e-01 1.265534162521362305e+00 9.015972018241882324e-01 -9.756118059158325195e-01 -6.250971555709838867e-02 1.294296264648437500e+00 6.174272671341896057e-02 -1.256598758697509766e+01
0.000000000000000000e+00 -5.292233824729919434e-02 4.601942375302314758e-03 7.447476983070373535e-01 4.985437728464603424e-03 -5.553010702133178711e-01 1.917475950904190540e-03 1.264000177383422852e+00 -3.834952076431363821e-04 1.606844812631607056e-01 1.265150666236877441e+00 9.023641943931579590e-01 -9.752283096313476562e-01 -6.327670812606811523e-02 1.294296264648437500e+00 6.212622299790382385e-02 -1.256598758697509766e+01
0.000000000000000000e+00 -5.292233824729919434e-02 4.601942375302314758e-03 7.443642020225524902e-01 5.752427969127893448e-03 -5.545340776443481445e-01 1.917475950904190540e-03 1.264000177383422852e+00 -1.150485593825578690e-03 1.614514738321304321e-01 1.265150666236877441e+00 9.031311869621276855e-01 -9.756118059158325195e-01 -6.289321184158325195e-02 1.294679760932922363e+00 6.212622299790382385e-02 -1.256598758697509766e+01
0.000000000000000000e+00 -5.215534567832946777e-02 4.985437728464603424e-03 7.447476983070373535e-01 5.368932615965604782e-03 -5.549175739288330078e-01 1.533980830572545528e-03 1.264383673667907715e+00 -3.834952076431363821e-04 1.614514738321304321e-01 1.265534162521362305e+00 9.015972018241882324e-01 -9.756118059158325195e-01 -6.250971555709838867e-02 1.294296264648437500e+00 6.135923042893409729e-02 -1.256598758697509766e+01
0.000000000000000000e+00 -5.292233824729919434e-02 4.601942375302314758e-03 7.443642020225524902e-01 5.368932615965604782e-03 -5.549175739288330078e-01 1.917475950904190540e-03 1.264383673667907715e+00 -7.669904152862727642e-04 1.614514738321304321e-01 1.265150666236877441e+00 9.015972018241882324e-01 -9.759953022003173828e-01 -6.327670812606811523e-02 1.293912768363952637e+00 6.135923042893409729e-02 -1.256598758697509766e+01
0.000000000000000000e+00 -5.253884196281433105e-02 5.752427969127893448e-03 7.447476983070373535e-01 5.368932615965604782e-03 -5.549175739288330078e-01 1.917475950904190540e-03 1.264383673667907715e+00 0.000000000000000000e+00 1.610679775476455688e-01 1.265534162521362305e+00 9.023641943931579590e-01 -9.763787984848022461e-01 -6.327670812606811523e-02 1.293912768363952637e+00 6.212622299790382385e-02 -1.256598758697509766e+01
0.000000000000000000e+00 -5.292233824729919434e-02 4.601942375302314758e-03 7.443642020225524902e-01 5.368932615965604782e-03 -5.553010702133178711e-01 1.917475950904190540e-03 1.264000177383422852e+00 -1.150485593825578690e-03 1.618349701166152954e-01 1.264383673667907715e+00 9.019806981086730957e-01 -9.767622947692871094e-01 -6.289321184158325195e-02 1.294296264648437500e+00 6.174272671341896057e-02 -1.256598758697509766e+01
0.000000000000000000e+00 -5.253884196281433105e-02 4.985437728464603424e-03 7.451311945915222168e-01 4.601942375302314758e-03 -5.549175739288330078e-01 2.300971187651157379e-03 1.263616681098937988e+00 -7.669904152862727642e-04 1.618349701166152954e-01 1.265534162521362305e+00 9.019806981086730957e-01 -9.759953022003173828e-01 -6.366020441055297852e-02 1.294296264648437500e+00 6.212622299790382385e-02 -1.256598758697509766e+01
0.000000000000000000e+00 -5.253884196281433105e-02 4.985437728464603424e-03 7.435972094535827637e-01 5.752427969127893448e-03 -5.545340776443481445e-01 1.917475950904190540e-03 1.264767169952392578e+00 -7.669904152862727642e-04 1.614514738321304321e-01 1.265150666236877441e+00 9.015972018241882324e-01 -9.759953022003173828e-01 -6.366020441055297852e-02 1.294679760932922363e+00 6.174272671341896057e-02 -1.256598758697509766e+01
0.000000000000000000e+00 -5.253884196281433105e-02 4.601942375302314758e-03 7.443642020225524902e-01 4.985437728464603424e-03 -5.553010702133178711e-01 2.300971187651157379e-03 1.264000177383422852e+00 -7.669904152862727642e-04 1.610679775476455688e-01 1.265150666236877441e+00 9.019806981086730957e-01 -9.759953022003173828e-01 -6.366020441055297852e-02 1.293912768363952637e+00 6.212622299790382385e-02 -1.256598758697509766e+01
0.000000000000000000e+00 -5.253884196281433105e-02 4.985437728464603424e-03 7.435972094535827637e-01 5.368932615965604782e-03 -5.553010702133178711e-01 1.917475950904190540e-03 1.264383673667907715e+00 -1.150485593825578690e-03 1.614514738321304321e-01 1.264767169952392578e+00 9.019806981086730957e-01 -9.756118059158325195e-01 -6.327670812606811523e-02 1.293912768363952637e+00 6.250971555709838867e-02 -1.256598758697509766e+01
0.000000000000000000e+00 -5.253884196281433105e-02 4.985437728464603424e-03 7.443642020225524902e-01 5.368932615965604782e-03 -5.545340776443481445e-01 1.917475950904190540e-03 1.264767169952392578e+00 -1.150485593825578690e-03 1.618349701166152954e-01 1.264383673667907715e+00 9.023641943931579590e-01 -9.759953022003173828e-01 -6.327670812606811523e-02 1.294296264648437500e+00 6.174272671341896057e-02 -1.256598758697509766e+01
0.000000000000000000e+00 -5.253884196281433105e-02 5.752427969127893448e-03 7.447476983070373535e-01 5.368932615965604782e-03 -5.545340776443481445e-01 1.533980830572545528e-03 1.263616681098937988e+00 0.000000000000000000e+00 1.614514738321304321e-01 1.265534162521362305e+00 9.015972018241882324e-01 -9.756118059158325195e-01 -6.289321184158325195e-02 1.294296264648437500e+00 6.174272671341896057e-02 -1.256598758697509766e+01
0.000000000000000000e+00 -5.253884196281433105e-02 5.368932615965604782e-03 7.447476983070373535e-01 4.985437728464603424e-03 -5.553010702133178711e-01 1.533980830572545528e-03 1.263616681098937988e+00 -3.834952076431363821e-04 1.610679775476455688e-01 1.264000177383422852e+00 9.023641943931579590e-01 -9.759953022003173828e-01 -6.366020441055297852e-02 1.294679760932922363e+00 6.289321184158325195e-02 -1.256598758697509766e+01
0.000000000000000000e+00 -5.330583080649375916e-02 4.601942375302314758e-03 7.447476983070373535e-01 5.752427969127893448e-03 -5.549175739288330078e-01 2.300971187651157379e-03 1.263616681098937988e+00 -1.150485593825578690e-03 1.610679775476455688e-01 1.264767169952392578e+00 9.023641943931579590e-01 -9.756118059158325195e-01 -6.366020441055297852e-02 1.293912768363952637e+00 6.250971555709838867e-02 -1.256598758697509766e+01
0.000000000000000000e+00 -5.215534567832946777e-02 4.985437728464603424e-03 7.447476983070373535e-01 5.752427969127893448e-03 -5.549175739288330078e-01 1.917475950904190540e-03 1.263616681098937988e+00 0.000000000000000000e+00 1.610679775476455688e-01 1.265150666236877441e+00 9.015972018241882324e-01 -9.759953022003173828e-01 -6.327670812606811523e-02 1.294679760932922363e+00 6.174272671341896057e-02 -1.256598758697509766e+01
0.000000000000000000e+00 -5.253884196281433105e-02 5.368932615965604782e-03 7.443642020225524902e-01 5.368932615965604782e-03 -5.553010702133178711e-01 2.300971187651157379e-03 1.264383673667907715e+00 -3.834952076431363821e-04 1.618349701166152954e-01 1.264383673667907715e+00 9.031311869621276855e-01 -9.756118059158325195e-01 -6.327670812606811523e-02 1.294296264648437500e+00 6.212622299790382385e-02 -1.256598758697509766e+01
0.000000000000000000e+00 -5.292233824729919434e-02 4.985437728464603424e-03 7.455146908760070801e-01 5.368932615965604782e-03 -5.545340776443481445e-01 2.300971187651157379e-03 1.264000177383422852e+00 -7.669904152862727642e-04 1.614514738321304321e-01 1.264767169952392578e+00 9.015972018241882324e-01 -9.756118059158325195e-01 -6.327670812606811523e-02 1.294296264648437500e+00 6.174272671341896057e-02 -1.256598758697509766e+01
0.000000000000000000e+00 -5.253884196281433105e-02 4.601942375302314758e-03 7.447476983070373535e-01 5.368932615965604782e-03 -5.541505813598632812e-01 2.300971187651157379e-03 1.264000177383422852e+00 -7.669904152862727642e-04 1.618349701166152954e-01 1.264767169952392578e+00 9.023641943931579590e-01 -9.756118059158325195e-01 -6.289321184158325195e-02 1.293529272079467773e+00 6.212622299790382385e-02 -1.256598758697509766e+01
0.000000000000000000e+00 -5.292233824729919434e-02 4.985437728464603424e-03 7.447476983070373535e-01 5.368932615965604782e-03 -5.553010702133178711e-01 1.917475950904190540e-03 1.264383673667907715e+00 -3.834952076431363821e-04 1.610679775476455688e-01 1.265150666236877441e+00 9.023641943931579590e-01 -9.759953022003173828e-01 -6.327670812606811523e-02 1.294679760932922363e+00 6.135923042893409729e-02 -1.256598758697509766e+01
0.000000000000000000e+00 -5.253884196281433105e-02 4.985437728464603424e-03 7.447476983070373535e-01 5.368932615965604782e-03 -5.556845664978027344e-01 1.917475950904190540e-03 1.263616681098937988e+00 -1.917475950904190540e-03 1.610679775476455688e-01 1.264767169952392578e+00 9.015972018241882324e-01 -9.759953022003173828e-01 -6.327670812606811523e-02 1.294679760932922363e+00 6.250971555709838867e-02 -1.256598758697509766e+01
0.000000000000000000e+00 -5.253884196281433105e-02 4.985437728464603424e-03 7.451311945915222168e-01 6.135923322290182114e-03 -5.553010702133178711e-01 2.300971187651157379e-03 1.263616681098937988e+00 -7.669904152862727642e-04 1.614514738321304321e-01 1.265150666236877441e+00 9.015972018241882324e-01 -9.759953022003173828e-01 -6.289321184158325195e-02 1.294296264648437500e+00 6.097573786973953247e-02 -1.256598758697509766e+01
0.000000000000000000e+00 -5.253884196281433105e-02 4.601942375302314758e-03 7.443642020225524902e-01 5.752427969127893448e-03 -5.545340776443481445e-01 1.150485593825578690e-03 1.264000177383422852e+00 -3.834952076431363821e-04 1.614514738321304321e-01 1.264767169952392578e+00 9.019806981086730957e-01 -9.759953022003173828e-01 -6.366020441055297852e-02 1.294296264648437500e+00 6.135923042893409729e-02 -1.256598758697509766e+01
0.000000000000000000e+00 -5.253884196281433105e-02 4.601942375302314758e-03 7.435972094535827637e-01 5.368932615965604782e-03 -5.549175739288330078e-01 1.533980830572545528e-03 1.263616681098937988e+00 -7.669904152862727642e-04 1.606844812631607056e-01 1.265150666236877441e+00 9.019806981086730957e-01 -9.756118059158325195e-01 -6.366020441055297852e-02 1.294296264648437500e+00 6.135923042893409729e-02 -1.256598758697509766e+01
0.000000000000000000e+00 -5.253884196281433105e-02 4.601942375302314758e-03 7.447476983070373535e-01 5.752427969127893448e-03 -5.545340776443481445e-01 1.533980830572545528e-03 1.264000177383422852e+00 -1.150485593825578690e-03 1.610679775476455688e-01 1.265150666236877441e+00 9.031311869621276855e-01 -9.763787984848022461e-01 -6.327670812606811523e-02 1.293912768363952637e+00 6.212622299790382385e-02 -1.256598758697509766e+01
0.000000000000000000e+00 -5.292233824729919434e-02 4.218447022140026093e-03 7.447476983070373535e-01 5.368932615965604782e-03 -5.545340776443481445e-01 2.300971187651157379e-03 1.264000177383422852e+00 -3.834952076431363821e-04 1.610679775476455688e-01 1.265534162521362305e+00 9.019806981086730957e-01 -9.763787984848022461e-01 -6.250971555709838867e-02 1.294296264648437500e+00 6.212622299790382385e-02 -1.256598758697509766e+01
0.000000000000000000e+00 -5.292233824729919434e-02 4.985437728464603424e-03 7.443642020225524902e-01 5.368932615965604782e-03 -5.541505813598632812e-01 1.917475950904190540e-03 1.263616681098937988e+00 -3.834952076431363821e-04 1.614514738321304321e-01 1.265917658805847168e+00 9.019806981086730957e-01 -9.759953022003173828e-01 -6.327670812606811523e-02 1.293912768363952637e+00 6.212622299790382385e-02 -1.256598758697509766e+01
0.000000000000000000e+00 -5.292233824729919434e-02 4.985437728464603424e-03 7.455146908760070801e-01 5.368932615965604782e-03 -5.545340776443481445e-01 2.300971187651157379e-03 1.264383673667907715e+00 -7.669904152862727642e-04 1.610679775476455688e-01 1.265150666236877441e+00 9.015972018241882324e-01 -9.767622947692871094e-01 -6.327670812606811523e-02 1.293912768363952637e+00 6.135923042893409729e-02 -1.256598758697509766e+01
0.000000000000000000e+00 -5.253884196281433105e-02 4.985437728464603424e-03 7.443642020225524902e-01 5.368932615965604782e-03 -5.553010702133178711e-01 1.917475950904190540e-03 1.264767169952392578e+00 -7.669904152862727642e-04 1.618349701166152954e-01 1.266301155090332031e+00 9.023641943931579590e-01 -9.763787984848022461e-01 -6.289321184158325195e-02 1.294296264648437500e+00 6.174272671341896057e-02 -1.256598758697509766e+01
0.000000000000000000e+00 -5.253884196281433105e-02 4.985437728464603424e-03 7.447476983070373535e-01 4.985437728464603424e-03 -5.549175739288330078e-01 1.917475950904190540e-03 1.264000177383422852e+00 -3.834952076431363821e-04 1.614514738321304321e-01 1.265917658805847168e+00 9.023641943931579590e-01 -9.767622947692871094e-01 -6.289321184158325195e-02 1.294296264648437500e+00 6.174272671341896057e-02 -1.256598758697509766e+01
0.000000000000000000e+00 -5.253884196281433105e-02 4.985437728464603424e-03 7.447476983070373535e-01 5.368932615965604782e-03 -5.541505813598632812e-01 1.533980830572545528e-03 1.263616681098937988e+00 -7.669904152862727642e-04 1.614514738321304321e-01 1.264767169952392578e+00 9.023641943931579590e-01 -9.779127240180969238e-01 -6.327670812606811523e-02 1.294679760932922363e+00 6.212622299790382385e-02 -1.256598758697509766e+01
0.000000000000000000e+00 -5.215534567832946777e-02 5.368932615965604782e-03 7.443642020225524902e-01 4.985437728464603424e-03 -5.545340776443481445e-01 1.533980830572545528e-03 1.264000177383422852e+00 -1.150485593825578690e-03 1.618349701166152954e-01 1.265150666236877441e+00 9.015972018241882324e-01 -9.779127240180969238e-01 -6.366020441055297852e-02 1.294679760932922363e+00 6.174272671341896057e-02 -1.256598758697509766e+01
0.000000000000000000e+00 -5.292233824729919434e-02 4.985437728464603424e-03 7.443642020225524902e-01 5.368932615965604782e-03 -5.549175739288330078e-01 1.917475950904190540e-03 1.263616681098937988e+00 -7.669904152862727642e-04 1.610679775476455688e-01 1.265917658805847168e+00 9.019806981086730957e-01 -9.782962203025817871e-01 -6.366020441055297852e-02 1.295446753501892090e+00 6.212622299790382385e-02 -1.256598758697509766e+01
0.000000000000000000e+00 -5.253884196281433105e-02 4.218447022140026093e-03 7.443642020225524902e-01 4.985437728464603424e-03 -5.553010702133178711e-01 2.300971187651157379e-03 1.263616681098937988e+00 -7.669904152862727642e-04 1.614514738321304321e-01 1.265917658805847168e+00 9.023641943931579590e-01 -9.782962203025817871e-01 -6.250971555709838867e-02 1.294679760932922363e+00 6.135923042893409729e-02 -1.256598758697509766e+01
0.000000000000000000e+00 -5.292233824729919434e-02 4.601942375302314758e-03 7.443642020225524902e-01 5.752427969127893448e-03 -5.553010702133178711e-01 1.917475950904190540e-03 1.263233184814453125e+00 -1.150485593825578690e-03 1.610679775476455688e-01 1.265150666236877441e+00 9.023641943931579590e-01 -9.782962203025817871e-01 -6.250971555709838867e-02 1.295830249786376953e+00 6.174272671341896057e-02 -1.256598758697509766e+01
0.000000000000000000e+00 -5.215534567832946777e-02 4.985437728464603424e-03 7.451311945915222168e-01 5.368932615965604782e-03 -5.545340776443481445e-01 2.300971187651157379e-03 1.263616681098937988e+00 -7.669904152862727642e-04 1.622184664011001587e-01 1.265150666236877441e+00 9.019806981086730957e-01 -9.794467091560363770e-01 -6.327670812606811523e-02 1.294679760932922363e+00 6.174272671341896057e-02 -1.256598758697509766e+01
0.000000000000000000e+00 -5.292233824729919434e-02 4.985437728464603424e-03 7.447476983070373535e-01 5.368932615965604782e-03 -5.545340776443481445e-01 2.300971187651157379e-03 1.264383673667907715e+00 -3.834952076431363821e-04 1.618349701166152954e-01 1.265534162521362305e+00 9.027476906776428223e-01 -9.790632128715515137e-01 -6.366020441055297852e-02 1.294679760932922363e+00 6.212622299790382385e-02 -1.256598758697509766e+01
0.000000000000000000e+00 -5.253884196281433105e-02 4.601942375302314758e-03 7.455146908760070801e-01 5.368932615965604782e-03 -5.556845664978027344e-01 1.917475950904190540e-03 1.264000177383422852e+00 -7.669904152862727642e-04 1.614514738321304321e-01 1.264767169952392578e+00 9.023641943931579590e-01 -9.794467091560363770e-01 -6.212622299790382385e-02 1.294679760932922363e+00 6.212622299790382385e-02 -1.256598758697509766e+01
0.000000000000000000e+00 -5.330583080649375916e-02 4.985437728464603424e-03 7.447476983070373535e-01 5.368932615965604782e-03 -5.545340776443481445e-01 2.300971187651157379e-03 1.263616681098937988e+00 -1.150485593825578690e-03 1.614514738321304321e-01 1.264383673667907715e+00 9.023641943931579590e-01 -9.805971980094909668e-01 -6.289321184158325195e-02 1.294679760932922363e+00 6.174272671341896057e-02 -1.256598758697509766e+01
0.000000000000000000e+00 -5.253884196281433105e-02 4.218447022140026093e-03 7.435972094535827637e-01 5.368932615965604782e-03 -5.553010702133178711e-01 1.917475950904190540e-03 1.264383673667907715e+00 -1.150485593825578690e-03 1.610679775476455688e-01 1.265534162521362305e+00 9.027476906776428223e-01 -9.805971980094909668e-01 -6.327670812606811523e-02 1.294679760932922363e+00 6.174272671341896057e-02 -1.256598758697509766e+01
0.000000000000000000e+00 -5.330583080649375916e-02 4.985437728464603424e-03 7.443642020225524902e-01 5.368932615965604782e-03 -5.553010702133178711e-01 1.533980830572545528e-03 1.264000177383422852e+00 -7.669904152862727642e-04 1.614514738321304321e-01 1.265150666236877441e+00 9.019806981086730957e-01 -9.813641905784606934e-01 -6.366020441055297852e-02 1.294679760932922363e+00 6.250971555709838867e-02 -1.256598758697509766e+01
0.000000000000000000e+00 -5.292233824729919434e-02 4.985437728464603424e-03 7.447476983070373535e-01 5.368932615965604782e-03 -5.545340776443481445e-01 2.300971187651157379e-03 1.264383673667907715e+00 -3.834952076431363821e-04 1.614514738321304321e-01 1.265150666236877441e+00 9.023641943931579590e-01 -9.805971980094909668e-01 -6.366020441055297852e-02 1.295063257217407227e+00 6.250971555709838867e-02 -1.256598758697509766e+01
0.000000000000000000e+00 -5.253884196281433105e-02 4.601942375302314758e-03 7.451311945915222168e-01 6.519418209791183472e-03 -5.553010702133178711e-01 1.917475950904190540e-03 1.264000177383422852e+00 -7.669904152862727642e-04 1.614514738321304321e-01 1.264767169952392578e+00 9.027476906776428223e-01 -9.813641905784606934e-01 -6.289321184158325195e-02 1.294679760932922363e+00 6.174272671341896057e-02 -1.256598758697509766e+01
0.000000000000000000e+00 -5.330583080649375916e-02 4.601942375302314758e-03 7.443642020225524902e-01 5.752427969127893448e-03 -5.549175739288330078e-01 1.533980830572545528e-03 1.264000177383422852e+00 -7.669904152862727642e-04 1.614514738321304321e-01 1.264000177383422852e+00 9.019806981086730957e-01 -9.813641905784606934e-01 -6.289321184158325195e-02 1.294679760932922363e+00 6.174272671341896057e-02 -1.256598758697509766e+01
0.000000000000000000e+00 -5.292233824729919434e-02 5.368932615965604782e-03 7.443642020225524902e-01 5.368932615965604782e-03 -5.549175739288330078e-01 1.917475950904190540e-03 1.263616681098937988e+00 -1.150485593825578690e-03 1.610679775476455688e-01 1.264383673667907715e+00 9.027476906776428223e-01 -9.821311831474304199e-01 -6.327670812606811523e-02 1.295063257217407227e+00 6.212622299790382385e-02 -1.256598758697509766e+01
0.000000000000000000e+00 -5.292233824729919434e-02 4.601942375302314758e-03 7.443642020225524902e-01 5.368932615965604782e-03 -5.553010702133178711e-01 1.917475950904190540e-03 1.263616681098937988e+00 -3.834952076431363821e-04 1.614514738321304321e-01 1.264767169952392578e+00 9.019806981086730957e-01 -9.821311831474304199e-01 -6.289321184158325195e-02 1.295063257217407227e+00 6.174272671341896057e-02 -1.256598758697509766e+01
0.000000000000000000e+00 -5.215534567832946777e-02 4.985437728464603424e-03 7.443642020225524902e-01 4.985437728464603424e-03 -5.541505813598632812e-01 2.300971187651157379e-03 1.263616681098937988e+00 -1.150485593825578690e-03 1.610679775476455688e-01 1.265150666236877441e+00 9.019806981086730957e-01 -9.825146794319152832e-01 -6.327670812606811523e-02 1.294296264648437500e+00 6.174272671341896057e-02 -1.256598758697509766e+01
0.000000000000000000e+00 -5.330583080649375916e-02 4.601942375302314758e-03 7.447476983070373535e-01 4.985437728464603424e-03 -5.553010702133178711e-01 2.300971187651157379e-03 1.264000177383422852e+00 -1.150485593825578690e-03 1.610679775476455688e-01 1.265150666236877441e+00 9.023641943931579590e-01 -9.832816720008850098e-01 -6.289321184158325195e-02 1.295063257217407227e+00 6.212622299790382385e-02 -1.256598758697509766e+01
0.000000000000000000e+00 -5.215534567832946777e-02 4.218447022140026093e-03 7.443642020225524902e-01 5.368932615965604782e-03 -5.553010702133178711e-01 1.917475950904190540e-03 1.263616681098937988e+00 -7.669904152862727642e-04 1.614514738321304321e-01 1.265150666236877441e+00 9.019806981086730957e-01 -9.840486645698547363e-01 -6.327670812606811523e-02 1.294679760932922363e+00 6.174272671341896057e-02 -1.256598758697509766e+01
0.000000000000000000e+00 -5.253884196281433105e-02 4.985437728464603424e-03 7.443642020225524902e-01 5.368932615965604782e-03 -5.545340776443481445e-01 2.684466307982802391e-03 1.263233184814453125e+00 -7.669904152862727642e-04 1.614514738321304321e-01 1.265150666236877441e+00 9.015972018241882324e-01 -9.828981757164001465e-01 -6.289321184158325195e-02 1.294679760932922363e+00 6.212622299790382385e-02 -1.256598758697509766e+01
0.000000000000000000e+00 -5.292233824729919434e-02 4.601942375302314758e-03 7.443642020225524902e-01 5.368932615965604782e-03 -5.553010702133178711e-01 2.300971187651157379e-03 1.264383673667907715e+00 -7.669904152862727642e-04 1.618349701166152954e-01 1.264767169952392578e+00 9.023641943931579590e-01 -9.840486645698547363e-01 -6.289321184158325195e-02 1.294679760932922363e+00 6.212622299790382385e-02 -1.256598758697509766e+01
0.000000000000000000e+00 -5.292233824729919434e-02 4.985437728464603424e-03 7.443642020225524902e-01 6.135923322290182114e-03 -5.549175739288330078e-01 1.917475950904190540e-03 1.263616681098937988e+00 -1.150485593825578690e-03 1.610679775476455688e-01 1.264767169952392578e+00 9.023641943931579590e-01 -9.844321608543395996e-01 -6.327670812606811523e-02 1.295446753501892090e+00 6.212622299790382385e-02 -1.256598758697509766e+01
0.000000000000000000e+00 -5.253884196281433105e-02 4.601942375302314758e-03 7.443642020225524902e-01 5.368932615965604782e-03 -5.545340776443481445e-01 2.684466307982802391e-03 1.264000177383422852e+00 -3.834952076431363821e-04 1.610679775476455688e-01 1.264383673667907715e+00 9.023641943931579590e-01 -9.848156571388244629e-01 -6.404370069503784180e-02 1.294296264648437500e+00 6.174272671341896057e-02 -1.256598758697509766e+01
0.000000000000000000e+00 -5.292233824729919434e-02 4.601942375302314758e-03 7.451311945915222168e-01 5.752427969127893448e-03 -5.549175739288330078e-01 1.917475950904190540e-03 1.263616681098937988e+00 -1.150485593825578690e-03 1.610679775476455688e-01 1.263616681098937988e+00 9.019806981086730957e-01 -9.840486645698547363e-01 -6.327670812606811523e-02 1.295446753501892090e+00 6.174272671341896057e-02 -1.256598758697509766e+01
0.000000000000000000e+00 -5.215534567832946777e-02 5.368932615965604782e-03 7.435972094535827637e-01 5.368932615965604782e-03 -5.545340776443481445e-01 2.300971187651157379e-03 1.263616681098937988e+00 -7.669904152862727642e-04 1.614514738321304321e-01 1.264000177383422852e+00 9.023641943931579590e-01 -9.848156571388244629e-01 -6.289321184158325195e-02 1.295446753501892090e+00 6.250971555709838867e-02 -1.256598758697509766e+01
0.000000000000000000e+00 -5.253884196281433105e-02 4.601942375302314758e-03 7.447476983070373535e-01 4.985437728464603424e-03 -5.549175739288330078e-01 1.917475950904190540e-03 1.264000177383422852e+00 -7.669904152862727642e-04 1.618349701166152954e-01 1.264383673667907715e+00 9.019806981086730957e-01 -9.844321608543395996e-01 -6.289321184158325195e-02 1.294296264648437500e+00 6.174272671341896057e-02 -1.256598758697509766e+01
0.000000000000000000e+00 -5.253884196281433105e-02 5.752427969127893448e-03 7.443642020225524902e-01 4.985437728464603424e-03 -5.549175739288330078e-01 1.533980830572545528e-03 1.264000177383422852e+00 -7.669904152862727642e-04 1.614514738321304321e-01 1.265150666236877441e+00 9.023641943931579590e-01 -9.844321608543395996e-01 -6.289321184158325195e-02 1.294296264648437500e+00 6.097573786973953247e-02 -1.256598758697509766e+01
0.000000000000000000e+00 -5.253884196281433105e-02 4.601942375302314758e-03 7.447476983070373535e-01 5.368932615965604782e-03 -5.549175739288330078e-01 2.300971187651157379e-03 1.264383673667907715e+00 -7.669904152862727642e-04 1.614514738321304321e-01 1.264767169952392578e+00 9.027476906776428223e-01 -9.844321608543395996e-01 -6.289321184158325195e-02 1.294679760932922363e+00 6.135923042893409729e-02 -1.256598758697509766e+01
0.000000000000000000e+00 -5.292233824729919434e-02 4.985437728464603424e-03 7.447476983070373535e-01 5.752427969127893448e-03 -5.553010702133178711e-01 2.684466307982802391e-03 1.264000177383422852e+00 -3.834952076431363821e-04 1.606844812631607056e-01 1.264383673667907715e+00 9.027476906776428223e-01 -9.844321608543395996e-01 -6.366020441055297852e-02 1.295063257217407227e+00 6.289321184158325195e-02 -1.256598758697509766e+01
0.000000000000000000e+00 -5.292233824729919434e-02 4.601942375302314758e-03 7.447476983070373535e-01 5.368932615965604782e-03 -5.553010702133178711e-01 1.917475950904190540e-03 1.264000177383422852e+00 -1.150485593825578690e-03 1.618349701166152954e-01 1.264767169952392578e+00 9.031311869621276855e-01 -9.844321608543395996e-01 -6.289321184158325195e-02 1.294679760932922363e+00 6.212622299790382385e-02 -1.256598758697509766e+01
0.000000000000000000e+00 -5.330583080649375916e-02 5.368932615965604782e-03 7.443642020225524902e-01 5.368932615965604782e-03 -5.549175739288330078e-01 2.300971187651157379e-03 1.264000177383422852e+00 -1.150485593825578690e-03 1.606844812631607056e-01 1.264767169952392578e+00 9.019806981086730957e-01 -9.848156571388244629e-01 -6.212622299790382385e-02 1.295063257217407227e+00 6.289321184158325195e-02 -1.256598758697509766e+01
0.000000000000000000e+00 -5.253884196281433105e-02 4.985437728464603424e-03 7.443642020225524902e-01 5.752427969127893448e-03 -5.553010702133178711e-01 1.917475950904190540e-03 1.264000177383422852e+00 -3.834952076431363821e-04 1.610679775476455688e-01 1.265534162521362305e+00 9.023641943931579590e-01 -9.836651682853698730e-01 -6.366020441055297852e-02 1.295830249786376953e+00 6.174272671341896057e-02 -1.256598758697509766e+01
0.000000000000000000e+00 -5.253884196281433105e-02 4.985437728464603424e-03 7.451311945915222168e-01 5.752427969127893448e-03 -5.553010702133178711e-01 2.300971187651157379e-03 1.263616681098937988e+00 0.000000000000000000e+00 1.622184664011001587e-01 1.265534162521362305e+00 9.019806981086730957e-01 -9.844321608543395996e-01 -6.289321184158325195e-02 1.295063257217407227e+00 6.212622299790382385e-02 -1.256598758697509766e+01
0.000000000000000000e+00 -5.215534567832946777e-02 4.985437728464603424e-03 7.443642020225524902e-01 4.985437728464603424e-03 -5.545340776443481445e-01 1.917475950904190540e-03 1.264000177383422852e+00 -3.834952076431363821e-04 1.614514738321304321e-01 1.265534162521362305e+00 9.019806981086730957e-01 -9.848156571388244629e-01 -6.250971555709838867e-02 1.294679760932922363e+00 6.212622299790382385e-02 -1.256598758697509766e+01
0.000000000000000000e+00 -5.253884196281433105e-02 4.601942375302314758e-03 7.443642020225524902e-01 5.368932615965604782e-03 -5.545340776443481445e-01 1.533980830572545528e-03 1.263616681098937988e+00 -3.834952076431363821e-04 1.614514738321304321e-01 1.265534162521362305e+00 9.019806981086730957e-01 -9.848156571388244629e-01 -6.327670812606811523e-02 1.295063257217407227e+00 6.174272671341896057e-02 -1.256598758697509766e+01
0.000000000000000000e+00 -5.292233824729919434e-02 4.985437728464603424e-03 7.451311945915222168e-01 4.985437728464603424e-03 -5.549175739288330078e-01 2.300971187651157379e-03 1.264383673667907715e+00 -1.150485593825578690e-03 1.618349701166152954e-01 1.264767169952392578e+00 9.023641943931579590e-01 -9.844321608543395996e-01 -6.289321184158325195e-02 1.294679760932922363e+00 6.212622299790382385e-02 -1.256598758697509766e+01
0.000000000000000000e+00 -5.292233824729919434e-02 4.985437728464603424e-03 7.443642020225524902e-01 5.368932615965604782e-03 -5.545340776443481445e-01 1.533980830572545528e-03 1.264000177383422852e+00 -1.150485593825578690e-03 1.614514738321304321e-01 1.266301155090332031e+00 9.019806981086730957e-01 -9.840486645698547363e-01 -6.327670812606811523e-02 1.295063257217407227e+00 6.174272671341896057e-02 -1.256598758697509766e+01
0.000000000000000000e+00 -5.330583080649375916e-02 5.368932615965604782e-03 7.435972094535827637e-01 4.985437728464603424e-03 -5.549175739288330078e-01 3.067961661145091057e-03 1.264383673667907715e+00 -3.834952076431363821e-04 1.618349701166152954e-01 1.265150666236877441e+00 9.023641943931579590e-01 -9.848156571388244629e-01 -6.327670812606811523e-02 1.294679760932922363e+00 6.212622299790382385e-02 -1.256598758697509766e+01
0.000000000000000000e+00 -5.292233824729919434e-02 4.601942375302314758e-03 7.447476983070373535e-01 5.368932615965604782e-03 -5.549175739288330078e-01 1.917475950904190540e-03 1.263616681098937988e+00 -3.834952076431363821e-04 1.614514738321304321e-01 1.265534162521362305e+00 9.023641943931579590e-01 -9.844321608543395996e-01 -6.250971555709838867e-02 1.294679760932922363e+00 6.174272671341896057e-02 -1.256598758697509766e+01
0.000000000000000000e+00 -5.292233824729919434e-02 4.985437728464603424e-03 7.447476983070373535e-01 5.368932615965604782e-03 -5.549175739288330078e-01 2.300971187651157379e-03 1.264767169952392578e+00 -3.834952076431363821e-04 1.610679775476455688e-01 1.264767169952392578e+00 9.023641943931579590e-01 -9.840486645698547363e-01 -6.366020441055297852e-02 1.294679760932922363e+00 6.174272671341896057e-02 -1.256598758697509766e+01
0.000000000000000000e+00 -5.253884196281433105e-02 4.601942375302314758e-03 7.451311945915222168e-01 5.368932615965604782e-03 -5.549175739288330078e-01 2.300971187651157379e-03 1.264383673667907715e+00 0.000000000000000000e+00 1.618349701166152954e-01 1.265534162521362305e+00 9.031311869621276855e-01 -9.840486645698547363e-01 -6.366020441055297852e-02 1.295063257217407227e+00 6.174272671341896057e-02 -1.256598758697509766e+01
0.000000000000000000e+00 -5.215534567832946777e-02 5.368932615965604782e-03 7.447476983070373535e-01 5.368932615965604782e-03 -5.545340776443481445e-01 1.917475950904190540e-03 1.264000177383422852e+00 -7.669904152862727642e-04 1.614514738321304321e-01 1.265150666236877441e+00 9.023641943931579590e-01 -9.840486645698547363e-01 -6.366020441055297852e-02 1.295446753501892090e+00 6.174272671341896057e-02 -1.256598758697509766e+01
0.000000000000000000e+00 -5.215534567832946777e-02 4.985437728464603424e-03 7.443642020225524902e-01 5.368932615965604782e-03 -5.549175739288330078e-01 1.917475950904190540e-03 1.264383673667907715e+00 -1.150485593825578690e-03 1.610679775476455688e-01 1.265534162521362305e+00 9.027476906776428223e-01 -9.848156571388244629e-01 -6.327670812606811523e-02 1.295446753501892090e+00 6.174272671341896057e-02 -1.256598758697509766e+01
0.000000000000000000e+00 -5.253884196281433105e-02 4.601942375302314758e-03 7.435972094535827637e-01 5.368932615965604782e-03 -5.553010702133178711e-01 1.917475950904190540e-03 1.264383673667907715e+00 -3.834952076431363821e-04 1.622184664011001587e-01 1.264767169952392578e+00 9.023641943931579590e-01 -9.840486645698547363e-01 -6.366020441055297852e-02 1.294679760932922363e+00 6.174272671341896057e-02 -1.256598758697509766e+01
0.000000000000000000e+00 -5.292233824729919434e-02 4.985437728464603424e-03 7.443642020225524902e-01 4.985437728464603424e-03 -5.553010702133178711e-01 1.917475950904190540e-03 1.264000177383422852e+00 -7.669904152862727642e-04 1.610679775476455688e-01 1.264767169952392578e+00 9.019806981086730957e-01 -9.848156571388244629e-01 -6.327670812606811523e-02 1.295063257217407227e+00 6.174272671341896057e-02 -1.256598758697509766e+01
0.000000000000000000e+00 -5.253884196281433105e-02 4.601942375302314758e-03 7.443642020225524902e-01 4.985437728464603424e-03 -5.549175739288330078e-01 1.917475950904190540e-03 1.264000177383422852e+00 -3.834952076431363821e-04 1.614514738321304321e-01 1.265150666236877441e+00 9.019806981086730957e-01 -9.848156571388244629e-01 -6.327670812606811523e-02 1.295063257217407227e+00 6.212622299790382385e-02 -1.256598758697509766e+01
0.000000000000000000e+00 -5.292233824729919434e-02 4.985437728464603424e-03 7.447476983070373535e-01 5.368932615965604782e-03 -5.545340776443481445e-01 2.300971187651157379e-03 1.264000177383422852e+00 -1.533980830572545528e-03 1.614514738321304321e-01 1.265150666236877441e+00 9.015972018241882324e-01 -9.848156571388244629e-01 -6.327670812606811523e-02 1.294679760932922363e+00 6.212622299790382385e-02 -1.256598758697509766e+01
0.000000000000000000e+00 -5.253884196281433105e-02 4.601942375302314758e-03 7.443642020225524902e-01 5.752427969127893448e-03 -5.553010702133178711e-01 1.917475950904190540e-03 1.264000177383422852e+00 -7.669904152862727642e-04 1.610679775476455688e-01 1.265150666236877441e+00 9.027476906776428223e-01 -9.840486645698547363e-01 -6.366020441055297852e-02 1.294679760932922363e+00 6.135923042893409729e-02 -1.256598758697509766e+01
0.000000000000000000e+00 -5.292233824729919434e-02 4.601942375302314758e-03 7.451311945915222168e-01 4.985437728464603424e-03 -5.545340776443481445e-01 1.917475950904190540e-03 1.264000177383422852e+00 -1.150485593825578690e-03 1.610679775476455688e-01 1.265150666236877441e+00 9.019806981086730957e-01 -9.844321608543395996e-01 -6.366020441055297852e-02 1.294679760932922363e+00 6.174272671341896057e-02 -1.256598758697509766e+01
0.000000000000000000e+00 -5.253884196281433105e-02 4.985437728464603424e-03 7.443642020225524902e-01 5.752427969127893448e-03 -5.549175739288330078e-01 1.917475950904190540e-03 1.264000177383422852e+00 -3.834952076431363821e-04 1.614514738321304321e-01 1.264767169952392578e+00 9.019806981086730957e-01 -9.848156571388244629e-01 -6.366020441055297852e-02 1.295063257217407227e+00 6.174272671341896057e-02 -1.256598758697509766e+01
0.000000000000000000e+00 -5.253884196281433105e-02 4.601942375302314758e-03 7.447476983070373535e-01 5.368932615965604782e-03 -5.549175739288330078e-01 2.300971187651157379e-03 1.264000177383422852e+00 -7.669904152862727642e-04 1.606844812631607056e-01 1.264767169952392578e+00 9.019806981086730957e-01 -9.836651682853698730e-01 -6.366020441055297852e-02 1.295063257217407227e+00 6.212622299790382385e-02 -1.256598758697509766e+01
0.000000000000000000e+00 -5.253884196281433105e-02 4.601942375302314758e-03 7.443642020225524902e-01 4.985437728464603424e-03 -5.549175739288330078e-01 1.533980830572545528e-03 1.264000177383422852e+00 -3.834952076431363821e-04 1.614514738321304321e-01 1.265150666236877441e+00 9.027476906776428223e-01 -9.840486645698547363e-01 -6.327670812606811523e-02 1.295830249786376953e+00 6.212622299790382385e-02 -1.256598758697509766e+01
0.000000000000000000e+00 -5.330583080649375916e-02 3.834951901808381081e-03 7.443642020225524902e-01 5.368932615965604782e-03 -5.553010702133178711e-01 1.533980830572545528e-03 1.264000177383422852e+00 -3.834952076431363821e-04 1.614514738321304321e-01 1.264000177383422852e+00 9.019806981086730957e-01 -9.844321608543395996e-01 -6.289321184158325195e-02 1.294679760932922363e+00 6.174272671341896057e-02 -1.256598758697509766e+01
0.000000000000000000e+00 -5.253884196281433105e-02 4.601942375302314758e-03 7.451311945915222168e-01 4.985437728464603424e-03 -5.549175739288330078e-01 1.917475950904190540e-03 1.263616681098937988e+00 -1.150485593825578690e-03 1.614514738321304321e-01 1.265917658805847168e+00 9.019806981086730957e-01 -9.844321608543395996e-01 -6.366020441055297852e-02 1.294679760932922363e+00 6.212622299790382385e-02 -1.256598758697509766e+01
0.000000000000000000e+00 -5.253884196281433105e-02 4.985437728464603424e-03 7.432137131690979004e-01 4.601942375302314758e-03 -5.545340776443481445e-01 1.917475950904190540e-03 1.264000177383422852e+00 -7.669904152862727642e-04 1.614514738321304321e-01 1.265534162521362305e+00 9.031311869621276855e-01 -9.848156571388244629e-01 -6.250971555709838867e-02 1.295063257217407227e+00 6.289321184158325195e-02 -1.256598758697509766e+01
0.000000000000000000e+00 -5.215534567832946777e-02 4.985437728464603424e-03 7.443642020225524902e-01 4.985437728464603424e-03 -5.545340776443481445e-01 1.917475950904190540e-03 1.264000177383422852e+00 -1.150485593825578690e-03 1.614514738321304321e-01 1.265534162521362305e+00 9.027476906776428223e-01 -9.844321608543395996e-01 -6.289321184158325195e-02 1.295063257217407227e+00 6.174272671341896057e-02 -1.256598758697509766e+01
0.000000000000000000e+00 -5.292233824729919434e-02 4.601942375302314758e-03 7.443642020225524902e-01 5.752427969127893448e-03 -5.553010702133178711e-01 1.917475950904190540e-03 1.264383673667907715e+00 -7.669904152862727642e-04 1.614514738321304321e-01 1.264383673667907715e+00 9.023641943931579590e-01 -9.851991534233093262e-01 -6.327670812606811523e-02 1.295446753501892090e+00 6.212622299790382385e-02 -1.256598758697509766e+01
0.000000000000000000e+00 -5.253884196281433105e-02 5.368932615965604782e-03 7.443642020225524902e-01 5.368932615965604782e-03 -5.553010702133178711e-01 1.917475950904190540e-03 1.264383673667907715e+00 -7.669904152862727642e-04 1.614514738321304321e-01 1.265150666236877441e+00 9.027476906776428223e-01 -9.848156571388244629e-01 -6.442718952894210815e-02 1.295446753501892090e+00 6.212622299790382385e-02 -1.256598758697509766e+01
0.000000000000000000e+00 -5.292233824729919434e-02 5.368932615965604782e-03 7.447476983070373535e-01 4.985437728464603424e-03 -5.549175739288330078e-01 1.917475950904190540e-03 1.263616681098937988e+00 -7.669904152862727642e-04 1.618349701166152954e-01 1.265150666236877441e+00 9.027476906776428223e-01 -9.844321608543395996e-01 -6.366020441055297852e-02 1.295063257217407227e+00 6.174272671341896057e-02 -1.256598758697509766e+01
0.000000000000000000e+00 -5.215534567832946777e-02 4.601942375302314758e-03 7.443642020225524902e-01 4.985437728464603424e-03 -5.549175739288330078e-01 1.917475950904190540e-03 1.263616681098937988e+00 0.000000000000000000e+00 1.610679775476455688e-01 1.264767169952392578e+00 9.027476906776428223e-01 -9.851991534233093262e-01 -6.366020441055297852e-02 1.295446753501892090e+00 6.174272671341896057e-02 -1.256598758697509766e+01
0.000000000000000000e+00 -5.292233824729919434e-02 4.601942375302314758e-03 7.447476983070373535e-01 5.368932615965604782e-03 -5.545340776443481445e-01 1.533980830572545528e-03 1.264383673667907715e+00 -3.834952076431363821e-04 1.610679775476455688e-01 1.265150666236877441e+00 9.027476906776428223e-01 -9.844321608543395996e-01 -6.327670812606811523e-02 1.295063257217407227e+00 6.174272671341896057e-02 -1.256598758697509766e+01
0.000000000000000000e+00 -5.253884196281433105e-02 4.985437728464603424e-03 7.443642020225524902e-01 4.985437728464603424e-03 -5.549175739288330078e-01 2.300971187651157379e-03 1.263616681098937988e+00 -3.834952076431363821e-04 1.614514738321304321e-01 1.264767169952392578e+00 9.015972018241882324e-01 -9.848156571388244629e-01 -6.327670812606811523e-02 1.295446753501892090e+00 6.135923042893409729e-02 -1.256598758697509766e+01
0.000000000000000000e+00 -5.292233824729919434e-02 4.601942375302314758e-03 7.435972094535827637e-01 4.985437728464603424e-03 -5.549175739288330078e-01 1.917475950904190540e-03 1.264383673667907715e+00 -1.150485593825578690e-03 1.614514738321304321e-01 1.265917658805847168e+00 9.015972018241882324e-01 -9.844321608543395996e-01 -6.289321184158325195e-02 1.295063257217407227e+00 6.174272671341896057e-02 -1.256598758697509766e+01
0.000000000000000000e+00 -5.253884196281433105e-02 4.601942375302314758e-03 7.443642020225524902e-01 4.985437728464603424e-03 -5.549175739288330078e-01 2.684466307982802391e-03 1.264000177383422852e+00 -7.669904152862727642e-04 1.618349701166152954e-01 1.265150666236877441e+00 9.027476906776428223e-01 -9.844321608543395996e-01 -6.327670812606811523e-02 1.294679760932922363e+00 6.212622299790382385e-02 -1.256598758697509766e+01
0.000000000000000000e+00 -5.292233824729919434e-02 4.601942375302314758e-03 7.443642020225524902e-01 5.368932615965604782e-03 -5.549175739288330078e-01 1.917475950904190540e-03 1.263616681098937988e+00 -7.669904152862727642e-04 1.614514738321304321e-01 1.265534162521362305e+00 9.027476906776428223e-01 -9.840486645698547363e-01 -6.289321184158325195e-02 1.295063257217407227e+00 6.174272671341896057e-02 -1.256598758697509766e+01
0.000000000000000000e+00 -5.292233824729919434e-02 4.601942375302314758e-03 7.447476983070373535e-01 5.752427969127893448e-03 -5.545340776443481445e-01 2.300971187651157379e-03 1.263616681098937988e+00 -7.669904152862727642e-04 1.614514738321304321e-01 1.265534162521362305e+00 9.019806981086730957e-01 -9.840486645698547363e-01 -6.327670812606811523e-02 1.294679760932922363e+00 6.135923042893409729e-02 -1.256598758697509766e+01
0.000000000000000000e+00 -5.292233824729919434e-02 4.985437728464603424e-03 7.443642020225524902e-01 5.368932615965604782e-03 -5.549175739288330078e-01 2.300971187651157379e-03 1.264000177383422852e+00 -7.669904152862727642e-04 1.622184664011001587e-01 1.265150666236877441e+00 9.023641943931579590e-01 -9.851991534233093262e-01 -6.327670812606811523e-02 1.294679760932922363e+00 6.212622299790382385e-02 -1.256598758697509766e+01
0.000000000000000000e+00 -5.253884196281433105e-02 4.985437728464603424e-03 7.435972094535827637e-01 5.752427969127893448e-03 -5.549175739288330078e-01 2.684466307982802391e-03 1.264000177383422852e+00 -3.834952076431363821e-04 1.618349701166152954e-01 1.265150666236877441e+00 9.019806981086730957e-01 -9.848156571388244629e-01 -6.327670812606811523e-02 1.295063257217407227e+00 6.212622299790382385e-02 -1.256598758697509766e+01
0.000000000000000000e+00 -5.215534567832946777e-02 4.601942375302314758e-03 7.447476983070373535e-01 5.368932615965604782e-03 -5.549175739288330078e-01 1.533980830572545528e-03 1.264000177383422852e+00 -7.669904152862727642e-04 1.618349701166152954e-01 1.264767169952392578e+00 9.023641943931579590e-01 -9.844321608543395996e-01 -6.327670812606811523e-02 1.294679760932922363e+00 6.174272671341896057e-02 -1.256598758697509766e+01
0.000000000000000000e+00 -5.292233824729919434e-02 4.985437728464603424e-03 7.447476983070373535e-01 5.368932615965604782e-03 -5.553010702133178711e-01 1.533980830572545528e-03 1.264000177383422852e+00 -1.150485593825578690e-03 1.614514738321304321e-01 1.265150666236877441e+00 9.019806981086730957e-01 -9.840486645698547363e-01 -6.289321184158325195e-02 1.294679760932922363e+00 6.212622299790382385e-02 -1.256598758697509766e+01
0.000000000000000000e+00 -5.292233824729919434e-02 4.985437728464603424e-03 7.435972094535827637e-01 5.752427969127893448e-03 -5.549175739288330078e-01 2.684466307982802391e-03 1.264000177383422852e+00 -3.834952076431363821e-04 1.622184664011001587e-01 1.264383673667907715e+00 9.023641943931579590e-01 -9.836651682853698730e-01 -6.327670812606811523e-02 1.294679760932922363e+00 6.135923042893409729e-02 -1.256598758697509766e+01
0.000000000000000000e+00 -5.253884196281433105e-02 4.985437728464603424e-03 7.447476983070373535e-01 4.985437728464603424e-03 -5.549175739288330078e-01 1.917475950904190540e-03 1.263616681098937988e+00 -1.533980830572545528e-03 1.603009849786758423e-01 1.265150666236877441e+00 9.015972018241882324e-01 -9.836651682853698730e-01 -6.289321184158325195e-02 1.295063257217407227e+00 6.212622299790382385e-02 -1.256598758697509766e+01
0.000000000000000000e+00 -5.215534567832946777e-02 4.218447022140026093e-03 7.435972094535827637e-01 5.752427969127893448e-03 -5.545340776443481445e-01 2.300971187651157379e-03 1.264000177383422852e+00 -7.669904152862727642e-04 1.614514738321304321e-01 1.265534162521362305e+00 9.023641943931579590e-01 -9.844321608543395996e-01 -6.327670812606811523e-02 1.294679760932922363e+00 6.212622299790382385e-02 -1.256598758697509766e+01
0.000000000000000000e+00 -5.292233824729919434e-02 5.752427969127893448e-03 7.435972094535827637e-01 5.752427969127893448e-03 -5.545340776443481445e-01 2.300971187651157379e-03 1.264000177383422852e+00 0.000000000000000000e+00 1.618349701166152954e-01 1.265534162521362305e+00 9.027476906776428223e-01 -9.844321608543395996e-01 -6.327670812606811523e-02 1.295063257217407227e+00 6.212622299790382385e-02 -1.256598758697509766e+01
0.000000000000000000e+00 -5.215534567832946777e-02 4.601942375302314758e-03 7.447476983070373535e-01 5.752427969127893448e-03 -5.545340776443481445e-01 2.684466307982802391e-03 1.264383673667907715e+00 -1.150485593825578690e-03 1.610679775476455688e-01 1.265534162521362305e+00 9.023641943931579590e-01 -9.840486645698547363e-01 -6.404370069503784180e-02 1.294679760932922363e+00 6.212622299790382385e-02 -1.256598758697509766e+01
0.000000000000000000e+00 -5.292233824729919434e-02 5.752427969127893448e-03 7.447476983070373535e-01 4.985437728464603424e-03 -5.549175739288330078e-01 1.917475950904190540e-03 1.263616681098937988e+00 -1.150485593825578690e-03 1.614514738321304321e-01 1.264767169952392578e+00 9.015972018241882324e-01 -9.848156571388244629e-01 -6.289321184158325195e-02 1.294679760932922363e+00 6.212622299790382385e-02 -1.256598758697509766e+01
0.000000000000000000e+00 -5.292233824729919434e-02 5.368932615965604782e-03 7.435972094535827637e-01 5.368932615965604782e-03 -5.545340776443481445e-01 2.300971187651157379e-03 1.264000177383422852e+00 -1.150485593825578690e-03 1.614514738321304321e-01 1.264767169952392578e+00 9.023641943931579590e-01 -9.844321608543395996e-01 -6.212622299790382385e-02 1.294679760932922363e+00 6.289321184158325195e-02 -1.256598758697509766e+01
0.000000000000000000e+00 -5.292233824729919434e-02 4.985437728464603424e-03 7.443642020225524902e-01 5.368932615965604782e-03 -5.549175739288330078e-01 2.300971187651157379e-03 1.264000177383422852e+00 -7.669904152862727642e-04 1.622184664011001587e-01 1.265534162521362305e+00 9.023641943931579590e-01 -9.848156571388244629e-01 -6.289321184158325195e-02 1.294679760932922363e+00 6.212622299790382385e-02 -1.256598758697509766e+01
0.000000000000000000e+00 -5.253884196281433105e-02 4.601942375302314758e-03 7.447476983070373535e-01 5.752427969127893448e-03 -5.549175739288330078e-01 1.917475950904190540e-03 1.263616681098937988e+00 -7.669904152862727642e-04 1.618349701166152954e-01 1.265150666236877441e+00 9.015972018241882324e-01 -9.840486645698547363e-01 -6.366020441055297852e-02 1.295830249786376953e+00 6.174272671341896057e-02 -1.256598758697509766e+01
0.000000000000000000e+00 -5.292233824729919434e-02 4.218447022140026093e-03 7.443642020225524902e-01 5.752427969127893448e-03 -5.549175739288330078e-01 2.300971187651157379e-03 1.264000177383422852e+00 -3.834952076431363821e-04 1.618349701166152954e-01 1.264767169952392578e+00 9.023641943931579590e-01 -9.844321608543395996e-01 -6.289321184158325195e-02 1.295446753501892090e+00 6.174272671341896057e-02 -1.256598758697509766e+01
0.000000000000000000e+00 -5.253884196281433105e-02 4.218447022140026093e-03 7.443642020225524902e-01 5.752427969127893448e-03 -5.545340776443481445e-01 1.533980830572545528e-03 1.264000177383422852e+00 -7.669904152862727642e-04 1.618349701166152954e-01 1.264383673667907715e+00 9.023641943931579590e-01 -9.848156571388244629e-01 -6.366020441055297852e-02 1.295446753501892090e+00 6.212622299790382385e-02 -1.256598758697509766e+01
0.000000000000000000e+00 -5.292233824729919434e-02 4.601942375302314758e-03 7.447476983070373535e-01 6.135923322290182114e-03 -5.549175739288330078e-01 1.917475950904190540e-03 1.263616681098937988e+00 0.000000000000000000e+00 1.614514738321304321e-01 1.265150666236877441e+00 9.031311869621276855e-01 -9.836651682853698730e-01 -6.366020441055297852e-02 1.294679760932922363e+00 6.212622299790382385e-02 -1.256598758697509766e+01
0.000000000000000000e+00 -5.292233824729919434e-02 4.601942375302314758e-03 7.435972094535827637e-01 4.985437728464603424e-03 -5.553010702133178711e-01 2.684466307982802391e-03 1.264383673667907715e+00 -3.834952076431363821e-04 1.618349701166152954e-01 1.265534162521362305e+00 9.023641943931579590e-01 -9.844321608543395996e-01 -6.250971555709838867e-02 1.295063257217407227e+00 6.174272671341896057e-02 -1.256598758697509766e+01
0.000000000000000000e+00 -5.330583080649375916e-02 4.985437728464603424e-03 7.435972094535827637e-01 5.368932615965604782e-03 -5.545340776443481445e-01 1.917475950904190540e-03 1.264000177383422852e+00 -3.834952076431363821e-04 1.614514738321304321e-01 1.264767169952392578e+00 9.023641943931579590e-01 -9.836651682853698730e-01 -6.366020441055297852e-02 1.294296264648437500e+00 6.212622299790382385e-02 -1.256598758697509766e+01
0.000000000000000000e+00 -5.253884196281433105e-02 4.601942375302314758e-03 7.443642020225524902e-01 4.985437728464603424e-03 -5.549175739288330078e-01 2.684466307982802391e-03 1.264000177383422852e+00 -1.150485593825578690e-03 1.622184664011001587e-01 1.264383673667907715e+00 9.023641943931579590e-01 -9.840486645698547363e-01 -6.250971555709838867e-02 1.294679760932922363e+00 6.097573786973953247e-02 -1.256598758697509766e+01
0.000000000000000000e+00 -5.253884196281433105e-02 4.218447022140026093e-03 7.443642020225524902e-01 4.985437728464603424e-03 -5.545340776443481445e-01 2.300971187651157379e-03 1.264383673667907715e+00 -1.150485593825578690e-03 1.610679775476455688e-01 1.265150666236877441e+00 9.023641943931579590e-01 -9.840486645698547363e-01 -6.250971555709838867e-02 1.294679760932922363e+00 6.135923042893409729e-02 -1.256598758697509766e+01
0.000000000000000000e+00 -5.253884196281433105e-02 4.601942375302314758e-03 7.443642020225524902e-01 5.752427969127893448e-03 -5.549175739288330078e-01 1.917475950904190540e-03 1.263616681098937988e+00 -3.834952076431363821e-04 1.614514738321304321e-01 1.264767169952392578e+00 9.019806981086730957e-01 -9.844321608543395996e-01 -6.289321184158325195e-02 1.294679760932922363e+00 6.212622299790382385e-02 -1.256598758697509766e+01
0.000000000000000000e+00 -5.292233824729919434e-02 4.985437728464603424e-03 7.451311945915222168e-01 5.368932615965604782e-03 -5.545340776443481445e-01 1.917475950904190540e-03 1.264000177383422852e+00 -3.834952076431363821e-04 1.614514738321304321e-01 1.263616681098937988e+00 9.019806981086730957e-01 -9.840486645698547363e-01 -6.289321184158325195e-02 1.293912768363952637e+00 6.250971555709838867e-02 -1.256598758697509766e+01
0.000000000000000000e+00 -5.253884196281433105e-02 5.368932615965604782e-03 7.443642020225524902e-01 5.368932615965604782e-03 -5.549175739288330078e-01 1.917475950904190540e-03 1.263616681098937988e+00 -7.669904152862727642e-04 1.614514738321304321e-01 1.264383673667907715e+00 9.023641943931579590e-01 -9.844321608543395996e-01 -6.327670812606811523e-02 1.293529272079467773e+00 6.212622299790382385e-02 -1.256598758697509766e+01
0.000000000000000000e+00 -5.292233824729919434e-02 4.985437728464603424e-03 7.443642020225524902e-01 5.368932615965604782e-03 -5.553010702133178711e-01 1.917475950904190540e-03 1.264383673667907715e+00 -7.669904152862727642e-04 1.618349701166152954e-01 1.264383673667907715e+00 9.023641943931579590e-01 -9.848156571388244629e-01 -6.366020441055297852e-02 1.292762279510498047e+00 6.174272671341896057e-02 -1.256598758697509766e+01
0.000000000000000000e+00 -5.292233824729919434e-02 4.985437728464603424e-03 7.451311945915222168e-01 5.368932615965604782e-03 -5.549175739288330078e-01 1.917475950904190540e-03 1.264383673667907715e+00 -7.669904152862727642e-04 1.618349701166152954e-01 1.263616681098937988e+00 9.015972018241882324e-01 -9.844321608543395996e-01 -6.289321184158325195e-02 1.293529272079467773e+00 6.212622299790382385e-02 -1.256598758697509766e+01
0.000000000000000000e+00 -5.253884196281433105e-02 4.218447022140026093e-03 7.432137131690979004e-01 4.985437728464603424e-03 -5.541505813598632812e-01 2.300971187651157379e-03 1.264000177383422852e+00 -3.834952076431363821e-04 1.618349701166152954e-01 1.263233184814453125e+00 9.023641943931579590e-01 -9.844321608543395996e-01 -6.289321184158325195e-02 1.293145775794982910e+00 6.174272671341896057e-02 -1.256598758697509766e+01
0.000000000000000000e+00 -5.253884196281433105e-02 4.601942375302314758e-03 7.451311945915222168e-01 4.985437728464603424e-03 -5.545340776443481445e-01 2.300971187651157379e-03 1.264383673667907715e+00 -7.669904152862727642e-04 1.614514738321304321e-01 1.264383673667907715e+00 9.031311869621276855e-01 -9.851991534233093262e-01 -6.289321184158325195e-02 1.293912768363952637e+00 6.174272671341896057e-02 -1.256598758697509766e+01
0.000000000000000000e+00 -5.292233824729919434e-02 3.834951901808381081e-03 7.451311945915222168e-01 5.368932615965604782e-03 -5.553010702133178711e-01 1.917475950904190540e-03 1.264000177383422852e+00 -3.834952076431363821e-04 1.614514738321304321e-01 1.264383673667907715e+00 9.023641943931579590e-01 -9.840486645698547363e-01 -6.250971555709838867e-02 1.293145775794982910e+00 6.174272671341896057e-02 -1.256598758697509766e+01
0.000000000000000000e+00 -5.253884196281433105e-02 4.218447022140026093e-03 7.455146908760070801e-01 5.752427969127893448e-03 -5.553010702133178711e-01 1.917475950904190540e-03 1.264000177383422852e+00 -7.669904152862727642e-04 1.614514738321304321e-01 1.264767169952392578e+00 9.019806981086730957e-01 -9.844321608543395996e-01 -6.289321184158325195e-02 1.294296264648437500e+00 6.174272671341896057e-02 -1.256598758697509766e+01
0.000000000000000000e+00 -5.215534567832946777e-02 4.218447022140026093e-03 7.435972094535827637e-01 4.985437728464603424e-03 -5.553010702133178711e-01 2.684466307982802391e-03 1.264383673667907715e+00 -3.834952076431363821e-04 1.622184664011001587e-01 1.264383673667907715e+00 9.019806981086730957e-01 -9.844321608543395996e-01 -6.327670812606811523e-02 1.294296264648437500e+00 6.174272671341896057e-02 -1.256598758697509766e+01
0.000000000000000000e+00 -5.253884196281433105e-02 4.601942375302314758e-03 7.443642020225524902e-01 4.601942375302314758e-03 -5.545340776443481445e-01 2.300971187651157379e-03 1.264000177383422852e+00 -3.834952076431363821e-04 1.610679775476455688e-01 1.264383673667907715e+00 9.019806981086730957e-01 -9.844321608543395996e-01 -6.366020441055297852e-02 1.293912768363952637e+00 6.174272671341896057e-02 -1.256598758697509766e+01
0.000000000000000000e+00 -5.292233824729919434e-02 4.985437728464603424e-03 7.447476983070373535e-01 5.368932615965604782e-03 -5.553010702133178711e-01 2.300971187651157379e-03 1.263616681098937988e+00 -1.150485593825578690e-03 1.614514738321304321e-01 1.264767169952392578e+00 9.023641943931579590e-01 -9.851991534233093262e-01 -6.250971555709838867e-02 1.293912768363952637e+00 6.174272671341896057e-02 -1.256598758697509766e+01
0.000000000000000000e+00 -5.215534567832946777e-02 5.368932615965604782e-03 7.443642020225524902e-01 4.985437728464603424e-03 -5.545340776443481445e-01 1.533980830572545528e-03 1.264000177383422852e+00 7.669904152862727642e-04 1.610679775476455688e-01 1.264767169952392578e+00 9.019806981086730957e-01 -9.844321608543395996e-01 -6.327670812606811523e-02 1.293912768363952637e+00 6.174272671341896057e-02 -1.256598758697509766e+01
0.000000000000000000e+00 -5.330583080649375916e-02 4.601942375302314758e-03 7.451311945915222168e-01 5.752427969127893448e-03 -5.549175739288330078e-01 2.684466307982802391e-03 1.264383673667907715e+00 -3.834952076431363821e-04 1.614514738321304321e-01 1.265150666236877441e+00 9.027476906776428223e-01 -9.844321608543395996e-01 -6.327670812606811523e-02 1.294296264648437500e+00 6.212622299790382385e-02 -1.256598758697509766e+01
0.000000000000000000e+00 -5.292233824729919434e-02 4.985437728464603424e-03 7.435972094535827637e-01 4.985437728464603424e-03 -5.553010702133178711e-01 1.917475950904190540e-03 1.264383673667907715e+00 -3.834952076431363821e-04 1.618349701166152954e-01 1.265150666236877441e+00 9.023641943931579590e-01 -9.840486645698547363e-01 -6.366020441055297852e-02 1.294679760932922363e+00 6.097573786973953247e-02 -1.256598758697509766e+01
0.000000000000000000e+00 -5.253884196281433105e-02 5.368932615965604782e-03 7.443642020225524902e-01 5.368932615965604782e-03 -5.553010702133178711e-01 1.917475950904190540e-03 1.264767169952392578e+00 -3.834952076431363821e-04 1.610679775476455688e-01 1.264767169952392578e+00 9.015972018241882324e-01 -9.840486645698547363e-01 -6.289321184158325195e-02 1.293912768363952637e+00 6.212622299790382385e-02 -1.256598758697509766e+01
0.000000000000000000e+00 -5.292233824729919434e-02 4.985437728464603424e-03 7.435972094535827637e-01 5.752427969127893448e-03 -5.553010702133178711e-01 2.300971187651157379e-03 1.264383673667907715e+00 -3.834952076431363821e-04 1.610679775476455688e-01 1.264767169952392578e+00 9.027476906776428223e-01 -9.848156571388244629e-01 -6.366020441055297852e-02 1.294296264648437500e+00 6.174272671341896057e-02 -1.256598758697509766e+01
0.000000000000000000e+00 -5.292233824729919434e-02 4.985437728464603424e-03 7.443642020225524902e-01 5.368932615965604782e-03 -5.549175739288330078e-01 1.917475950904190540e-03 1.264000177383422852e+00 -1.150485593825578690e-03 1.622184664011001587e-01 1.265150666236877441e+00 9.019806981086730957e-01 -9.832816720008850098e-01 -6.250971555709838867e-02 1.294296264648437500e+00 6.135923042893409729e-02 -1.256598758697509766e+01
0.000000000000000000e+00 -5.215534567832946777e-02 4.218447022140026093e-03 7.447476983070373535e-01 5.368932615965604782e-03 -5.553010702133178711e-01 2.300971187651157379e-03 1.264383673667907715e+00 -3.834952076431363821e-04 1.618349701166152954e-01 1.265150666236877441e+00 9.023641943931579590e-01 -9.836651682853698730e-01 -6.289321184158325195e-02 1.295446753501892090e+00 6.250971555709838867e-02 -1.256598758697509766e+01
0.000000000000000000e+00 -5.253884196281433105e-02 4.601942375302314758e-03 7.443642020225524902e-01 4.985437728464603424e-03 -5.549175739288330078e-01 1.917475950904190540e-03 1.264383673667907715e+00 -1.150485593825578690e-03 1.618349701166152954e-01 1.265150666236877441e+00 9.023641943931579590e-01 -9.832816720008850098e-01 -6.289321184158325195e-02 1.294296264648437500e+00 6.212622299790382385e-02 -1.256598758697509766e+01
0.000000000000000000e+00 -5.330583080649375916e-02 4.218447022140026093e-03 7.447476983070373535e-01 5.368932615965604782e-03 -5.545340776443481445e-01 2.300971187651157379e-03 1.263616681098937988e+00 0.000000000000000000e+00 1.618349701166152954e-01 1.265534162521362305e+00 9.019806981086730957e-01 -9.828981757164001465e-01 -6.327670812606811523e-02 1.294296264648437500e+00 6.250971555709838867e-02 -1.256598758697509766e+01
0.000000000000000000e+00 -5.330583080649375916e-02 4.601942375302314758e-03 7.443642020225524902e-01 5.368932615965604782e-03 -5.553010702133178711e-01 1.917475950904190540e-03 1.264000177383422852e+00 -1.150485593825578690e-03 1.606844812631607056e-01 1.265150666236877441e+00 9.015972018241882324e-01 -9.836651682853698730e-01 -6.366020441055297852e-02 1.294296264648437500e+00 6.250971555709838867e-02 -1.256598758697509766e+01
0.000000000000000000e+00 -5.253884196281433105e-02 4.218447022140026093e-03 7.443642020225524902e-01 5.368932615965604782e-03 -5.553010702133178711e-01 1.917475950904190540e-03 1.263616681098937988e+00 -7.669904152862727642e-04 1.618349701166152954e-01 1.264383673667907715e+00 9.023641943931579590e-01 -9.828981757164001465e-01 -6.327670812606811523e-02 1.294679760932922363e+00 6.174272671341896057e-02 -1.256598758697509766e+01
0.000000000000000000e+00 -5.253884196281433105e-02 4.601942375302314758e-03 7.432137131690979004e-01 5.368932615965604782e-03 -5.549175739288330078e-01 1.917475950904190540e-03 1.263616681098937988e+00 -7.669904152862727642e-04 1.610679775476455688e-01 1.265917658805847168e+00 9.015972018241882324e-01 -9.832816720008850098e-01 -6.366020441055297852e-02 1.295063257217407227e+00 6.174272671341896057e-02 -1.256598758697509766e+01
0.000000000000000000e+00 -5.253884196281433105e-02 4.218447022140026093e-03 7.428302168846130371e-01 5.368932615965604782e-03 -5.549175739288330078e-01 1.917475950904190540e-03 1.264000177383422852e+00 -1.533980830572545528e-03 1.622184664011001587e-01 1.265150666236877441e+00 9.023641943931579590e-01 -9.828981757164001465e-01 -6.250971555709838867e-02 1.294296264648437500e+00 6.135923042893409729e-02 -1.256598758697509766e+01
0.000000000000000000e+00 -5.253884196281433105e-02 4.601942375302314758e-03 7.455146908760070801e-01 5.368932615965604782e-03 -5.549175739288330078e-01 2.300971187651157379e-03 1.264383673667907715e+00 -3.834952076431363821e-04 1.618349701166152954e-01 1.264767169952392578e+00 9.015972018241882324e-01 -9.825146794319152832e-01 -6.327670812606811523e-02 1.294296264648437500e+00 6.212622299790382385e-02 -1.256598758697509766e+01
0.000000000000000000e+00 -5.253884196281433105e-02 4.601942375302314758e-03 7.447476983070373535e-01 4.601942375302314758e-03 -5.549175739288330078e-01 2.684466307982802391e-03 1.264000177383422852e+00 -3.834952076431363821e-04 1.610679775476455688e-01 1.265150666236877441e+00 9.023641943931579590e-01 -9.821311831474304199e-01 -6.327670812606811523e-02 1.294296264648437500e+00 6.250971555709838867e-02 -1.256598758697509766e+01
0.000000000000000000e+00 -5.292233824729919434e-02 4.601942375302314758e-03 7.447476983070373535e-01 4.601942375302314758e-03 -5.556845664978027344e-01 1.917475950904190540e-03 1.264000177383422852e+00 0.000000000000000000e+00 1.618349701166152954e-01 1.264767169952392578e+00 9.023641943931579590e-01 -9.821311831474304199e-01 -6.366020441055297852e-02 1.294296264648437500e+00 6.212622299790382385e-02 -1.256598758697509766e+01
0.000000000000000000e+00 -5.177185311913490295e-02 4.985437728464603424e-03 7.443642020225524902e-01 5.368932615965604782e-03 -5.549175739288330078e-01 3.067961661145091057e-03 1.264383673667907715e+00 -7.669904152862727642e-04 1.618349701166152954e-01 1.264383673667907715e+00 9.019806981086730957e-01 -9.821311831474304199e-01 -6.327670812606811523e-02 1.294679760932922363e+00 6.174272671341896057e-02 -1.256598758697509766e+01
0.000000000000000000e+00 -5.292233824729919434e-02 4.985437728464603424e-03 7.443642020225524902e-01 4.985437728464603424e-03 -5.549175739288330078e-01 2.300971187651157379e-03 1.264000177383422852e+00 -7.669904152862727642e-04 1.618349701166152954e-01 1.265150666236877441e+00 9.019806981086730957e-01 -9.821311831474304199e-01 -6.327670812606811523e-02 1.294296264648437500e+00 6.212622299790382385e-02 -1.256598758697509766e+01
0.000000000000000000e+00 -5.215534567832946777e-02 4.985437728464603424e-03 7.447476983070373535e-01 5.368932615965604782e-03 -5.553010702133178711e-01 1.917475950904190540e-03 1.264000177383422852e+00 7.669904152862727642e-04 1.614514738321304321e-01 1.264767169952392578e+00 9.019806981086730957e-01 -9.817476868629455566e-01 -6.250971555709838867e-02 1.294679760932922363e+00 6.250971555709838867e-02 -1.256598758697509766e+01
0.000000000000000000e+00 -5.253884196281433105e-02 4.601942375302314758e-03 7.447476983070373535e-01 5.368932615965604782e-03 -5.553010702133178711e-01 1.917475950904190540e-03 1.264383673667907715e+00 -1.150485593825578690e-03 1.622184664011001587e-01 1.264767169952392578e+00 9.015972018241882324e-01 -9.817476868629455566e-01 -6.327670812606811523e-02 1.294679760932922363e+00 6.174272671341896057e-02 -1.256598758697509766e+01
0.000000000000000000e+00 -5.253884196281433105e-02 4.601942375302314758e-03 7.451311945915222168e-01 4.985437728464603424e-03 -5.541505813598632812e-01 2.300971187651157379e-03 1.264383673667907715e+00 -3.834952076431363821e-04 1.618349701166152954e-01 1.265534162521362305e+00 9.012137055397033691e-01 -9.813641905784606934e-01 -6.327670812606811523e-02 1.295446753501892090e+00 6.174272671341896057e-02 -1.256598758697509766e+01
0.000000000000000000e+00 -5.253884196281433105e-02 4.601942375302314758e-03 7.451311945915222168e-01 5.368932615965604782e-03 -5.553010702133178711e-01 2.300971187651157379e-03 1.264383673667907715e+00 -7.669904152862727642e-04 1.618349701166152954e-01 1.264383673667907715e+00 9.015972018241882324e-01 -9.821311831474304199e-01 -6.327670812606811523e-02 1.295446753501892090e+00 6.250971555709838867e-02 -1.256598758697509766e+01
0.000000000000000000e+00 -5.215534567832946777e-02 5.368932615965604782e-03 7.451311945915222168e-01 5.368932615965604782e-03 -5.553010702133178711e-01 2.684466307982802391e-03 1.264383673667907715e+00 -1.150485593825578690e-03 1.622184664011001587e-01 1.264383673667907715e+00 9.019806981086730957e-01 -9.813641905784606934e-01 -6.327670812606811523e-02 1.296213746070861816e+00 6.212622299790382385e-02 -1.256598758697509766e+01
0.000000000000000000e+00 -5.292233824729919434e-02 4.985437728464603424e-03 7.447476983070373535e-01 4.985437728464603424e-03 -5.549175739288330078e-01 1.917475950904190540e-03 1.264383673667907715e+00 -3.834952076431363821e-04 1.610679775476455688e-01 1.264383673667907715e+00 9.023641943931579590e-01 -9.825146794319152832e-01 -6.289321184158325195e-02 1.296213746070861816e+00 6.174272671341896057e-02 -1.256598758697509766e+01
0.000000000000000000e+00 -5.330583080649375916e-02 5.368932615965604782e-03 7.447476983070373535e-01 5.368932615965604782e-03 -5.549175739288330078e-01 2.300971187651157379e-03 1.264000177383422852e+00 -7.669904152862727642e-04 1.618349701166152954e-01 1.264000177383422852e+00 9.019806981086730957e-01 -9.817476868629455566e-01 -6.366020441055297852e-02 1.297364234924316406e+00 6.250971555709838867e-02 -1.256598758697509766e+01
0.000000000000000000e+00 -5.253884196281433105e-02 4.218447022140026093e-03 7.443642020225524902e-01 5.368932615965604782e-03 -5.549175739288330078e-01 2.300971187651157379e-03 1.264000177383422852e+00 -7.669904152862727642e-04 1.614514738321304321e-01 1.264767169952392578e+00 9.019806981086730957e-01 -9.821311831474304199e-01 -6.289321184158325195e-02 1.297364234924316406e+00 6.212622299790382385e-02 -1.256598758697509766e+01
0.000000000000000000e+00 -5.253884196281433105e-02 4.985437728464603424e-03 7.451311945915222168e-01 5.752427969127893448e-03 -5.549175739288330078e-01 2.300971187651157379e-03 1.264383673667907715e+00 -3.834952076431363821e-04 1.614514738321304321e-01 1.264767169952392578e+00 9.019806981086730957e-01 -9.821311831474304199e-01 -6.250971555709838867e-02 1.298898220062255859e+00 6.212622299790382385e-02 -1.256598758697509766e+01
0.000000000000000000e+00 -5.292233824729919434e-02 4.601942375302314758e-03 7.451311945915222168e-01 4.985437728464603424e-03 -5.549175739288330078e-01 2.300971187651157379e-03 1.264383673667907715e+00 -3.834952076431363821e-04 1.614514738321304321e-01 1.264767169952392578e+00 9.023641943931579590e-01 -9.821311831474304199e-01 -6.366020441055297852e-02 1.299665212631225586e+00 6.174272671341896057e-02 -1.256598758697509766e+01
0.000000000000000000e+00 -5.292233824729919434e-02 4.601942375302314758e-03 7.443642020225524902e-01 5.752427969127893448e-03 -5.549175739288330078e-01 1.533980830572545528e-03 1.264767169952392578e+00 -3.834952076431363821e-04 1.614514738321304321e-01 1.264383673667907715e+00 9.019806981086730957e-01 -9.821311831474304199e-01 -6.366020441055297852e-02 1.300815701484680176e+00 6.174272671341896057e-02 -1.256598758697509766e+01
0.000000000000000000e+00 -5.253884196281433105e-02 5.368932615965604782e-03 7.435972094535827637e-01 4.985437728464603424e-03 -5.549175739288330078e-01 1.917475950904190540e-03 1.264000177383422852e+00 -3.834952076431363821e-04 1.603009849786758423e-01 1.264767169952392578e+00 9.015972018241882324e-01 -9.817476868629455566e-01 -6.289321184158325195e-02 1.300815701484680176e+00 6.212622299790382385e-02 -1.256598758697509766e+01
0.000000000000000000e+00 -5.292233824729919434e-02 4.601942375302314758e-03 7.443642020225524902e-01 5.368932615965604782e-03 -5.549175739288330078e-01 2.300971187651157379e-03 1.264000177383422852e+00 -1.150485593825578690e-03 1.614514738321304321e-01 1.264383673667907715e+00 9.015972018241882324e-01 -9.817476868629455566e-01 -6.327670812606811523e-02 1.301582694053649902e+00 6.135923042893409729e-02 -1.256598758697509766e+01
0.000000000000000000e+00 -5.292233824729919434e-02 4.601942375302314758e-03 7.447476983070373535e-01 5.368932615965604782e-03 -5.545340776443481445e-01 2.300971187651157379e-03 1.264000177383422852e+00 -7.669904152862727642e-04 1.610679775476455688e-01 1.264000177383422852e+00 9.019806981086730957e-01 -9.825146794319152832e-01 -6.366020441055297852e-02 1.301966190338134766e+00 6.174272671341896057e-02 -1.256598758697509766e+01
0.000000000000000000e+00 -5.292233824729919434e-02 5.368932615965604782e-03 7.435972094535827637e-01 4.985437728464603424e-03 -5.549175739288330078e-01 1.917475950904190540e-03 1.264767169952392578e+00 -1.150485593825578690e-03 1.614514738321304321e-01 1.264383673667907715e+00 9.019806981086730957e-01 -9.825146794319152832e-01 -6.366020441055297852e-02 1.302349686622619629e+00 6.250971555709838867e-02 -1.256598758697509766e+01
0.000000000000000000e+00 -5.253884196281433105e-02 4.985437728464603424e-03 7.435972094535827637e-01 5.368932615965604782e-03 -5.545340776443481445e-01 1.917475950904190540e-03 1.264000177383422852e+00 -7.669904152862727642e-04 1.618349701166152954e-01 1.263616681098937988e+00 9.015972018241882324e-01 -9.821311831474304199e-01 -6.366020441055297852e-02 1.302733182907104492e+00 6.289321184158325195e-02 -1.256598758697509766e+01
0.000000000000000000e+00 -5.292233824729919434e-02 4.985437728464603424e-03 7.447476983070373535e-01 5.368932615965604782e-03 -5.545340776443481445e-01 2.300971187651157379e-03 1.264000177383422852e+00 0.000000000000000000e+00 1.622184664011001587e-01 1.264000177383422852e+00 9.008302092552185059e-01 -9.825146794319152832e-01 -6.289321184158325195e-02 1.303500175476074219e+00 6.174272671341896057e-02 -1.256598758697509766e+01
0.000000000000000000e+00 -5.253884196281433105e-02 5.368932615965604782e-03 7.443642020225524902e-01 5.752427969127893448e-03 -5.545340776443481445e-01 2.684466307982802391e-03 1.264000177383422852e+00 -7.669904152862727642e-04 1.610679775476455688e-01 1.262849688529968262e+00 9.015972018241882324e-01 -9.832816720008850098e-01 -6.327670812606811523e-02 1.303500175476074219e+00 6.135923042893409729e-02 -1.256598758697509766e+01
0.000000000000000000e+00 -5.215534567832946777e-02 4.601942375302314758e-03 7.447476983070373535e-01 5.368932615965604782e-03 -5.549175739288330078e-01 2.684466307982802391e-03 1.264383673667907715e+00 -1.150485593825578690e-03 1.622184664011001587e-01 1.262466192245483398e+00 9.019806981086730957e-01 -9.836651682853698730e-01 -6.366020441055297852e-02 1.304267168045043945e+00 6.212622299790382385e-02 -1.256598758697509766e+01
0.000000000000000000e+00 -5.253884196281433105e-02 4.985437728464603424e-03 7.443642020225524902e-01 4.985437728464603424e-03 -5.549175739288330078e-01 1.917475950904190540e-03 1.264383673667907715e+00 -7.669904152862727642e-04 1.614514738321304321e-01 1.261699199676513672e+00 9.012137055397033691e-01 -9.836651682853698730e-01 -6.327670812606811523e-02 1.305801153182983398e+00 6.212622299790382385e-02 -1.256598758697509766e+01
0.000000000000000000e+00 -5.292233824729919434e-02 4.985437728464603424e-03 7.435972094535827637e-01 5.368932615965604782e-03 -5.545340776443481445e-01 2.300971187651157379e-03 1.264000177383422852e+00 -3.834952076431363821e-04 1.610679775476455688e-01 1.259781718254089355e+00 9.008302092552185059e-01 -9.836651682853698730e-01 -6.404370069503784180e-02 1.306568145751953125e+00 6.212622299790382385e-02 -1.256598758697509766e+01
0.000000000000000000e+00 -5.292233824729919434e-02 4.985437728464603424e-03 7.443642020225524902e-01 4.985437728464603424e-03 -5.545340776443481445e-01 1.917475950904190540e-03 1.264000177383422852e+00 -3.834952076431363821e-04 1.618349701166152954e-01 1.259398221969604492e+00 9.008302092552185059e-01 -9.840486645698547363e-01 -6.289321184158325195e-02 1.307718634605407715e+00 6.174272671341896057e-02 -1.256598758697509766e+01
0.000000000000000000e+00 -5.253884196281433105e-02 4.601942375302314758e-03 7.447476983070373535e-01 5.368932615965604782e-03 -5.549175739288330078e-01 1.917475950904190540e-03 1.263616681098937988e+00 -3.834952076431363821e-04 1.614514738321304321e-01 1.257864236831665039e+00 9.000632166862487793e-01 -9.844321608543395996e-01 -6.404370069503784180e-02 1.307718634605407715e+00 6.212622299790382385e-02 -1.256598758697509766e+01
0.000000000000000000e+00 -5.292233824729919434e-02 4.218447022140026093e-03 7.435972094535827637e-01 5.368932615965604782e-03 -5.549175739288330078e-01 1.917475950904190540e-03 1.264000177383422852e+00 -7.669904152862727642e-04 1.614514738321304321e-01 1.256330251693725586e+00 9.004467129707336426e-01 -9.851991534233093262e-01 -6.366020441055297852e-02 1.309636116027832031e+00 6.135923042893409729e-02 -1.256598758697509766e+01
0.000000000000000000e+00 -5.253884196281433105e-02 4.985437728464603424e-03 7.432137131690979004e-01 5.368932615965604782e-03 -5.549175739288330078e-01 2.300971187651157379e-03 1.263616681098937988e+00 -7.669904152862727642e-04 1.610679775476455688e-01 1.255179762840270996e+00 9.004467129707336426e-01 -9.851991534233093262e-01 -6.442718952894210815e-02 1.309636116027832031e+00 6.135923042893409729e-02 -1.256598758697509766e+01
0.000000000000000000e+00 -5.177185311913490295e-02 4.218447022140026093e-03 7.435972094535827637e-01 5.368932615965604782e-03 -5.553010702133178711e-01 2.300971187651157379e-03 1.264000177383422852e+00 -3.834952076431363821e-04 1.606844812631607056e-01 1.254029273986816406e+00 9.008302092552185059e-01 -9.848156571388244629e-01 -6.327670812606811523e-02 1.310786604881286621e+00 6.174272671341896057e-02 -1.256598758697509766e+01
0.000000000000000000e+00 -5.215534567832946777e-02 5.368932615965604782e-03 7.447476983070373535e-01 5.368932615965604782e-03 -5.549175739288330078e-01 1.917475950904190540e-03 1.263233184814453125e+00 -7.669904152862727642e-04 1.599175035953521729e-01 1.252878785133361816e+00 8.996797204017639160e-01 -9.855826497077941895e-01 -6.404370069503784180e-02 1.311170101165771484e+00 6.250971555709838867e-02 -1.256598758697509766e+01
0.000000000000000000e+00 -5.330583080649375916e-02 4.601942375302314758e-03 7.447476983070373535e-01 5.368932615965604782e-03 -5.556845664978027344e-01 3.067961661145091057e-03 1.263233184814453125e+00 -7.669904152862727642e-04 1.610679775476455688e-01 1.250577807426452637e+00 8.996797204017639160e-01 -9.863496422767639160e-01 -6.404370069503784180e-02 1.311553597450256348e+00 6.174272671341896057e-02 -1.256598758697509766e+01
0.000000000000000000e+00 -5.292233824729919434e-02 4.218447022140026093e-03 7.443642020225524902e-01 5.752427969127893448e-03 -5.549175739288330078e-01 2.300971187651157379e-03 1.263616681098937988e+00 -7.669904152862727642e-04 1.603009849786758423e-01 1.249810814857482910e+00 8.992962241172790527e-01 -9.863496422767639160e-01 -6.481068581342697144e-02 1.311937093734741211e+00 6.135923042893409729e-02 -1.256598758697509766e+01
0.000000000000000000e+00 -5.253884196281433105e-02 5.368932615965604782e-03 7.447476983070373535e-01 5.368932615965604782e-03 -5.545340776443481445e-01 1.533980830572545528e-03 1.264000177383422852e+00 -7.669904152862727642e-04 1.603009849786758423e-01 1.248660326004028320e+00 8.981457352638244629e-01 -9.867331385612487793e-01 -6.404370069503784180e-02 1.311937093734741211e+00 6.135923042893409729e-02 -1.256598758697509766e+01
0.000000000000000000e+00 -5.292233824729919434e-02 4.985437728464603424e-03 7.443642020225524902e-01 4.985437728464603424e-03 -5.553010702133178711e-01 2.684466307982802391e-03 1.264383673667907715e+00 -1.150485593825578690e-03 1.603009849786758423e-01 1.245975852012634277e+00 8.992962241172790527e-01 -9.871166348457336426e-01 -6.481068581342697144e-02 1.312704086303710938e+00 6.250971555709838867e-02 -1.256598758697509766e+01
0.000000000000000000e+00 -5.215534567832946777e-02 4.601942375302314758e-03 7.447476983070373535e-01 5.752427969127893448e-03 -5.549175739288330078e-01 2.684466307982802391e-03 1.264000177383422852e+00 -7.669904152862727642e-04 1.591505110263824463e-01 1.244441866874694824e+00 8.981457352638244629e-01 -9.871166348457336426e-01 -6.519418209791183472e-02 1.312704086303710938e+00 6.174272671341896057e-02 -1.256598758697509766e+01
0.000000000000000000e+00 -5.253884196281433105e-02 4.985437728464603424e-03 7.443642020225524902e-01 5.368932615965604782e-03 -5.553010702133178711e-01 1.533980830572545528e-03 1.264383673667907715e+00 -7.669904152862727642e-04 1.591505110263824463e-01 1.240990400314331055e+00 8.969952464103698730e-01 -9.878836274147033691e-01 -6.596117466688156128e-02 1.312704086303710938e+00 6.174272671341896057e-02 -1.256598758697509766e+01
0.000000000000000000e+00 -5.253884196281433105e-02 4.985437728464603424e-03 7.443642020225524902e-01 4.985437728464603424e-03 -5.549175739288330078e-01 2.300971187651157379e-03 1.264000177383422852e+00 -3.834952076431363821e-04 1.591505110263824463e-01 1.237922549247741699e+00 8.962282538414001465e-01 -9.878836274147033691e-01 -6.634467095136642456e-02 1.313471078872680664e+00 6.174272671341896057e-02 -1.256598758697509766e+01
0.000000000000000000e+00 -5.292233824729919434e-02 4.985437728464603424e-03 7.443642020225524902e-01 4.601942375302314758e-03 -5.549175739288330078e-01 1.917475950904190540e-03 1.264000177383422852e+00 -7.669904152862727642e-04 1.591505110263824463e-01 1.235238075256347656e+00 8.954612612724304199e-01 -9.878836274147033691e-01 -6.596117466688156128e-02 1.315005064010620117e+00 6.097573786973953247e-02 -1.256598758697509766e+01
0.000000000000000000e+00 -5.253884196281433105e-02 4.985437728464603424e-03 7.443642020225524902e-01 5.368932615965604782e-03 -5.549175739288330078e-01 1.917475950904190540e-03 1.264000177383422852e+00 -3.834952076431363821e-04 1.587670147418975830e-01 1.232170104980468750e+00 8.950777649879455566e-01 -9.890341162681579590e-01 -6.749515235424041748e-02 1.315388560295104980e+00 6.059224158525466919e-02 -1.256598758697509766e+01
0.000000000000000000e+00 -5.253884196281433105e-02 4.985437728464603424e-03 7.447476983070373535e-01 4.985437728464603424e-03 -5.549175739288330078e-01 1.917475950904190540e-03 1.264000177383422852e+00 -7.669904152862727642e-04 1.583835184574127197e-01 1.229485630989074707e+00 8.943107724189758301e-01 -9.890341162681579590e-01 -6.634467095136642456e-02 1.316155552864074707e+00 5.790777504444122314e-02 -1.256598758697509766e+01
0.000000000000000000e+00 -5.292233824729919434e-02 4.218447022140026093e-03 7.451311945915222168e-01 5.368932615965604782e-03 -5.549175739288330078e-01 1.533980830572545528e-03 1.264383673667907715e+00 -7.669904152862727642e-04 1.583835184574127197e-01 1.227184653282165527e+00 8.923933506011962891e-01 -9.890341162681579590e-01 -6.596117466688156128e-02 1.316155552864074707e+00 5.522330850362777710e-02 -1.256598758697509766e+01
0.000000000000000000e+00 -5.292233824729919434e-02 4.218447022140026093e-03 7.443642020225524902e-01 5.752427969127893448e-03 -5.545340776443481445e-01 1.917475950904190540e-03 1.264383673667907715e+00 -7.669904152862727642e-04 1.583835184574127197e-01 1.224883675575256348e+00 8.916263580322265625e-01 -9.890341162681579590e-01 -6.672816723585128784e-02 1.317689538002014160e+00 5.253884196281433105e-02 -1.256598758697509766e+01
0.000000000000000000e+00 -5.292233824729919434e-02 4.218447022140026093e-03 7.443642020225524902e-01 5.368932615965604782e-03 -5.549175739288330078e-01 1.533980830572545528e-03 1.264000177383422852e+00 -7.669904152862727642e-04 1.580000221729278564e-01 1.219898223876953125e+00 8.904758691787719727e-01 -9.898011088371276855e-01 -6.711165606975555420e-02 1.320374011993408203e+00 4.947087913751602173e-02 -1.256598758697509766e+01
0.000000000000000000e+00 -5.215534567832946777e-02 4.601942375302314758e-03 7.443642020225524902e-01 4.985437728464603424e-03 -5.545340776443481445e-01 2.300971187651157379e-03 1.263233184814453125e+00 -7.669904152862727642e-04 1.580000221729278564e-01 1.216830253601074219e+00 8.889418840408325195e-01 -9.898011088371276855e-01 -6.711165606975555420e-02 1.321524500846862793e+00 4.947087913751602173e-02 -1.256598758697509766e+01
0.000000000000000000e+00 -5.253884196281433105e-02 5.368932615965604782e-03 7.432137131690979004e-01 4.985437728464603424e-03 -5.549175739288330078e-01 2.300971187651157379e-03 1.264383673667907715e+00 -7.669904152862727642e-04 1.583835184574127197e-01 1.213762283325195312e+00 8.874078989028930664e-01 -9.901846051216125488e-01 -6.711165606975555420e-02 1.324592351913452148e+00 4.947087913751602173e-02 -1.256598758697509766e+01
0.000000000000000000e+00 -5.253884196281433105e-02 4.985437728464603424e-03 7.447476983070373535e-01 5.368932615965604782e-03 -5.549175739288330078e-01 2.300971187651157379e-03 1.264383673667907715e+00 -3.834952076431363821e-04 1.587670147418975830e-01 1.209543824195861816e+00 8.862574100494384766e-01 -9.901846051216125488e-01 -6.749515235424041748e-02 1.326126337051391602e+00 4.908738657832145691e-02 -1.256598758697509766e+01
0.000000000000000000e+00 -5.292233824729919434e-02 3.834951901808381081e-03 7.443642020225524902e-01 4.985437728464603424e-03 -5.549175739288330078e-01 2.684466307982802391e-03 1.263616681098937988e+00 -7.669904152862727642e-04 1.591505110263824463e-01 1.205325365066528320e+00 8.847234249114990234e-01 -9.901846051216125488e-01 -6.749515235424041748e-02 1.329194307327270508e+00 4.832039400935173035e-02 -1.256598758697509766e+01
0.000000000000000000e+00 -5.253884196281433105e-02 4.601942375302314758e-03 7.443642020225524902e-01 5.368932615965604782e-03 -5.549175739288330078e-01 1.917475950904190540e-03 1.264000177383422852e+00 -7.669904152862727642e-04 1.583835184574127197e-01 1.202257394790649414e+00 8.835729360580444336e-01 -9.901846051216125488e-01 -6.787864863872528076e-02 1.331495285034179688e+00 4.870389029383659363e-02 -1.256598758697509766e+01
0.000000000000000000e+00 -5.253884196281433105e-02 4.601942375302314758e-03 7.451311945915222168e-01 5.368932615965604782e-03 -5.549175739288330078e-01 2.300971187651157379e-03 1.264000177383422852e+00 -3.834952076431363821e-04 1.587670147418975830e-01 1.197655558586120605e+00 8.816554546356201172e-01 -9.905681014060974121e-01 -6.864564120769500732e-02 1.334563255310058594e+00 4.870389029383659363e-02 -1.256598758697509766e+01
0.000000000000000000e+00 -5.292233824729919434e-02 4.601942375302314758e-03 7.455146908760070801e-01 4.985437728464603424e-03 -5.553010702133178711e-01 2.300971187651157379e-03 1.264383673667907715e+00 -7.669904152862727642e-04 1.583835184574127197e-01 1.193437099456787109e+00 8.789709806442260742e-01 -9.901846051216125488e-01 -6.902913749217987061e-02 1.338781714439392090e+00 4.793690145015716553e-02 -1.256598758697509766e+01
0.000000000000000000e+00 -5.253884196281433105e-02 4.601942375302314758e-03 7.447476983070373535e-01 5.368932615965604782e-03 -5.553010702133178711e-01 2.300971187651157379e-03 1.264767169952392578e+00 -7.669904152862727642e-04 1.587670147418975830e-01 1.188068151473999023e+00 8.778204917907714844e-01 -9.905681014060974121e-01 -7.017961889505386353e-02 1.342616677284240723e+00 4.755340516567230225e-02 -1.256598758697509766e+01
0.000000000000000000e+00 -5.215534567832946777e-02 4.218447022140026093e-03 7.447476983070373535e-01 5.368932615965604782e-03 -5.553010702133178711e-01 1.917475950904190540e-03 1.264767169952392578e+00 -3.834952076431363821e-04 1.587670147418975830e-01 1.183466196060180664e+00 8.762865066528320312e-01 -9.905681014060974121e-01 -6.979612261056900024e-02 1.346451640129089355e+00 4.716990888118743896e-02 -1.256598758697509766e+01
0.000000000000000000e+00 -5.292233824729919434e-02 4.218447022140026093e-03 7.447476983070373535e-01 5.368932615965604782e-03 -5.541505813598632812e-01 1.917475950904190540e-03 1.264383673667907715e+00 -3.834952076431363821e-04 1.587670147418975830e-01 1.178864240646362305e+00 8.736020326614379883e-01 -9.909515976905822754e-01 -7.056311517953872681e-02 1.351437091827392578e+00 4.563592746853828430e-02 -1.256598758697509766e+01
0.000000000000000000e+00 -5.253884196281433105e-02 5.368932615965604782e-03 7.447476983070373535e-01 5.368932615965604782e-03 -5.549175739288330078e-01 1.917475950904190540e-03 1.264383673667907715e+00 -1.150485593825578690e-03 1.595340073108673096e-01 1.173111796379089355e+00 8.724515438079833984e-01 -9.909515976905822754e-01 -7.209710031747817993e-02 1.356039047241210938e+00 4.486893862485885620e-02 -1.256598758697509766e+01
0.000000000000000000e+00 -5.215534567832946777e-02 4.985437728464603424e-03 7.447476983070373535e-01 4.601942375302314758e-03 -5.549175739288330078e-01 2.684466307982802391e-03 1.264383673667907715e+00 -1.150485593825578690e-03 1.580000221729278564e-01 1.168509840965270996e+00 8.697671294212341309e-01 -9.917185902595520020e-01 -7.286408543586730957e-02 1.361024498939514160e+00 4.371845349669456482e-02 -1.256598758697509766e+01
0.000000000000000000e+00 -5.253884196281433105e-02 4.985437728464603424e-03 7.443642020225524902e-01 4.985437728464603424e-03 -5.549175739288330078e-01 2.300971187651157379e-03 1.263616681098937988e+00 -1.533980830572545528e-03 1.587670147418975830e-01 1.163907885551452637e+00 8.674661517143249512e-01 -9.913350939750671387e-01 -7.286408543586730957e-02 1.367160320281982422e+00 4.218447208404541016e-02 -1.256598758697509766e+01
0.000000000000000000e+00 -5.253884196281433105e-02 4.985437728464603424e-03 7.451311945915222168e-01 5.752427969127893448e-03 -5.553010702133178711e-01 1.917475950904190540e-03 1.263616681098937988e+00 -3.834952076431363821e-04 1.580000221729278564e-01 1.158155441284179688e+00 8.655486702919006348e-01 -9.917185902595520020e-01 -7.324758172035217285e-02 1.372529268264770508e+00 4.065049067139625549e-02 -1.256598758697509766e+01
0.000000000000000000e+00 -5.292233824729919434e-02 4.601942375302314758e-03 7.443642020225524902e-01 5.368932615965604782e-03 -5.549175739288330078e-01 2.684466307982802391e-03 1.263616681098937988e+00 -7.669904152862727642e-04 1.591505110263824463e-01 1.152786612510681152e+00 8.632476925849914551e-01 -9.917185902595520020e-01 -7.363107800483703613e-02 1.378281712532043457e+00 3.834952041506767273e-02 -1.256598758697509766e+01
0.000000000000000000e+00 -5.292233824729919434e-02 4.601942375302314758e-03 7.435972094535827637e-01 5.368932615965604782e-03 -5.549175739288330078e-01 1.533980830572545528e-03 1.264000177383422852e+00 -1.150485593825578690e-03 1.583835184574127197e-01 1.147034168243408203e+00 8.609467148780822754e-01 -9.917185902595520020e-01 -7.401457428932189941e-02 1.384034156799316406e+00 3.643204271793365479e-02 -1.256598758697509766e+01
0.000000000000000000e+00 -5.292233824729919434e-02 4.985437728464603424e-03 7.447476983070373535e-01 5.752427969127893448e-03 -5.545340776443481445e-01 1.917475950904190540e-03 1.264383673667907715e+00 -7.669904152862727642e-04 1.587670147418975830e-01 1.141281723976135254e+00 8.590292334556579590e-01 -9.913350939750671387e-01 -7.363107800483703613e-02 1.390553593635559082e+00 3.374757617712020874e-02 -1.256598758697509766e+01
