0.000000000000000000e+00 -5.292233824729919434e-02 4.601942375302314758e-03 7.447476983070373535e-01 5.752427969127893448e-03 -5.572184920310974121e-01 1.533980830572545528e-03 1.264383673667907715e+00 0.000000000000000000e+00 1.606844812631607056e-01 1.267835140228271484e+00 9.019806981086730957e-01 -9.759953022003173828e-01 -6.174272671341896057e-02 1.294679760932922363e+00 6.174272671341896057e-02 -1.256598758697509766e+01
0.000000000000000000e+00 -5.253884196281433105e-02 4.601942375302314758e-03 7.435972094535827637e-01 5.368932615965604782e-03 -5.576019883155822754e-01 2.300971187651157379e-03 1.264000177383422852e+00 -7.669904152862727642e-04 1.610679775476455688e-01 1.267451643943786621e+00 9.023641943931579590e-01 -9.756118059158325195e-01 -6.059224158525466919e-02 1.294679760932922363e+00 6.135923042893409729e-02 -1.256598758697509766e+01
0.000000000000000000e+00 -5.253884196281433105e-02 4.985437728464603424e-03 7.435972094535827637e-01 5.368932615965604782e-03 -5.572184920310974121e-01 1.917475950904190540e-03 1.264000177383422852e+00 -7.669904152862727642e-04 1.599175035953521729e-01 1.267068147659301758e+00 9.031311869621276855e-01 -9.759953022003173828e-01 -6.097573786973953247e-02 1.294296264648437500e+00 6.212622299790382385e-02 -1.256598758697509766e+01
0.000000000000000000e+00 -5.253884196281433105e-02 5.368932615965604782e-03 7.447476983070373535e-01 5.752427969127893448e-03 -5.568350553512573242e-01 2.300971187651157379e-03 1.264383673667907715e+00 -7.669904152862727642e-04 1.603009849786758423e-01 1.267451643943786621e+00 9.019806981086730957e-01 -9.767622947692871094e-01 -6.135923042893409729e-02 1.294679760932922363e+00 6.174272671341896057e-02 -1.256598758697509766e+01
0.000000000000000000e+00 -5.253884196281433105e-02 4.985437728464603424e-03 7.443642020225524902e-01 6.135923322290182114e-03 -5.579854846000671387e-01 2.300971187651157379e-03 1.264000177383422852e+00 0.000000000000000000e+00 1.606844812631607056e-01 1.267068147659301758e+00 9.023641943931579590e-01 -9.763787984848022461e-01 -6.059224158525466919e-02 1.294296264648437500e+00 6.174272671341896057e-02 -1.256598758697509766e+01
0.000000000000000000e+00 -5.253884196281433105e-02 4.601942375302314758e-03 7.447476983070373535e-01 6.135923322290182114e-03 -5.576019883155822754e-01 2.684466307982802391e-03 1.264000177383422852e+00 -3.834952076431363821e-04 1.599175035953521729e-01 1.268602132797241211e+00 9.019806981086730957e-01 -9.763787984848022461e-01 -6.135923042893409729e-02 1.294296264648437500e+00 6.174272671341896057e-02 -1.256598758697509766e+01
0.000000000000000000e+00 -5.292233824729919434e-02 4.985437728464603424e-03 7.435972094535827637e-01 5.368932615965604782e-03 -5.576019883155822754e-01 1.917475950904190540e-03 1.264383673667907715e+00 -7.669904152862727642e-04 1.595340073108673096e-01 1.268218636512756348e+00 9.023641943931579590e-01 -9.767622947692871094e-01 -6.174272671341896057e-02 1.293912768363952637e+00 6.174272671341896057e-02 -1.256598758697509766e+01
0.000000000000000000e+00 -5.215534567832946777e-02 4.601942375302314758e-03 7.443642020225524902e-01 5.368932615965604782e-03 -5.576019883155822754e-01 1.917475950904190540e-03 1.264000177383422852e+00 -1.150485593825578690e-03 1.591505110263824463e-01 1.268218636512756348e+00 9.027476906776428223e-01 -9.771457910537719727e-01 -6.174272671341896057e-02 1.294679760932922363e+00 6.174272671341896057e-02 -1.256598758697509766e+01
0.000000000000000000e+00 -5.292233824729919434e-02 4.601942375302314758e-03 7.443642020225524902e-01 5.368932615965604782e-03 -5.572184920310974121e-01 3.067961661145091057e-03 1.264000177383422852e+00 -3.834952076431363821e-04 1.599175035953521729e-01 1.268602132797241211e+00 9.019806981086730957e-01 -9.779127240180969238e-01 -6.135923042893409729e-02 1.294679760932922363e+00 6.212622299790382385e-02 -1.256598758697509766e+01
0.000000000000000000e+00 -5.292233824729919434e-02 5.368932615965604782e-03 7.447476983070373535e-01 5.368932615965604782e-03 -5.576019883155822754e-01 2.684466307982802391e-03 1.263616681098937988e+00 -3.834952076431363821e-04 1.606844812631607056e-01 1.268218636512756348e+00 9.023641943931579590e-01 -9.786797165870666504e-01 -6.097573786973953247e-02 1.295446753501892090e+00 6.174272671341896057e-02 -1.256598758697509766e+01
0.000000000000000000e+00 -5.253884196281433105e-02 4.218447022140026093e-03 7.447476983070373535e-01 5.752427969127893448e-03 -5.579854846000671387e-01 2.300971187651157379e-03 1.264383673667907715e+00 -1.533980830572545528e-03 1.599175035953521729e-01 1.269752621650695801e+00 9.023641943931579590e-01 -9.782962203025817871e-01 -6.212622299790382385e-02 1.294679760932922363e+00 6.212622299790382385e-02 -1.256598758697509766e+01
0.000000000000000000e+00 -5.253884196281433105e-02 4.601942375302314758e-03 7.435972094535827637e-01 5.368932615965604782e-03 -5.576019883155822754e-01 1.533980830572545528e-03 1.263616681098937988e+00 -7.669904152862727642e-04 1.610679775476455688e-01 1.267835140228271484e+00 9.023641943931579590e-01 -9.782962203025817871e-01 -6.135923042893409729e-02 1.295830249786376953e+00 6.174272671341896057e-02 -1.256598758697509766e+01
0.000000000000000000e+00 -5.292233824729919434e-02 4.985437728464603424e-03 7.443642020225524902e-01 5.368932615965604782e-03 -5.572184920310974121e-01 2.300971187651157379e-03 1.264000177383422852e+00 -3.834952076431363821e-04 1.595340073108673096e-01 1.268218636512756348e+00 9.019806981086730957e-01 -9.790632128715515137e-01 -6.174272671341896057e-02 1.294679760932922363e+00 6.135923042893409729e-02 -1.256598758697509766e+01
0.000000000000000000e+00 -5.253884196281433105e-02 4.985437728464603424e-03 7.447476983070373535e-01 5.752427969127893448e-03 -5.572184920310974121e-01 2.300971187651157379e-03 1.264767169952392578e+00 -7.669904152862727642e-04 1.606844812631607056e-01 1.268602132797241211e+00 9.019806981086730957e-01 -9.794467091560363770e-01 -6.135923042893409729e-02 1.294679760932922363e+00 6.212622299790382385e-02 -1.256598758697509766e+01
0.000000000000000000e+00 -5.292233824729919434e-02 4.985437728464603424e-03 7.447476983070373535e-01 5.368932615965604782e-03 -5.572184920310974121e-01 3.067961661145091057e-03 1.264000177383422852e+00 -7.669904152862727642e-04 1.603009849786758423e-01 1.267451643943786621e+00 9.023641943931579590e-01 -9.790632128715515137e-01 -6.212622299790382385e-02 1.294296264648437500e+00 6.174272671341896057e-02 -1.256598758697509766e+01
0.000000000000000000e+00 -5.253884196281433105e-02 4.985437728464603424e-03 7.447476983070373535e-01 5.752427969127893448e-03 -5.579854846000671387e-01 1.917475950904190540e-03 1.264000177383422852e+00 0.000000000000000000e+00 1.599175035953521729e-01 1.267835140228271484e+00 9.023641943931579590e-01 -9.794467091560363770e-01 -6.059224158525466919e-02 1.294296264648437500e+00 6.250971555709838867e-02 -1.256598758697509766e+01
0.000000000000000000e+00 -5.253884196281433105e-02 4.601942375302314758e-03 7.451311945915222168e-01 4.601942375302314758e-03 -5.576019883155822754e-01 1.917475950904190540e-03 1.264000177383422852e+00 -3.834952076431363821e-04 1.603009849786758423e-01 1.267835140228271484e+00 9.019806981086730957e-01 -9.802137017250061035e-01 -6.097573786973953247e-02 1.293912768363952637e+00 6.174272671341896057e-02 -1.256598758697509766e+01
0.000000000000000000e+00 -5.292233824729919434e-02 4.601942375302314758e-03 7.443642020225524902e-01 5.368932615965604782e-03 -5.572184920310974121e-01 1.917475950904190540e-03 1.264000177383422852e+00 -3.834952076431363821e-04 1.603009849786758423e-01 1.267835140228271484e+00 9.015972018241882324e-01 -9.805971980094909668e-01 -6.097573786973953247e-02 1.294679760932922363e+00 6.135923042893409729e-02 -1.256598758697509766e+01
0.000000000000000000e+00 -5.330583080649375916e-02 5.368932615965604782e-03 7.443642020225524902e-01 5.368932615965604782e-03 -5.576019883155822754e-01 2.300971187651157379e-03 1.264383673667907715e+00 -1.533980830572545528e-03 1.606844812631607056e-01 1.267835140228271484e+00 9.015972018241882324e-01 -9.813641905784606934e-01 -6.212622299790382385e-02 1.294296264648437500e+00 6.212622299790382385e-02 -1.256598758697509766e+01
0.000000000000000000e+00 -5.292233824729919434e-02 4.985437728464603424e-03 7.451311945915222168e-01 4.985437728464603424e-03 -5.572184920310974121e-01 1.917475950904190540e-03 1.264000177383422852e+00 -3.834952076431363821e-04 1.599175035953521729e-01 1.267068147659301758e+00 9.023641943931579590e-01 -9.809806942939758301e-01 -6.212622299790382385e-02 1.294296264648437500e+00 6.212622299790382385e-02 -1.256598758697509766e+01
0.000000000000000000e+00 -5.292233824729919434e-02 4.601942375302314758e-03 7.447476983070373535e-01 5.752427969127893448e-03 -5.576019883155822754e-01 1.917475950904190540e-03 1.264000177383422852e+00 -7.669904152862727642e-04 1.610679775476455688e-01 1.266684651374816895e+00 9.023641943931579590e-01 -9.813641905784606934e-01 -6.135923042893409729e-02 1.294679760932922363e+00 6.174272671341896057e-02 -1.256598758697509766e+01
0.000000000000000000e+00 -5.253884196281433105e-02 5.368932615965604782e-03 7.443642020225524902e-01 4.985437728464603424e-03 -5.579854846000671387e-01 2.300971187651157379e-03 1.264000177383422852e+00 0.000000000000000000e+00 1.603009849786758423e-01 1.267451643943786621e+00 9.027476906776428223e-01 -9.817476868629455566e-01 -6.135923042893409729e-02 1.295063257217407227e+00 6.174272671341896057e-02 -1.256598758697509766e+01
0.000000000000000000e+00 -5.215534567832946777e-02 4.985437728464603424e-03 7.451311945915222168e-01 5.368932615965604782e-03 -5.568350553512573242e-01 1.917475950904190540e-03 1.264767169952392578e+00 -7.669904152862727642e-04 1.599175035953521729e-01 1.267451643943786621e+00 9.019806981086730957e-01 -9.821311831474304199e-01 -6.135923042893409729e-02 1.294679760932922363e+00 6.135923042893409729e-02 -1.256598758697509766e+01
0.000000000000000000e+00 -5.253884196281433105e-02 5.368932615965604782e-03 7.443642020225524902e-01 5.368932615965604782e-03 -5.579854846000671387e-01 2.300971187651157379e-03 1.264000177383422852e+00 -3.834952076431363821e-04 1.606844812631607056e-01 1.267835140228271484e+00 9.015972018241882324e-01 -9.825146794319152832e-01 -6.135923042893409729e-02 1.294679760932922363e+00 6.212622299790382385e-02 -1.256598758697509766e+01
0.000000000000000000e+00 -5.253884196281433105e-02 4.985437728464603424e-03 7.443642020225524902e-01 4.985437728464603424e-03 -5.576019883155822754e-01 2.300971187651157379e-03 1.264000177383422852e+00 -3.834952076431363821e-04 1.606844812631607056e-01 1.266301155090332031e+00 9.019806981086730957e-01 -9.825146794319152832e-01 -6.174272671341896057e-02 1.294679760932922363e+00 6.250971555709838867e-02 -1.256598758697509766e+01
0.000000000000000000e+00 -5.253884196281433105e-02 4.601942375302314758e-03 7.432137131690979004e-01 5.368932615965604782e-03 -5.572184920310974121e-01 2.684466307982802391e-03 1.264000177383422852e+00 -3.834952076431363821e-04 1.603009849786758423e-01 1.266684651374816895e+00 9.019806981086730957e-01 -9.828981757164001465e-01 -6.135923042893409729e-02 1.294679760932922363e+00 6.212622299790382385e-02 -1.256598758697509766e+01
0.000000000000000000e+00 -5.215534567832946777e-02 4.601942375302314758e-03 7.447476983070373535e-01 5.368932615965604782e-03 -5.568350553512573242e-01 2.300971187651157379e-03 1.264383673667907715e+00 -3.834952076431363821e-04 1.603009849786758423e-01 1.266301155090332031e+00 9.019806981086730957e-01 -9.832816720008850098e-01 -6.135923042893409729e-02 1.294679760932922363e+00 6.250971555709838867e-02 -1.256598758697509766e+01
0.000000000000000000e+00 -5.253884196281433105e-02 4.985437728464603424e-03 7.435972094535827637e-01 5.368932615965604782e-03 -5.568350553512573242e-01 1.917475950904190540e-03 1.263616681098937988e+00 -3.834952076431363821e-04 1.603009849786758423e-01 1.267068147659301758e+00 9.019806981086730957e-01 -9.840486645698547363e-01 -6.135923042893409729e-02 1.294679760932922363e+00 6.174272671341896057e-02 -1.256598758697509766e+01
0.000000000000000000e+00 -5.253884196281433105e-02 4.218447022140026093e-03 7.451311945915222168e-01 4.985437728464603424e-03 -5.572184920310974121e-01 1.917475950904190540e-03 1.264000177383422852e+00 -7.669904152862727642e-04 1.603009849786758423e-01 1.267068147659301758e+00 9.023641943931579590e-01 -9.840486645698547363e-01 -6.097573786973953247e-02 1.294679760932922363e+00 6.212622299790382385e-02 -1.256598758697509766e+01
0.000000000000000000e+00 -5.215534567832946777e-02 4.601942375302314758e-03 7.447476983070373535e-01 5.752427969127893448e-03 -5.572184920310974121e-01 2.684466307982802391e-03 1.264383673667907715e+00 0.000000000000000000e+00 1.599175035953521729e-01 1.267451643943786621e+00 9.019806981086730957e-01 -9.840486645698547363e-01 -6.097573786973953247e-02 1.294296264648437500e+00 6.174272671341896057e-02 -1.256598758697509766e+01
0.000000000000000000e+00 -5.292233824729919434e-02 4.985437728464603424e-03 7.447476983070373535e-01 5.368932615965604782e-03 -5.572184920310974121e-01 2.684466307982802391e-03 1.264383673667907715e+00 -7.669904152862727642e-04 1.603009849786758423e-01 1.266684651374816895e+00 9.019806981086730957e-01 -9.836651682853698730e-01 -6.174272671341896057e-02 1.294679760932922363e+00 6.250971555709838867e-02 -1.256598758697509766e+01
0.000000000000000000e+00 -5.253884196281433105e-02 5.368932615965604782e-03 7.447476983070373535e-01 5.368932615965604782e-03 -5.572184920310974121e-01 1.917475950904190540e-03 1.264000177383422852e+00 -3.834952076431363821e-04 1.599175035953521729e-01 1.267068147659301758e+00 9.023641943931579590e-01 -9.836651682853698730e-01 -6.135923042893409729e-02 1.294296264648437500e+00 6.212622299790382385e-02 -1.256598758697509766e+01
0.000000000000000000e+00 -5.330583080649375916e-02 4.985437728464603424e-03 7.451311945915222168e-01 5.368932615965604782e-03 -5.568350553512573242e-01 2.684466307982802391e-03 1.264383673667907715e+00 -3.834952076431363821e-04 1.603009849786758423e-01 1.267068147659301758e+00 9.023641943931579590e-01 -9.840486645698547363e-01 -6.135923042893409729e-02 1.295063257217407227e+00 6.174272671341896057e-02 -1.256598758697509766e+01
0.000000000000000000e+00 -5.330583080649375916e-02 4.601942375302314758e-03 7.443642020225524902e-01 4.985437728464603424e-03 -5.572184920310974121e-01 2.300971187651157379e-03 1.264383673667907715e+00 -3.834952076431363821e-04 1.599175035953521729e-01 1.267451643943786621e+00 9.015972018241882324e-01 -9.844321608543395996e-01 -6.212622299790382385e-02 1.294679760932922363e+00 6.212622299790382385e-02 -1.256598758697509766e+01
0.000000000000000000e+00 -5.253884196281433105e-02 4.985437728464603424e-03 7.447476983070373535e-01 5.368932615965604782e-03 -5.572184920310974121e-01 2.684466307982802391e-03 1.264383673667907715e+00 -3.834952076431363821e-04 1.606844812631607056e-01 1.266684651374816895e+00 9.015972018241882324e-01 -9.844321608543395996e-01 -6.135923042893409729e-02 1.294296264648437500e+00 6.174272671341896057e-02 -1.256598758697509766e+01
0.000000000000000000e+00 -5.253884196281433105e-02 5.368932615965604782e-03 7.451311945915222168e-01 4.985437728464603424e-03 -5.572184920310974121e-01 1.917475950904190540e-03 1.264000177383422852e+00 -1.150485593825578690e-03 1.603009849786758423e-01 1.266684651374816895e+00 9.019806981086730957e-01 -9.840486645698547363e-01 -6.174272671341896057e-02 1.295446753501892090e+00 6.212622299790382385e-02 -1.256598758697509766e+01
0.000000000000000000e+00 -5.215534567832946777e-02 4.601942375302314758e-03 7.443642020225524902e-01 5.752427969127893448e-03 -5.576019883155822754e-01 1.533980830572545528e-03 1.264767169952392578e+00 -3.834952076431363821e-04 1.606844812631607056e-01 1.266684651374816895e+00 9.019806981086730957e-01 -9.836651682853698730e-01 -6.135923042893409729e-02 1.295063257217407227e+00 6.174272671341896057e-02 -1.256598758697509766e+01
0.000000000000000000e+00 -5.253884196281433105e-02 4.985437728464603424e-03 7.443642020225524902e-01 4.985437728464603424e-03 -5.572184920310974121e-01 2.684466307982802391e-03 1.264383673667907715e+00 -7.669904152862727642e-04 1.595340073108673096e-01 1.266684651374816895e+00 9.015972018241882324e-01 -9.836651682853698730e-01 -6.135923042893409729e-02 1.294679760932922363e+00 6.174272671341896057e-02 -1.256598758697509766e+01
0.000000000000000000e+00 -5.292233824729919434e-02 4.601942375302314758e-03 7.443642020225524902e-01 6.135923322290182114e-03 -5.579854846000671387e-01 1.917475950904190540e-03 1.264000177383422852e+00 -7.669904152862727642e-04 1.603009849786758423e-01 1.267835140228271484e+00 9.027476906776428223e-01 -9.844321608543395996e-01 -6.135923042893409729e-02 1.294679760932922363e+00 6.174272671341896057e-02 -1.256598758697509766e+01
0.000000000000000000e+00 -5.292233824729919434e-02 4.601942375302314758e-03 7.447476983070373535e-01 4.985437728464603424e-03 -5.572184920310974121e-01 1.917475950904190540e-03 1.263616681098937988e+00 -7.669904152862727642e-04 1.603009849786758423e-01 1.266684651374816895e+00 9.015972018241882324e-01 -9.832816720008850098e-01 -6.135923042893409729e-02 1.295063257217407227e+00 6.174272671341896057e-02 -1.256598758697509766e+01
0.000000000000000000e+00 -5.253884196281433105e-02 5.368932615965604782e-03 7.435972094535827637e-01 5.368932615965604782e-03 -5.579854846000671387e-01 2.300971187651157379e-03 1.263616681098937988e+00 0.000000000000000000e+00 1.606844812631607056e-01 1.266301155090332031e+00 9.015972018241882324e-01 -9.836651682853698730e-01 -6.135923042893409729e-02 1.295063257217407227e+00 6.174272671341896057e-02 -1.256598758697509766e+01
0.000000000000000000e+00 -5.292233824729919434e-02 4.985437728464603424e-03 7.443642020225524902e-01 4.601942375302314758e-03 -5.568350553512573242e-01 1.917475950904190540e-03 1.264000177383422852e+00 0.000000000000000000e+00 1.603009849786758423e-01 1.267835140228271484e+00 9.019806981086730957e-01 -9.836651682853698730e-01 -6.135923042893409729e-02 1.293912768363952637e+00 6.212622299790382385e-02 -1.256598758697509766e+01
0.000000000000000000e+00 -5.253884196281433105e-02 4.218447022140026093e-03 7.443642020225524902e-01 4.985437728464603424e-03 -5.568350553512573242e-01 1.917475950904190540e-03 1.264000177383422852e+00 -1.150485593825578690e-03 1.603009849786758423e-01 1.267835140228271484e+00 9.019806981086730957e-01 -9.825146794319152832e-01 -6.212622299790382385e-02 1.294679760932922363e+00 6.250971555709838867e-02 -1.256598758697509766e+01
0.000000000000000000e+00 -5.253884196281433105e-02 4.601942375302314758e-03 7.447476983070373535e-01 4.985437728464603424e-03 -5.576019883155822754e-01 2.300971187651157379e-03 1.264000177383422852e+00 -7.669904152862727642e-04 1.599175035953521729e-01 1.267835140228271484e+00 9.019806981086730957e-01 -9.828981757164001465e-01 -6.174272671341896057e-02 1.294679760932922363e+00 6.174272671341896057e-02 -1.256598758697509766e+01
0.000000000000000000e+00 -5.253884196281433105e-02 4.601942375302314758e-03 7.435972094535827637e-01 4.985437728464603424e-03 -5.568350553512573242e-01 2.300971187651157379e-03 1.263616681098937988e+00 -3.834952076431363821e-04 1.603009849786758423e-01 1.267451643943786621e+00 9.023641943931579590e-01 -9.832816720008850098e-01 -6.135923042893409729e-02 1.294679760932922363e+00 6.250971555709838867e-02 -1.256598758697509766e+01
0.000000000000000000e+00 -5.253884196281433105e-02 4.985437728464603424e-03 7.451311945915222168e-01 5.368932615965604782e-03 -5.572184920310974121e-01 2.300971187651157379e-03 1.264000177383422852e+00 -3.834952076431363821e-04 1.606844812631607056e-01 1.267451643943786621e+00 9.023641943931579590e-01 -9.825146794319152832e-01 -6.174272671341896057e-02 1.294296264648437500e+00 6.250971555709838867e-02 -1.256598758697509766e+01
0.000000000000000000e+00 -5.253884196281433105e-02 4.985437728464603424e-03 7.443642020225524902e-01 5.368932615965604782e-03 -5.564515590667724609e-01 2.684466307982802391e-03 1.265150666236877441e+00 -3.834952076431363821e-04 1.603009849786758423e-01 1.267835140228271484e+00 9.012137055397033691e-01 -9.821311831474304199e-01 -6.097573786973953247e-02 1.295063257217407227e+00 6.212622299790382385e-02 -1.256598758697509766e+01
0.000000000000000000e+00 -5.330583080649375916e-02 4.601942375302314758e-03 7.443642020225524902e-01 5.752427969127893448e-03 -5.576019883155822754e-01 1.917475950904190540e-03 1.263616681098937988e+00 -3.834952076431363821e-04 1.603009849786758423e-01 1.267835140228271484e+00 9.023641943931579590e-01 -9.821311831474304199e-01 -6.174272671341896057e-02 1.294679760932922363e+00 6.174272671341896057e-02 -1.256598758697509766e+01
0.000000000000000000e+00 -5.330583080649375916e-02 4.985437728464603424e-03 7.447476983070373535e-01 4.985437728464603424e-03 -5.568350553512573242e-01 1.533980830572545528e-03 1.264000177383422852e+00 -1.150485593825578690e-03 1.606844812631607056e-01 1.267835140228271484e+00 9.012137055397033691e-01 -9.821311831474304199e-01 -6.135923042893409729e-02 1.294679760932922363e+00 6.174272671341896057e-02 -1.256598758697509766e+01
0.000000000000000000e+00 -5.253884196281433105e-02 4.985437728464603424e-03 7.447476983070373535e-01 6.135923322290182114e-03 -5.572184920310974121e-01 2.300971187651157379e-03 1.264000177383422852e+00 -7.669904152862727642e-04 1.610679775476455688e-01 1.268602132797241211e+00 9.023641943931579590e-01 -9.821311831474304199e-01 -6.212622299790382385e-02 1.295830249786376953e+00 6.174272671341896057e-02 -1.256598758697509766e+01
0.000000000000000000e+00 -5.215534567832946777e-02 4.601942375302314758e-03 7.443642020225524902e-01 5.368932615965604782e-03 -5.568350553512573242e-01 1.917475950904190540e-03 1.264383673667907715e+00 -1.917475950904190540e-03 1.603009849786758423e-01 1.267835140228271484e+00 9.015972018241882324e-01 -9.817476868629455566e-01 -6.174272671341896057e-02 1.295063257217407227e+00 6.174272671341896057e-02 -1.256598758697509766e+01
0.000000000000000000e+00 -5.253884196281433105e-02 4.601942375302314758e-03 7.455146908760070801e-01 4.985437728464603424e-03 -5.564515590667724609e-01 2.300971187651157379e-03 1.264383673667907715e+00 -3.834952076431363821e-04 1.599175035953521729e-01 1.267835140228271484e+00 9.015972018241882324e-01 -9.817476868629455566e-01 -6.174272671341896057e-02 1.295063257217407227e+00 6.289321184158325195e-02 -1.256598758697509766e+01
0.000000000000000000e+00 -5.253884196281433105e-02 4.985437728464603424e-03 7.447476983070373535e-01 5.752427969127893448e-03 -5.568350553512573242e-01 1.917475950904190540e-03 1.264767169952392578e+00 -3.834952076431363821e-04 1.606844812631607056e-01 1.267835140228271484e+00 9.019806981086730957e-01 -9.809806942939758301e-01 -6.097573786973953247e-02 1.294296264648437500e+00 6.250971555709838867e-02 -1.256598758697509766e+01
0.000000000000000000e+00 -5.330583080649375916e-02 5.368932615965604782e-03 7.451311945915222168e-01 4.985437728464603424e-03 -5.572184920310974121e-01 2.300971187651157379e-03 1.264767169952392578e+00 -7.669904152862727642e-04 1.603009849786758423e-01 1.267835140228271484e+00 9.019806981086730957e-01 -9.813641905784606934e-01 -6.135923042893409729e-02 1.294679760932922363e+00 6.174272671341896057e-02 -1.256598758697509766e+01
0.000000000000000000e+00 -5.253884196281433105e-02 4.985437728464603424e-03 7.443642020225524902e-01 5.752427969127893448e-03 -5.568350553512573242e-01 1.533980830572545528e-03 1.264000177383422852e+00 -1.150485593825578690e-03 1.599175035953521729e-01 1.268602132797241211e+00 9.019806981086730957e-01 -9.821311831474304199e-01 -6.174272671341896057e-02 1.294679760932922363e+00 6.135923042893409729e-02 -1.256598758697509766e+01
0.000000000000000000e+00 -5.292233824729919434e-02 4.985437728464603424e-03 7.443642020225524902e-01 5.368932615965604782e-03 -5.572184920310974121e-01 2.684466307982802391e-03 1.264000177383422852e+00 -7.669904152862727642e-04 1.606844812631607056e-01 1.267835140228271484e+00 9.015972018241882324e-01 -9.817476868629455566e-01 -6.135923042893409729e-02 1.295446753501892090e+00 6.135923042893409729e-02 -1.256598758697509766e+01
0.000000000000000000e+00 -5.330583080649375916e-02 4.985437728464603424e-03 7.451311945915222168e-01 5.368932615965604782e-03 -5.560680627822875977e-01 1.917475950904190540e-03 1.264000177383422852e+00 -7.669904152862727642e-04 1.606844812631607056e-01 1.267451643943786621e+00 9.019806981086730957e-01 -9.821311831474304199e-01 -6.212622299790382385e-02 1.295446753501892090e+00 6.212622299790382385e-02 -1.256598758697509766e+01
0.000000000000000000e+00 -5.253884196281433105e-02 4.601942375302314758e-03 7.451311945915222168e-01 5.368932615965604782e-03 -5.568350553512573242e-01 2.300971187651157379e-03 1.264000177383422852e+00 -1.150485593825578690e-03 1.606844812631607056e-01 1.268218636512756348e+00 9.023641943931579590e-01 -9.817476868629455566e-01 -6.174272671341896057e-02 1.295063257217407227e+00 6.212622299790382385e-02 -1.256598758697509766e+01
0.000000000000000000e+00 -5.215534567832946777e-02 5.368932615965604782e-03 7.447476983070373535e-01 5.752427969127893448e-03 -5.576019883155822754e-01 2.300971187651157379e-03 1.264383673667907715e+00 -7.669904152862727642e-04 1.603009849786758423e-01 1.267835140228271484e+00 9.019806981086730957e-01 -9.813641905784606934e-01 -6.135923042893409729e-02 1.293912768363952637e+00 6.212622299790382385e-02 -1.256598758697509766e+01
0.000000000000000000e+00 -5.253884196281433105e-02 4.985437728464603424e-03 7.451311945915222168e-01 5.368932615965604782e-03 -5.568350553512573242e-01 2.300971187651157379e-03 1.264383673667907715e+00 -3.834952076431363821e-04 1.606844812631607056e-01 1.266684651374816895e+00 9.023641943931579590e-01 -9.821311831474304199e-01 -6.250971555709838867e-02 1.294296264648437500e+00 6.212622299790382385e-02 -1.256598758697509766e+01
0.000000000000000000e+00 -5.253884196281433105e-02 4.601942375302314758e-03 7.443642020225524902e-01 5.752427969127893448e-03 -5.564515590667724609e-01 1.917475950904190540e-03 1.264000177383422852e+00 -7.669904152862727642e-04 1.595340073108673096e-01 1.267451643943786621e+00 9.023641943931579590e-01 -9.821311831474304199e-01 -6.135923042893409729e-02 1.294679760932922363e+00 6.212622299790382385e-02 -1.256598758697509766e+01
0.000000000000000000e+00 -5.292233824729919434e-02 4.601942375302314758e-03 7.443642020225524902e-01 4.985437728464603424e-03 -5.568350553512573242e-01 2.300971187651157379e-03 1.263616681098937988e+00 -3.834952076431363821e-04 1.606844812631607056e-01 1.267451643943786621e+00 9.023641943931579590e-01 -9.817476868629455566e-01 -6.289321184158325195e-02 1.295063257217407227e+00 6.212622299790382385e-02 -1.256598758697509766e+01
0.000000000000000000e+00 -5.292233824729919434e-02 4.985437728464603424e-03 7.451311945915222168e-01 5.752427969127893448e-03 -5.568350553512573242e-01 2.300971187651157379e-03 1.264383673667907715e+00 -3.834952076431363821e-04 1.603009849786758423e-01 1.267451643943786621e+00 9.023641943931579590e-01 -9.817476868629455566e-01 -6.212622299790382385e-02 1.294679760932922363e+00 6.250971555709838867e-02 -1.256598758697509766e+01
0.000000000000000000e+00 -5.330583080649375916e-02 4.601942375302314758e-03 7.455146908760070801e-01 5.368932615965604782e-03 -5.568350553512573242e-01 2.300971187651157379e-03 1.264383673667907715e+00 -1.150485593825578690e-03 1.606844812631607056e-01 1.267068147659301758e+00 9.023641943931579590e-01 -9.825146794319152832e-01 -6.174272671341896057e-02 1.294679760932922363e+00 6.174272671341896057e-02 -1.256598758697509766e+01
0.000000000000000000e+00 -5.253884196281433105e-02 5.368932615965604782e-03 7.443642020225524902e-01 5.368932615965604782e-03 -5.568350553512573242e-01 1.917475950904190540e-03 1.263616681098937988e+00 -3.834952076431363821e-04 1.603009849786758423e-01 1.267068147659301758e+00 9.023641943931579590e-01 -9.825146794319152832e-01 -6.174272671341896057e-02 1.295063257217407227e+00 6.174272671341896057e-02 -1.256598758697509766e+01
0.000000000000000000e+00 -5.292233824729919434e-02 4.985437728464603424e-03 7.443642020225524902e-01 5.368932615965604782e-03 -5.564515590667724609e-01 2.684466307982802391e-03 1.264000177383422852e+00 -3.834952076431363821e-04 1.603009849786758423e-01 1.266684651374816895e+00 9.023641943931579590e-01 -9.832816720008850098e-01 -6.174272671341896057e-02 1.294679760932922363e+00 6.174272671341896057e-02 -1.256598758697509766e+01
0.000000000000000000e+00 -5.253884196281433105e-02 5.368932615965604782e-03 7.443642020225524902e-01 4.985437728464603424e-03 -5.568350553512573242e-01 2.300971187651157379e-03 1.264383673667907715e+00 -3.834952076431363821e-04 1.599175035953521729e-01 1.267068147659301758e+00 9.019806981086730957e-01 -9.828981757164001465e-01 -6.135923042893409729e-02 1.294296264648437500e+00 6.097573786973953247e-02 -1.256598758697509766e+01
0.000000000000000000e+00 -5.215534567832946777e-02 4.985437728464603424e-03 7.451311945915222168e-01 5.368932615965604782e-03 -5.564515590667724609e-01 2.684466307982802391e-03 1.264383673667907715e+00 -3.834952076431363821e-04 1.603009849786758423e-01 1.267068147659301758e+00 9.023641943931579590e-01 -9.828981757164001465e-01 -6.212622299790382385e-02 1.294679760932922363e+00 6.135923042893409729e-02 -1.256598758697509766e+01
0.000000000000000000e+00 -5.292233824729919434e-02 4.601942375302314758e-03 7.447476983070373535e-01 5.368932615965604782e-03 -5.572184920310974121e-01 1.917475950904190540e-03 1.264383673667907715e+00 -1.150485593825578690e-03 1.599175035953521729e-01 1.266684651374816895e+00 9.023641943931579590e-01 -9.828981757164001465e-01 -6.212622299790382385e-02 1.294296264648437500e+00 6.174272671341896057e-02 -1.256598758697509766e+01
0.000000000000000000e+00 -5.253884196281433105e-02 4.985437728464603424e-03 7.443642020225524902e-01 5.368932615965604782e-03 -5.568350553512573242e-01 1.917475950904190540e-03 1.263616681098937988e+00 0.000000000000000000e+00 1.610679775476455688e-01 1.267068147659301758e+00 9.012137055397033691e-01 -9.828981757164001465e-01 -6.135923042893409729e-02 1.295446753501892090e+00 6.135923042893409729e-02 -1.256598758697509766e+01
0.000000000000000000e+00 -5.292233824729919434e-02 4.985437728464603424e-03 7.443642020225524902e-01 4.985437728464603424e-03 -5.568350553512573242e-01 1.533980830572545528e-03 1.264383673667907715e+00 -7.669904152862727642e-04 1.603009849786758423e-01 1.266684651374816895e+00 9.023641943931579590e-01 -9.828981757164001465e-01 -6.135923042893409729e-02 1.295830249786376953e+00 6.212622299790382385e-02 -1.256598758697509766e+01
0.000000000000000000e+00 -5.253884196281433105e-02 4.218447022140026093e-03 7.447476983070373535e-01 5.752427969127893448e-03 -5.572184920310974121e-01 1.150485593825578690e-03 1.264383673667907715e+00 -7.669904152862727642e-04 1.603009849786758423e-01 1.266301155090332031e+00 9.019806981086730957e-01 -9.832816720008850098e-01 -6.212622299790382385e-02 1.295830249786376953e+00 6.174272671341896057e-02 -1.256598758697509766e+01
0.000000000000000000e+00 -5.292233824729919434e-02 4.985437728464603424e-03 7.447476983070373535e-01 5.368932615965604782e-03 -5.568350553512573242e-01 1.917475950904190540e-03 1.264383673667907715e+00 -3.834952076431363821e-04 1.606844812631607056e-01 1.265534162521362305e+00 9.004467129707336426e-01 -9.832816720008850098e-01 -6.174272671341896057e-02 1.296213746070861816e+00 6.174272671341896057e-02 -1.256598758697509766e+01
0.000000000000000000e+00 -5.253884196281433105e-02 4.985437728464603424e-03 7.443642020225524902e-01 5.368932615965604782e-03 -5.568350553512573242e-01 1.917475950904190540e-03 1.264000177383422852e+00 -3.834952076431363821e-04 1.603009849786758423e-01 1.265917658805847168e+00 9.023641943931579590e-01 -9.832816720008850098e-01 -6.212622299790382385e-02 1.296597242355346680e+00 6.174272671341896057e-02 -1.256598758697509766e+01
0.000000000000000000e+00 -5.253884196281433105e-02 4.985437728464603424e-03 7.435972094535827637e-01 4.985437728464603424e-03 -5.568350553512573242e-01 1.917475950904190540e-03 1.264383673667907715e+00 -1.150485593825578690e-03 1.599175035953521729e-01 1.265150666236877441e+00 9.019806981086730957e-01 -9.832816720008850098e-01 -6.174272671341896057e-02 1.296213746070861816e+00 6.174272671341896057e-02 -1.256598758697509766e+01
0.000000000000000000e+00 -5.292233824729919434e-02 5.752427969127893448e-03 7.447476983070373535e-01 4.985437728464603424e-03 -5.576019883155822754e-01 2.300971187651157379e-03 1.263616681098937988e+00 -7.669904152862727642e-04 1.606844812631607056e-01 1.265534162521362305e+00 9.015972018241882324e-01 -9.828981757164001465e-01 -6.212622299790382385e-02 1.295830249786376953e+00 6.174272671341896057e-02 -1.256598758697509766e+01
0.000000000000000000e+00 -5.292233824729919434e-02 5.368932615965604782e-03 7.447476983070373535e-01 4.985437728464603424e-03 -5.572184920310974121e-01 1.917475950904190540e-03 1.264383673667907715e+00 -7.669904152862727642e-04 1.603009849786758423e-01 1.264767169952392578e+00 9.023641943931579590e-01 -9.832816720008850098e-01 -6.212622299790382385e-02 1.295446753501892090e+00 6.174272671341896057e-02 -1.256598758697509766e+01
0.000000000000000000e+00 -5.253884196281433105e-02 4.985437728464603424e-03 7.447476983070373535e-01 5.752427969127893448e-03 -5.568350553512573242e-01 2.300971187651157379e-03 1.264000177383422852e+00 -7.669904152862727642e-04 1.606844812631607056e-01 1.265150666236877441e+00 9.019806981086730957e-01 -9.825146794319152832e-01 -6.097573786973953247e-02 1.295446753501892090e+00 6.174272671341896057e-02 -1.256598758697509766e+01
0.000000000000000000e+00 -5.253884196281433105e-02 4.601942375302314758e-03 7.447476983070373535e-01 5.368932615965604782e-03 -5.568350553512573242e-01 2.684466307982802391e-03 1.264000177383422852e+00 -3.834952076431363821e-04 1.599175035953521729e-01 1.264767169952392578e+00 9.023641943931579590e-01 -9.825146794319152832e-01 -6.135923042893409729e-02 1.295446753501892090e+00 6.212622299790382385e-02 -1.256598758697509766e+01
0.000000000000000000e+00 -5.292233824729919434e-02 5.368932615965604782e-03 7.443642020225524902e-01 4.985437728464603424e-03 -5.572184920310974121e-01 2.300971187651157379e-03 1.263616681098937988e+00 -7.669904152862727642e-04 1.606844812631607056e-01 1.264767169952392578e+00 9.023641943931579590e-01 -9.828981757164001465e-01 -6.174272671341896057e-02 1.295446753501892090e+00 6.212622299790382385e-02 -1.256598758697509766e+01
0.000000000000000000e+00 -5.215534567832946777e-02 5.368932615965604782e-03 7.447476983070373535e-01 5.368932615965604782e-03 -5.572184920310974121e-01 1.150485593825578690e-03 1.264000177383422852e+00 -1.150485593825578690e-03 1.606844812631607056e-01 1.264767169952392578e+00 9.019806981086730957e-01 -9.821311831474304199e-01 -6.174272671341896057e-02 1.295446753501892090e+00 6.250971555709838867e-02 -1.256598758697509766e+01
0.000000000000000000e+00 -5.330583080649375916e-02 4.985437728464603424e-03 7.435972094535827637e-01 4.985437728464603424e-03 -5.568350553512573242e-01 2.684466307982802391e-03 1.264000177383422852e+00 -7.669904152862727642e-04 1.603009849786758423e-01 1.265150666236877441e+00 9.023641943931579590e-01 -9.825146794319152832e-01 -6.212622299790382385e-02 1.295830249786376953e+00 6.174272671341896057e-02 -1.256598758697509766e+01
0.000000000000000000e+00 -5.253884196281433105e-02 4.985437728464603424e-03 7.455146908760070801e-01 6.135923322290182114e-03 -5.572184920310974121e-01 1.917475950904190540e-03 1.264383673667907715e+00 -3.834952076431363821e-04 1.606844812631607056e-01 1.264767169952392578e+00 9.023641943931579590e-01 -9.821311831474304199e-01 -6.250971555709838867e-02 1.295446753501892090e+00 6.174272671341896057e-02 -1.256598758697509766e+01
0.000000000000000000e+00 -5.253884196281433105e-02 4.601942375302314758e-03 7.447476983070373535e-01 5.368932615965604782e-03 -5.572184920310974121e-01 2.300971187651157379e-03 1.264383673667907715e+00 -3.834952076431363821e-04 1.603009849786758423e-01 1.264383673667907715e+00 9.019806981086730957e-01 -9.825146794319152832e-01 -6.174272671341896057e-02 1.295446753501892090e+00 6.135923042893409729e-02 -1.256598758697509766e+01
0.000000000000000000e+00 -5.253884196281433105e-02 4.601942375302314758e-03 7.443642020225524902e-01 5.368932615965604782e-03 -5.572184920310974121e-01 1.917475950904190540e-03 1.264000177383422852e+00 0.000000000000000000e+00 1.603009849786758423e-01 1.264767169952392578e+00 9.015972018241882324e-01 -9.832816720008850098e-01 -6.174272671341896057e-02 1.295446753501892090e+00 6.135923042893409729e-02 -1.256598758697509766e+01
0.000000000000000000e+00 -5.292233824729919434e-02 5.368932615965604782e-03 7.443642020225524902e-01 5.368932615965604782e-03 -5.572184920310974121e-01 1.150485593825578690e-03 1.264383673667907715e+00 -3.834952076431363821e-04 1.599175035953521729e-01 1.264767169952392578e+00 9.019806981086730957e-01 -9.825146794319152832e-01 -6.174272671341896057e-02 1.295446753501892090e+00 6.250971555709838867e-02 -1.256598758697509766e+01
0.000000000000000000e+00 -5.215534567832946777e-02 5.368932615965604782e-03 7.451311945915222168e-01 4.985437728464603424e-03 -5.560680627822875977e-01 1.917475950904190540e-03 1.264767169952392578e+00 -7.669904152862727642e-04 1.603009849786758423e-01 1.265150666236877441e+00 9.023641943931579590e-01 -9.825146794319152832e-01 -6.174272671341896057e-02 1.294679760932922363e+00 6.174272671341896057e-02 -1.256598758697509766e+01
0.000000000000000000e+00 -5.253884196281433105e-02 5.368932615965604782e-03 7.451311945915222168e-01 5.368932615965604782e-03 -5.568350553512573242e-01 1.533980830572545528e-03 1.264000177383422852e+00 -1.150485593825578690e-03 1.603009849786758423e-01 1.264767169952392578e+00 9.023641943931579590e-01 -9.832816720008850098e-01 -6.174272671341896057e-02 1.294679760932922363e+00 6.212622299790382385e-02 -1.256598758697509766e+01
0.000000000000000000e+00 -5.253884196281433105e-02 4.985437728464603424e-03 7.435972094535827637e-01 5.368932615965604782e-03 -5.564515590667724609e-01 1.917475950904190540e-03 1.263616681098937988e+00 -1.150485593825578690e-03 1.603009849786758423e-01 1.265534162521362305e+00 9.019806981086730957e-01 -9.828981757164001465e-01 -6.135923042893409729e-02 1.295063257217407227e+00 6.212622299790382385e-02 -1.256598758697509766e+01
0.000000000000000000e+00 -5.253884196281433105e-02 4.985437728464603424e-03 7.443642020225524902e-01 5.752427969127893448e-03 -5.560680627822875977e-01 2.300971187651157379e-03 1.264000177383422852e+00 -3.834952076431363821e-04 1.606844812631607056e-01 1.265534162521362305e+00 9.015972018241882324e-01 -9.821311831474304199e-01 -6.174272671341896057e-02 1.295063257217407227e+00 6.212622299790382385e-02 -1.256598758697509766e+01
0.000000000000000000e+00 -5.215534567832946777e-02 4.601942375302314758e-03 7.447476983070373535e-01 5.368932615965604782e-03 -5.568350553512573242e-01 2.300971187651157379e-03 1.264000177383422852e+00 -7.669904152862727642e-04 1.603009849786758423e-01 1.265150666236877441e+00 9.019806981086730957e-01 -9.828981757164001465e-01 -6.212622299790382385e-02 1.295446753501892090e+00 6.174272671341896057e-02 -1.256598758697509766e+01
0.000000000000000000e+00 -5.292233824729919434e-02 4.218447022140026093e-03 7.443642020225524902e-01 5.368932615965604782e-03 -5.568350553512573242e-01 1.150485593825578690e-03 1.264000177383422852e+00 -1.150485593825578690e-03 1.599175035953521729e-01 1.265534162521362305e+00 9.023641943931579590e-01 -9.832816720008850098e-01 -6.212622299790382385e-02 1.295830249786376953e+00 6.250971555709838867e-02 -1.256598758697509766e+01
0.000000000000000000e+00 -5.292233824729919434e-02 4.601942375302314758e-03 7.447476983070373535e-01 5.368932615965604782e-03 -5.572184920310974121e-01 2.300971187651157379e-03 1.264000177383422852e+00 -7.669904152862727642e-04 1.603009849786758423e-01 1.265534162521362305e+00 9.012137055397033691e-01 -9.825146794319152832e-01 -6.174272671341896057e-02 1.295063257217407227e+00 6.212622299790382385e-02 -1.256598758697509766e+01
0.000000000000000000e+00 -5.292233824729919434e-02 4.601942375302314758e-03 7.443642020225524902e-01 5.752427969127893448e-03 -5.564515590667724609e-01 1.917475950904190540e-03 1.264383673667907715e+00 -7.669904152862727642e-04 1.603009849786758423e-01 1.265917658805847168e+00 9.015972018241882324e-01 -9.821311831474304199e-01 -6.135923042893409729e-02 1.295830249786376953e+00 6.212622299790382385e-02 -1.256598758697509766e+01
0.000000000000000000e+00 -5.253884196281433105e-02 4.218447022140026093e-03 7.443642020225524902e-01 5.752427969127893448e-03 -5.564515590667724609e-01 1.917475950904190540e-03 1.264767169952392578e+00 -3.834952076431363821e-04 1.603009849786758423e-01 1.264767169952392578e+00 9.023641943931579590e-01 -9.828981757164001465e-01 -6.212622299790382385e-02 1.295830249786376953e+00 6.097573786973953247e-02 -1.256598758697509766e+01
0.000000000000000000e+00 -5.253884196281433105e-02 4.601942375302314758e-03 7.447476983070373535e-01 5.368932615965604782e-03 -5.568350553512573242e-01 3.067961661145091057e-03 1.263616681098937988e+00 -1.150485593825578690e-03 1.603009849786758423e-01 1.265534162521362305e+00 9.015972018241882324e-01 -9.821311831474304199e-01 -6.174272671341896057e-02 1.295446753501892090e+00 6.097573786973953247e-02 -1.256598758697509766e+01
0.000000000000000000e+00 -5.292233824729919434e-02 4.601942375302314758e-03 7.443642020225524902e-01 4.985437728464603424e-03 -5.572184920310974121e-01 2.300971187651157379e-03 1.264383673667907715e+00 -3.834952076431363821e-04 1.603009849786758423e-01 1.265150666236877441e+00 9.019806981086730957e-01 -9.828981757164001465e-01 -6.174272671341896057e-02 1.294679760932922363e+00 6.212622299790382385e-02 -1.256598758697509766e+01
0.000000000000000000e+00 -5.292233824729919434e-02 4.601942375302314758e-03 7.451311945915222168e-01 5.368932615965604782e-03 -5.568350553512573242e-01 2.300971187651157379e-03 1.264383673667907715e+00 -1.150485593825578690e-03 1.606844812631607056e-01 1.264767169952392578e+00 9.019806981086730957e-01 -9.825146794319152832e-01 -6.174272671341896057e-02 1.295063257217407227e+00 6.174272671341896057e-02 -1.256598758697509766e+01
0.000000000000000000e+00 -5.253884196281433105e-02 4.985437728464603424e-03 7.443642020225524902e-01 4.601942375302314758e-03 -5.564515590667724609e-01 2.300971187651157379e-03 1.264383673667907715e+00 0.000000000000000000e+00 1.606844812631607056e-01 1.265150666236877441e+00 9.023641943931579590e-01 -9.825146794319152832e-01 -6.212622299790382385e-02 1.295446753501892090e+00 6.212622299790382385e-02 -1.256598758697509766e+01
0.000000000000000000e+00 -5.253884196281433105e-02 4.985437728464603424e-03 7.447476983070373535e-01 5.368932615965604782e-03 -5.572184920310974121e-01 2.300971187651157379e-03 1.264383673667907715e+00 -7.669904152862727642e-04 1.603009849786758423e-01 1.265534162521362305e+00 9.019806981086730957e-01 -9.828981757164001465e-01 -6.174272671341896057e-02 1.295063257217407227e+00 6.212622299790382385e-02 -1.256598758697509766e+01
0.000000000000000000e+00 -5.292233824729919434e-02 4.985437728464603424e-03 7.435972094535827637e-01 5.368932615965604782e-03 -5.564515590667724609e-01 2.684466307982802391e-03 1.264000177383422852e+00 -3.834952076431363821e-04 1.606844812631607056e-01 1.264767169952392578e+00 9.023641943931579590e-01 -9.821311831474304199e-01 -6.097573786973953247e-02 1.294296264648437500e+00 6.212622299790382385e-02 -1.256598758697509766e+01
0.000000000000000000e+00 -5.253884196281433105e-02 4.985437728464603424e-03 7.447476983070373535e-01 5.368932615965604782e-03 -5.576019883155822754e-01 1.917475950904190540e-03 1.264000177383422852e+00 -7.669904152862727642e-04 1.606844812631607056e-01 1.265534162521362305e+00 9.019806981086730957e-01 -9.825146794319152832e-01 -6.250971555709838867e-02 1.294679760932922363e+00 6.212622299790382385e-02 -1.256598758697509766e+01
0.000000000000000000e+00 -5.215534567832946777e-02 4.985437728464603424e-03 7.443642020225524902e-01 5.368932615965604782e-03 -5.572184920310974121e-01 1.917475950904190540e-03 1.264383673667907715e+00 -3.834952076431363821e-04 1.603009849786758423e-01 1.265534162521362305e+00 9.015972018241882324e-01 -9.825146794319152832e-01 -6.174272671341896057e-02 1.295446753501892090e+00 6.174272671341896057e-02 -1.256598758697509766e+01
0.000000000000000000e+00 -5.253884196281433105e-02 4.985437728464603424e-03 7.451311945915222168e-01 5.368932615965604782e-03 -5.568350553512573242e-01 1.533980830572545528e-03 1.264383673667907715e+00 -7.669904152862727642e-04 1.595340073108673096e-01 1.265534162521362305e+00 9.019806981086730957e-01 -9.825146794319152832e-01 -6.212622299790382385e-02 1.295446753501892090e+00 6.212622299790382385e-02 -1.256598758697509766e+01
0.000000000000000000e+00 -5.215534567832946777e-02 4.218447022140026093e-03 7.443642020225524902e-01 4.601942375302314758e-03 -5.572184920310974121e-01 1.533980830572545528e-03 1.264000177383422852e+00 0.000000000000000000e+00 1.606844812631607056e-01 1.265534162521362305e+00 9.023641943931579590e-01 -9.825146794319152832e-01 -6.174272671341896057e-02 1.295063257217407227e+00 6.250971555709838867e-02 -1.256598758697509766e+01
0.000000000000000000e+00 -5.253884196281433105e-02 4.218447022140026093e-03 7.447476983070373535e-01 4.985437728464603424e-03 -5.564515590667724609e-01 1.917475950904190540e-03 1.264383673667907715e+00 -1.150485593825578690e-03 1.599175035953521729e-01 1.264383673667907715e+00 9.023641943931579590e-01 -9.821311831474304199e-01 -6.212622299790382385e-02 1.295063257217407227e+00 6.212622299790382385e-02 -1.256598758697509766e+01
0.000000000000000000e+00 -5.253884196281433105e-02 4.601942375302314758e-03 7.443642020225524902e-01 5.752427969127893448e-03 -5.572184920310974121e-01 2.300971187651157379e-03 1.264000177383422852e+00 -3.834952076431363821e-04 1.606844812631607056e-01 1.264767169952392578e+00 9.015972018241882324e-01 -9.828981757164001465e-01 -6.250971555709838867e-02 1.294679760932922363e+00 6.250971555709838867e-02 -1.256598758697509766e+01
0.000000000000000000e+00 -5.292233824729919434e-02 4.985437728464603424e-03 7.447476983070373535e-01 4.985437728464603424e-03 -5.568350553512573242e-01 2.300971187651157379e-03 1.264000177383422852e+00 -7.669904152862727642e-04 1.610679775476455688e-01 1.265150666236877441e+00 9.023641943931579590e-01 -9.821311831474304199e-01 -6.250971555709838867e-02 1.295446753501892090e+00 6.174272671341896057e-02 -1.256598758697509766e+01
0.000000000000000000e+00 -5.292233824729919434e-02 4.985437728464603424e-03 7.447476983070373535e-01 5.368932615965604782e-03 -5.568350553512573242e-01 1.917475950904190540e-03 1.263616681098937988e+00 -7.669904152862727642e-04 1.595340073108673096e-01 1.265150666236877441e+00 9.027476906776428223e-01 -9.828981757164001465e-01 -6.097573786973953247e-02 1.295446753501892090e+00 6.174272671341896057e-02 -1.256598758697509766e+01
0.000000000000000000e+00 -5.292233824729919434e-02 4.985437728464603424e-03 7.432137131690979004e-01 4.985437728464603424e-03 -5.568350553512573242e-01 2.684466307982802391e-03 1.263616681098937988e+00 -7.669904152862727642e-04 1.603009849786758423e-01 1.265150666236877441e+00 9.019806981086730957e-01 -9.825146794319152832e-01 -6.174272671341896057e-02 1.295063257217407227e+00 6.212622299790382385e-02 -1.256598758697509766e+01
0.000000000000000000e+00 -5.253884196281433105e-02 5.368932615965604782e-03 7.447476983070373535e-01 4.985437728464603424e-03 -5.568350553512573242e-01 2.684466307982802391e-03 1.264767169952392578e+00 -3.834952076431363821e-04 1.606844812631607056e-01 1.264767169952392578e+00 9.015972018241882324e-01 -9.821311831474304199e-01 -6.212622299790382385e-02 1.295446753501892090e+00 6.135923042893409729e-02 -1.256598758697509766e+01
0.000000000000000000e+00 -5.253884196281433105e-02 4.601942375302314758e-03 7.443642020225524902e-01 4.985437728464603424e-03 -5.572184920310974121e-01 1.917475950904190540e-03 1.264000177383422852e+00 -1.150485593825578690e-03 1.599175035953521729e-01 1.265534162521362305e+00 9.023641943931579590e-01 -9.828981757164001465e-01 -6.174272671341896057e-02 1.295830249786376953e+00 6.135923042893409729e-02 -1.256598758697509766e+01
0.000000000000000000e+00 -5.253884196281433105e-02 4.985437728464603424e-03 7.443642020225524902e-01 5.368932615965604782e-03 -5.568350553512573242e-01 2.300971187651157379e-03 1.264383673667907715e+00 -7.669904152862727642e-04 1.599175035953521729e-01 1.264767169952392578e+00 9.019806981086730957e-01 -9.825146794319152832e-01 -6.212622299790382385e-02 1.294296264648437500e+00 6.250971555709838867e-02 -1.256598758697509766e+01
0.000000000000000000e+00 -5.292233824729919434e-02 4.218447022140026093e-03 7.447476983070373535e-01 4.601942375302314758e-03 -5.576019883155822754e-01 1.533980830572545528e-03 1.263616681098937988e+00 -3.834952076431363821e-04 1.603009849786758423e-01 1.264383673667907715e+00 9.019806981086730957e-01 -9.825146794319152832e-01 -6.135923042893409729e-02 1.294679760932922363e+00 6.212622299790382385e-02 -1.256598758697509766e+01
0.000000000000000000e+00 -5.292233824729919434e-02 4.218447022140026093e-03 7.447476983070373535e-01 4.985437728464603424e-03 -5.564515590667724609e-01 2.300971187651157379e-03 1.264000177383422852e+00 0.000000000000000000e+00 1.603009849786758423e-01 1.265150666236877441e+00 9.012137055397033691e-01 -9.825146794319152832e-01 -6.212622299790382385e-02 1.295446753501892090e+00 6.174272671341896057e-02 -1.256598758697509766e+01
0.000000000000000000e+00 -5.292233824729919434e-02 4.985437728464603424e-03 7.447476983070373535e-01 4.985437728464603424e-03 -5.564515590667724609e-01 1.917475950904190540e-03 1.264383673667907715e+00 -7.669904152862727642e-04 1.603009849786758423e-01 1.265534162521362305e+00 9.015972018241882324e-01 -9.825146794319152832e-01 -6.174272671341896057e-02 1.295063257217407227e+00 6.174272671341896057e-02 -1.256598758697509766e+01
0.000000000000000000e+00 -5.253884196281433105e-02 4.985437728464603424e-03 7.443642020225524902e-01 5.752427969127893448e-03 -5.568350553512573242e-01 1.917475950904190540e-03 1.264000177383422852e+00 -7.669904152862727642e-04 1.603009849786758423e-01 1.264767169952392578e+00 9.015972018241882324e-01 -9.821311831474304199e-01 -6.174272671341896057e-02 1.295063257217407227e+00 6.250971555709838867e-02 -1.256598758697509766e+01
0.000000000000000000e+00 -5.253884196281433105e-02 4.985437728464603424e-03 7.447476983070373535e-01 4.985437728464603424e-03 -5.568350553512573242e-01 1.917475950904190540e-03 1.264383673667907715e+00 -3.834952076431363821e-04 1.599175035953521729e-01 1.264767169952392578e+00 9.019806981086730957e-01 -9.821311831474304199e-01 -6.174272671341896057e-02 1.295063257217407227e+00 6.212622299790382385e-02 -1.256598758697509766e+01
0.000000000000000000e+00 -5.292233824729919434e-02 4.601942375302314758e-03 7.443642020225524902e-01 4.985437728464603424e-03 -5.572184920310974121e-01 2.300971187651157379e-03 1.264000177383422852e+00 -1.150485593825578690e-03 1.599175035953521729e-01 1.265150666236877441e+00 9.015972018241882324e-01 -9.825146794319152832e-01 -6.174272671341896057e-02 1.295446753501892090e+00 6.135923042893409729e-02 -1.256598758697509766e+01
0.000000000000000000e+00 -5.292233824729919434e-02 4.985437728464603424e-03 7.447476983070373535e-01 5.368932615965604782e-03 -5.564515590667724609e-01 2.300971187651157379e-03 1.263616681098937988e+00 -7.669904152862727642e-04 1.599175035953521729e-01 1.264767169952392578e+00 9.027476906776428223e-01 -9.828981757164001465e-01 -6.212622299790382385e-02 1.294296264648437500e+00 6.289321184158325195e-02 -1.256598758697509766e+01
0.000000000000000000e+00 -5.253884196281433105e-02 4.985437728464603424e-03 7.435972094535827637e-01 5.752427969127893448e-03 -5.564515590667724609e-01 2.684466307982802391e-03 1.264383673667907715e+00 -7.669904152862727642e-04 1.610679775476455688e-01 1.264767169952392578e+00 9.023641943931579590e-01 -9.825146794319152832e-01 -6.212622299790382385e-02 1.295063257217407227e+00 6.250971555709838867e-02 -1.256598758697509766e+01
0.000000000000000000e+00 -5.330583080649375916e-02 4.985437728464603424e-03 7.435972094535827637e-01 5.368932615965604782e-03 -5.564515590667724609e-01 2.300971187651157379e-03 1.264000177383422852e+00 -7.669904152862727642e-04 1.599175035953521729e-01 1.264767169952392578e+00 9.023641943931579590e-01 -9.825146794319152832e-01 -6.212622299790382385e-02 1.295446753501892090e+00 6.250971555709838867e-02 -1.256598758697509766e+01
0.000000000000000000e+00 -5.253884196281433105e-02 5.368932615965604782e-03 7.447476983070373535e-01 5.368932615965604782e-03 -5.572184920310974121e-01 1.917475950904190540e-03 1.264383673667907715e+00 -3.834952076431363821e-04 1.603009849786758423e-01 1.265150666236877441e+00 9.023641943931579590e-01 -9.825146794319152832e-01 -6.289321184158325195e-02 1.295063257217407227e+00 6.174272671341896057e-02 -1.256598758697509766e+01
0.000000000000000000e+00 -5.292233824729919434e-02 4.985437728464603424e-03 7.443642020225524902e-01 4.985437728464603424e-03 -5.568350553512573242e-01 1.917475950904190540e-03 1.264000177383422852e+00 -3.834952076431363821e-04 1.603009849786758423e-01 1.264767169952392578e+00 9.019806981086730957e-01 -9.821311831474304199e-01 -6.174272671341896057e-02 1.295063257217407227e+00 6.174272671341896057e-02 -1.256598758697509766e+01
0.000000000000000000e+00 -5.330583080649375916e-02 4.601942375302314758e-03 7.443642020225524902e-01 4.985437728464603424e-03 -5.568350553512573242e-01 2.300971187651157379e-03 1.263616681098937988e+00 -7.669904152862727642e-04 1.599175035953521729e-01 1.264767169952392578e+00 9.023641943931579590e-01 -9.828981757164001465e-01 -6.174272671341896057e-02 1.295446753501892090e+00 6.250971555709838867e-02 -1.256598758697509766e+01
0.000000000000000000e+00 -5.330583080649375916e-02 4.218447022140026093e-03 7.447476983070373535e-01 4.985437728464603424e-03 -5.568350553512573242e-01 2.300971187651157379e-03 1.264383673667907715e+00 -1.533980830572545528e-03 1.599175035953521729e-01 1.265534162521362305e+00 9.023641943931579590e-01 -9.821311831474304199e-01 -6.174272671341896057e-02 1.295446753501892090e+00 6.174272671341896057e-02 -1.256598758697509766e+01
0.000000000000000000e+00 -5.330583080649375916e-02 4.985437728464603424e-03 7.447476983070373535e-01 5.368932615965604782e-03 -5.564515590667724609e-01 2.300971187651157379e-03 1.263616681098937988e+00 -3.834952076431363821e-04 1.603009849786758423e-01 1.264767169952392578e+00 9.023641943931579590e-01 -9.825146794319152832e-01 -6.174272671341896057e-02 1.295446753501892090e+00 6.212622299790382385e-02 -1.256598758697509766e+01
0.000000000000000000e+00 -5.215534567832946777e-02 4.985437728464603424e-03 7.451311945915222168e-01 5.368932615965604782e-03 -5.560680627822875977e-01 1.533980830572545528e-03 1.263616681098937988e+00 -1.150485593825578690e-03 1.603009849786758423e-01 1.265150666236877441e+00 9.015972018241882324e-01 -9.828981757164001465e-01 -6.135923042893409729e-02 1.295063257217407227e+00 6.212622299790382385e-02 -1.256598758697509766e+01
0.000000000000000000e+00 -5.292233824729919434e-02 4.601942375302314758e-03 7.443642020225524902e-01 5.368932615965604782e-03 -5.572184920310974121e-01 1.917475950904190540e-03 1.264383673667907715e+00 -7.669904152862727642e-04 1.606844812631607056e-01 1.265150666236877441e+00 9.023641943931579590e-01 -9.832816720008850098e-01 -6.174272671341896057e-02 1.295446753501892090e+00 6.212622299790382385e-02 -1.256598758697509766e+01
0.000000000000000000e+00 -5.292233824729919434e-02 4.601942375302314758e-03 7.447476983070373535e-01 5.368932615965604782e-03 -5.568350553512573242e-01 2.300971187651157379e-03 1.264383673667907715e+00 -7.669904152862727642e-04 1.603009849786758423e-01 1.265150666236877441e+00 9.019806981086730957e-01 -9.825146794319152832e-01 -6.212622299790382385e-02 1.295830249786376953e+00 6.212622299790382385e-02 -1.256598758697509766e+01
0.000000000000000000e+00 -5.253884196281433105e-02 5.368932615965604782e-03 7.443642020225524902e-01 5.368932615965604782e-03 -5.572184920310974121e-01 1.917475950904190540e-03 1.263616681098937988e+00 -1.150485593825578690e-03 1.603009849786758423e-01 1.264383673667907715e+00 9.015972018241882324e-01 -9.825146794319152832e-01 -6.212622299790382385e-02 1.295063257217407227e+00 6.212622299790382385e-02 -1.256598758697509766e+01
0.000000000000000000e+00 -5.292233824729919434e-02 4.985437728464603424e-03 7.443642020225524902e-01 5.368932615965604782e-03 -5.564515590667724609e-01 2.300971187651157379e-03 1.264000177383422852e+00 -7.669904152862727642e-04 1.603009849786758423e-01 1.265150666236877441e+00 9.023641943931579590e-01 -9.821311831474304199e-01 -6.212622299790382385e-02 1.295063257217407227e+00 6.212622299790382385e-02 -1.256598758697509766e+01
0.000000000000000000e+00 -5.253884196281433105e-02 4.218447022140026093e-03 7.435972094535827637e-01 4.985437728464603424e-03 -5.564515590667724609e-01 2.684466307982802391e-03 1.263616681098937988e+00 -7.669904152862727642e-04 1.603009849786758423e-01 1.264767169952392578e+00 9.015972018241882324e-01 -9.821311831474304199e-01 -6.174272671341896057e-02 1.294679760932922363e+00 6.212622299790382385e-02 -1.256598758697509766e+01
0.000000000000000000e+00 -5.292233824729919434e-02 4.218447022140026093e-03 7.443642020225524902e-01 4.601942375302314758e-03 -5.568350553512573242e-01 1.917475950904190540e-03 1.264000177383422852e+00 -7.669904152862727642e-04 1.599175035953521729e-01 1.265150666236877441e+00 9.027476906776428223e-01 -9.825146794319152832e-01 -6.212622299790382385e-02 1.295446753501892090e+00 6.174272671341896057e-02 -1.256598758697509766e+01
0.000000000000000000e+00 -5.253884196281433105e-02 4.985437728464603424e-03 7.443642020225524902e-01 4.985437728464603424e-03 -5.568350553512573242e-01 1.533980830572545528e-03 1.264000177383422852e+00 0.000000000000000000e+00 1.603009849786758423e-01 1.264767169952392578e+00 9.023641943931579590e-01 -9.828981757164001465e-01 -6.212622299790382385e-02 1.296213746070861816e+00 6.212622299790382385e-02 -1.256598758697509766e+01
0.000000000000000000e+00 -5.215534567832946777e-02 4.601942375302314758e-03 7.443642020225524902e-01 4.985437728464603424e-03 -5.568350553512573242e-01 1.533980830572545528e-03 1.264000177383422852e+00 -7.669904152862727642e-04 1.595340073108673096e-01 1.264000177383422852e+00 9.023641943931579590e-01 -9.825146794319152832e-01 -6.174272671341896057e-02 1.295446753501892090e+00 6.250971555709838867e-02 -1.256598758697509766e+01
0.000000000000000000e+00 -5.292233824729919434e-02 4.985437728464603424e-03 7.443642020225524902e-01 5.752427969127893448e-03 -5.564515590667724609e-01 2.684466307982802391e-03 1.264000177383422852e+00 0.000000000000000000e+00 1.610679775476455688e-01 1.265150666236877441e+00 9.027476906776428223e-01 -9.821311831474304199e-01 -6.174272671341896057e-02 1.295063257217407227e+00 6.174272671341896057e-02 -1.256598758697509766e+01
0.000000000000000000e+00 -5.292233824729919434e-02 4.985437728464603424e-03 7.451311945915222168e-01 5.752427969127893448e-03 -5.568350553512573242e-01 2.300971187651157379e-03 1.264000177383422852e+00 -3.834952076431363821e-04 1.603009849786758423e-01 1.265534162521362305e+00 9.023641943931579590e-01 -9.828981757164001465e-01 -6.135923042893409729e-02 1.295830249786376953e+00 6.212622299790382385e-02 -1.256598758697509766e+01
0.000000000000000000e+00 -5.253884196281433105e-02 4.985437728464603424e-03 7.443642020225524902e-01 4.985437728464603424e-03 -5.564515590667724609e-01 2.684466307982802391e-03 1.264000177383422852e+00 -7.669904152862727642e-04 1.599175035953521729e-01 1.265150666236877441e+00 9.023641943931579590e-01 -9.825146794319152832e-01 -6.174272671341896057e-02 1.295063257217407227e+00 6.174272671341896057e-02 -1.256598758697509766e+01
0.000000000000000000e+00 -5.253884196281433105e-02 5.368932615965604782e-03 7.435972094535827637e-01 4.985437728464603424e-03 -5.564515590667724609e-01 1.917475950904190540e-03 1.263616681098937988e+00 -7.669904152862727642e-04 1.606844812631607056e-01 1.264767169952392578e+00 9.023641943931579590e-01 -9.825146794319152832e-01 -6.174272671341896057e-02 1.294679760932922363e+00 6.174272671341896057e-02 -1.256598758697509766e+01
0.000000000000000000e+00 -5.330583080649375916e-02 4.218447022140026093e-03 7.435972094535827637e-01 5.368932615965604782e-03 -5.568350553512573242e-01 1.533980830572545528e-03 1.264000177383422852e+00 -7.669904152862727642e-04 1.603009849786758423e-01 1.265150666236877441e+00 9.015972018241882324e-01 -9.821311831474304199e-01 -6.174272671341896057e-02 1.295063257217407227e+00 6.212622299790382385e-02 -1.256598758697509766e+01
0.000000000000000000e+00 -5.253884196281433105e-02 5.368932615965604782e-03 7.443642020225524902e-01 4.985437728464603424e-03 -5.568350553512573242e-01 1.917475950904190540e-03 1.263616681098937988e+00 -7.669904152862727642e-04 1.606844812631607056e-01 1.265150666236877441e+00 9.023641943931579590e-01 -9.821311831474304199e-01 -6.174272671341896057e-02 1.295063257217407227e+00 6.250971555709838867e-02 -1.256598758697509766e+01
0.000000000000000000e+00 -5.292233824729919434e-02 5.368932615965604782e-03 7.435972094535827637e-01 5.368932615965604782e-03 -5.568350553512573242e-01 1.917475950904190540e-03 1.264000177383422852e+00 -3.834952076431363821e-04 1.606844812631607056e-01 1.265150666236877441e+00 9.027476906776428223e-01 -9.825146794319152832e-01 -6.174272671341896057e-02 1.295446753501892090e+00 6.174272671341896057e-02 -1.256598758697509766e+01
0.000000000000000000e+00 -5.253884196281433105e-02 4.601942375302314758e-03 7.435972094535827637e-01 4.985437728464603424e-03 -5.564515590667724609e-01 2.684466307982802391e-03 1.264767169952392578e+00 -3.834952076431363821e-04 1.603009849786758423e-01 1.265150666236877441e+00 9.019806981086730957e-01 -9.817476868629455566e-01 -6.212622299790382385e-02 1.294679760932922363e+00 6.174272671341896057e-02 -1.256598758697509766e+01
0.000000000000000000e+00 -5.292233824729919434e-02 4.601942375302314758e-03 7.447476983070373535e-01 4.985437728464603424e-03 -5.560680627822875977e-01 3.067961661145091057e-03 1.264000177383422852e+00 -3.834952076431363821e-04 1.599175035953521729e-01 1.264383673667907715e+00 9.019806981086730957e-01 -9.821311831474304199e-01 -6.212622299790382385e-02 1.295446753501892090e+00 6.250971555709838867e-02 -1.256598758697509766e+01
0.000000000000000000e+00 -5.292233824729919434e-02 4.985437728464603424e-03 7.447476983070373535e-01 5.368932615965604782e-03 -5.560680627822875977e-01 2.300971187651157379e-03 1.264000177383422852e+00 -7.669904152862727642e-04 1.606844812631607056e-01 1.265534162521362305e+00 9.027476906776428223e-01 -9.821311831474304199e-01 -6.212622299790382385e-02 1.295446753501892090e+00 6.174272671341896057e-02 -1.256598758697509766e+01
0.000000000000000000e+00 -5.330583080649375916e-02 4.985437728464603424e-03 7.447476983070373535e-01 5.752427969127893448e-03 -5.564515590667724609e-01 1.533980830572545528e-03 1.264000177383422852e+00 -3.834952076431363821e-04 1.599175035953521729e-01 1.265534162521362305e+00 9.023641943931579590e-01 -9.817476868629455566e-01 -6.250971555709838867e-02 1.295830249786376953e+00 6.135923042893409729e-02 -1.256598758697509766e+01
0.000000000000000000e+00 -5.253884196281433105e-02 5.368932615965604782e-03 7.447476983070373535e-01 5.368932615965604782e-03 -5.568350553512573242e-01 1.917475950904190540e-03 1.264000177383422852e+00 -1.533980830572545528e-03 1.606844812631607056e-01 1.264383673667907715e+00 9.023641943931579590e-01 -9.821311831474304199e-01 -6.135923042893409729e-02 1.296213746070861816e+00 6.135923042893409729e-02 -1.256598758697509766e+01
0.000000000000000000e+00 -5.330583080649375916e-02 4.601942375302314758e-03 7.447476983070373535e-01 4.601942375302314758e-03 -5.568350553512573242e-01 2.300971187651157379e-03 1.264383673667907715e+00 -7.669904152862727642e-04 1.606844812631607056e-01 1.265534162521362305e+00 9.031311869621276855e-01 -9.821311831474304199e-01 -6.250971555709838867e-02 1.295830249786376953e+00 6.212622299790382385e-02 -1.256598758697509766e+01
0.000000000000000000e+00 -5.253884196281433105e-02 5.368932615965604782e-03 7.443642020225524902e-01 4.601942375302314758e-03 -5.564515590667724609e-01 1.533980830572545528e-03 1.264383673667907715e+00 -1.533980830572545528e-03 1.595340073108673096e-01 1.265150666236877441e+00 9.023641943931579590e-01 -9.817476868629455566e-01 -6.212622299790382385e-02 1.295830249786376953e+00 6.212622299790382385e-02 -1.256598758697509766e+01
0.000000000000000000e+00 -5.292233824729919434e-02 5.368932615965604782e-03 7.443642020225524902e-01 4.601942375302314758e-03 -5.572184920310974121e-01 1.917475950904190540e-03 1.264000177383422852e+00 0.000000000000000000e+00 1.595340073108673096e-01 1.264000177383422852e+00 9.027476906776428223e-01 -9.813641905784606934e-01 -6.212622299790382385e-02 1.295063257217407227e+00 6.212622299790382385e-02 -1.256598758697509766e+01
0.000000000000000000e+00 -5.215534567832946777e-02 4.985437728464603424e-03 7.447476983070373535e-01 5.368932615965604782e-03 -5.564515590667724609e-01 2.300971187651157379e-03 1.264383673667907715e+00 -3.834952076431363821e-04 1.610679775476455688e-01 1.264383673667907715e+00 9.019806981086730957e-01 -9.817476868629455566e-01 -6.135923042893409729e-02 1.294679760932922363e+00 6.250971555709838867e-02 -1.256598758697509766e+01
0.000000000000000000e+00 -5.253884196281433105e-02 5.368932615965604782e-03 7.443642020225524902e-01 4.985437728464603424e-03 -5.568350553512573242e-01 2.684466307982802391e-03 1.263616681098937988e+00 -1.533980830572545528e-03 1.603009849786758423e-01 1.265150666236877441e+00 9.015972018241882324e-01 -9.817476868629455566e-01 -6.212622299790382385e-02 1.295446753501892090e+00 6.289321184158325195e-02 -1.256598758697509766e+01
0.000000000000000000e+00 -5.253884196281433105e-02 4.601942375302314758e-03 7.451311945915222168e-01 4.601942375302314758e-03 -5.564515590667724609e-01 2.300971187651157379e-03 1.264383673667907715e+00 -7.669904152862727642e-04 1.599175035953521729e-01 1.265150666236877441e+00 9.027476906776428223e-01 -9.817476868629455566e-01 -6.135923042893409729e-02 1.295063257217407227e+00 6.212622299790382385e-02 -1.256598758697509766e+01
0.000000000000000000e+00 -5.253884196281433105e-02 4.601942375302314758e-03 7.443642020225524902e-01 5.368932615965604782e-03 -5.560680627822875977e-01 3.067961661145091057e-03 1.264383673667907715e+00 -1.150485593825578690e-03 1.603009849786758423e-01 1.265150666236877441e+00 9.015972018241882324e-01 -9.817476868629455566e-01 -6.135923042893409729e-02 1.295446753501892090e+00 6.212622299790382385e-02 -1.256598758697509766e+01
0.000000000000000000e+00 -5.292233824729919434e-02 4.985437728464603424e-03 7.447476983070373535e-01 4.601942375302314758e-03 -5.564515590667724609e-01 1.917475950904190540e-03 1.264383673667907715e+00 0.000000000000000000e+00 1.606844812631607056e-01 1.265150666236877441e+00 9.023641943931579590e-01 -9.817476868629455566e-01 -6.174272671341896057e-02 1.295446753501892090e+00 6.135923042893409729e-02 -1.256598758697509766e+01
0.000000000000000000e+00 -5.253884196281433105e-02 4.985437728464603424e-03 7.447476983070373535e-01 4.985437728464603424e-03 -5.568350553512573242e-01 1.917475950904190540e-03 1.263233184814453125e+00 -7.669904152862727642e-04 1.603009849786758423e-01 1.264767169952392578e+00 9.019806981086730957e-01 -9.813641905784606934e-01 -6.212622299790382385e-02 1.295446753501892090e+00 6.174272671341896057e-02 -1.256598758697509766e+01
0.000000000000000000e+00 -5.253884196281433105e-02 4.985437728464603424e-03 7.443642020225524902e-01 5.368932615965604782e-03 -5.560680627822875977e-01 2.300971187651157379e-03 1.263616681098937988e+00 -3.834952076431363821e-04 1.606844812631607056e-01 1.264767169952392578e+00 9.019806981086730957e-01 -9.817476868629455566e-01 -6.174272671341896057e-02 1.296213746070861816e+00 6.174272671341896057e-02 -1.256598758697509766e+01
0.000000000000000000e+00 -5.215534567832946777e-02 4.985437728464603424e-03 7.443642020225524902e-01 4.985437728464603424e-03 -5.568350553512573242e-01 1.533980830572545528e-03 1.264383673667907715e+00 -3.834952076431363821e-04 1.603009849786758423e-01 1.264767169952392578e+00 9.015972018241882324e-01 -9.813641905784606934e-01 -6.250971555709838867e-02 1.295830249786376953e+00 6.174272671341896057e-02 -1.256598758697509766e+01
0.000000000000000000e+00 -5.253884196281433105e-02 4.601942375302314758e-03 7.443642020225524902e-01 5.368932615965604782e-03 -5.564515590667724609e-01 1.917475950904190540e-03 1.263616681098937988e+00 -3.834952076431363821e-04 1.606844812631607056e-01 1.265534162521362305e+00 9.012137055397033691e-01 -9.813641905784606934e-01 -6.174272671341896057e-02 1.295446753501892090e+00 6.174272671341896057e-02 -1.256598758697509766e+01
0.000000000000000000e+00 -5.253884196281433105e-02 5.368932615965604782e-03 7.443642020225524902e-01 5.368932615965604782e-03 -5.553010702133178711e-01 3.067961661145091057e-03 1.264383673667907715e+00 -1.150485593825578690e-03 1.603009849786758423e-01 1.265534162521362305e+00 9.019806981086730957e-01 -9.813641905784606934e-01 -6.212622299790382385e-02 1.295446753501892090e+00 6.174272671341896057e-02 -1.256598758697509766e+01
0.000000000000000000e+00 -5.215534567832946777e-02 5.368932615965604782e-03 7.443642020225524902e-01 4.985437728464603424e-03 -5.576019883155822754e-01 2.300971187651157379e-03 1.264383673667907715e+00 -1.533980830572545528e-03 1.606844812631607056e-01 1.265150666236877441e+00 9.019806981086730957e-01 -9.805971980094909668e-01 -6.174272671341896057e-02 1.295830249786376953e+00 6.212622299790382385e-02 -1.256598758697509766e+01
0.000000000000000000e+00 -5.253884196281433105e-02 4.985437728464603424e-03 7.447476983070373535e-01 5.368932615965604782e-03 -5.560680627822875977e-01 2.300971187651157379e-03 1.264767169952392578e+00 -7.669904152862727642e-04 1.603009849786758423e-01 1.265150666236877441e+00 9.019806981086730957e-01 -9.813641905784606934e-01 -6.250971555709838867e-02 1.295446753501892090e+00 6.135923042893409729e-02 -1.256598758697509766e+01
0.000000000000000000e+00 -5.215534567832946777e-02 4.985437728464603424e-03 7.447476983070373535e-01 4.601942375302314758e-03 -5.564515590667724609e-01 1.917475950904190540e-03 1.264000177383422852e+00 -1.533980830572545528e-03 1.599175035953521729e-01 1.264383673667907715e+00 9.015972018241882324e-01 -9.809806942939758301e-01 -6.212622299790382385e-02 1.295830249786376953e+00 6.212622299790382385e-02 -1.256598758697509766e+01
0.000000000000000000e+00 -5.215534567832946777e-02 4.218447022140026093e-03 7.451311945915222168e-01 4.985437728464603424e-03 -5.564515590667724609e-01 2.300971187651157379e-03 1.263616681098937988e+00 -3.834952076431363821e-04 1.599175035953521729e-01 1.264767169952392578e+00 9.023641943931579590e-01 -9.802137017250061035e-01 -6.174272671341896057e-02 1.295446753501892090e+00 6.174272671341896057e-02 -1.256598758697509766e+01
0.000000000000000000e+00 -5.292233824729919434e-02 4.218447022140026093e-03 7.443642020225524902e-01 5.368932615965604782e-03 -5.556845664978027344e-01 2.300971187651157379e-03 1.264000177383422852e+00 -1.150485593825578690e-03 1.606844812631607056e-01 1.265150666236877441e+00 9.019806981086730957e-01 -9.809806942939758301e-01 -6.135923042893409729e-02 1.295830249786376953e+00 6.212622299790382385e-02 -1.256598758697509766e+01
0.000000000000000000e+00 -5.253884196281433105e-02 4.601942375302314758e-03 7.447476983070373535e-01 5.368932615965604782e-03 -5.556845664978027344e-01 1.917475950904190540e-03 1.264000177383422852e+00 -1.150485593825578690e-03 1.610679775476455688e-01 1.264767169952392578e+00 9.019806981086730957e-01 -9.802137017250061035e-01 -6.174272671341896057e-02 1.295830249786376953e+00 6.174272671341896057e-02 -1.256598758697509766e+01
0.000000000000000000e+00 -5.292233824729919434e-02 4.601942375302314758e-03 7.451311945915222168e-01 5.368932615965604782e-03 -5.556845664978027344e-01 1.150485593825578690e-03 1.264000177383422852e+00 -3.834952076431363821e-04 1.606844812631607056e-01 1.264000177383422852e+00 9.027476906776428223e-01 -9.805971980094909668e-01 -6.212622299790382385e-02 1.295446753501892090e+00 6.174272671341896057e-02 -1.256598758697509766e+01
0.000000000000000000e+00 -5.330583080649375916e-02 4.601942375302314758e-03 7.447476983070373535e-01 4.985437728464603424e-03 -5.560680627822875977e-01 1.917475950904190540e-03 1.263616681098937988e+00 -3.834952076431363821e-04 1.603009849786758423e-01 1.264383673667907715e+00 9.023641943931579590e-01 -9.802137017250061035e-01 -6.212622299790382385e-02 1.295063257217407227e+00 6.212622299790382385e-02 -1.256598758697509766e+01
0.000000000000000000e+00 -5.253884196281433105e-02 4.985437728464603424e-03 7.447476983070373535e-01 5.368932615965604782e-03 -5.560680627822875977e-01 2.300971187651157379e-03 1.264383673667907715e+00 -3.834952076431363821e-04 1.599175035953521729e-01 1.264000177383422852e+00 9.015972018241882324e-01 -9.798302054405212402e-01 -6.212622299790382385e-02 1.295830249786376953e+00 6.212622299790382385e-02 -1.256598758697509766e+01
0.000000000000000000e+00 -5.292233824729919434e-02 5.368932615965604782e-03 7.447476983070373535e-01 5.752427969127893448e-03 -5.564515590667724609e-01 1.917475950904190540e-03 1.263616681098937988e+00 -7.669904152862727642e-04 1.603009849786758423e-01 1.264000177383422852e+00 9.015972018241882324e-01 -9.798302054405212402e-01 -6.250971555709838867e-02 1.295446753501892090e+00 6.212622299790382385e-02 -1.256598758697509766e+01
0.000000000000000000e+00 -5.215534567832946777e-02 5.752427969127893448e-03 7.443642020225524902e-01 5.368932615965604782e-03 -5.560680627822875977e-01 2.300971187651157379e-03 1.264000177383422852e+00 -7.669904152862727642e-04 1.595340073108673096e-01 1.264000177383422852e+00 9.023641943931579590e-01 -9.798302054405212402e-01 -6.212622299790382385e-02 1.295063257217407227e+00 6.212622299790382385e-02 -1.256598758697509766e+01
0.000000000000000000e+00 -5.292233824729919434e-02 5.752427969127893448e-03 7.435972094535827637e-01 5.368932615965604782e-03 -5.556845664978027344e-01 2.684466307982802391e-03 1.264000177383422852e+00 -1.150485593825578690e-03 1.599175035953521729e-01 1.264000177383422852e+00 9.023641943931579590e-01 -9.798302054405212402e-01 -6.135923042893409729e-02 1.295063257217407227e+00 6.174272671341896057e-02 -1.256598758697509766e+01
0.000000000000000000e+00 -5.330583080649375916e-02 4.985437728464603424e-03 7.451311945915222168e-01 4.985437728464603424e-03 -5.564515590667724609e-01 1.917475950904190540e-03 1.264000177383422852e+00 -7.669904152862727642e-04 1.610679775476455688e-01 1.264383673667907715e+00 9.027476906776428223e-01 -9.798302054405212402e-01 -6.174272671341896057e-02 1.295063257217407227e+00 6.250971555709838867e-02 -1.256598758697509766e+01
0.000000000000000000e+00 -5.253884196281433105e-02 4.985437728464603424e-03 7.435972094535827637e-01 5.368932615965604782e-03 -5.564515590667724609e-01 2.684466307982802391e-03 1.263616681098937988e+00 -1.150485593825578690e-03 1.603009849786758423e-01 1.263616681098937988e+00 9.027476906776428223e-01 -9.790632128715515137e-01 -6.174272671341896057e-02 1.295446753501892090e+00 6.174272671341896057e-02 -1.256598758697509766e+01
0.000000000000000000e+00 -5.253884196281433105e-02 5.368932615965604782e-03 7.447476983070373535e-01 4.985437728464603424e-03 -5.560680627822875977e-01 2.300971187651157379e-03 1.264000177383422852e+00 -7.669904152862727642e-04 1.599175035953521729e-01 1.264383673667907715e+00 9.023641943931579590e-01 -9.798302054405212402e-01 -6.212622299790382385e-02 1.295063257217407227e+00 6.212622299790382385e-02 -1.256598758697509766e+01
0.000000000000000000e+00 -5.253884196281433105e-02 4.985437728464603424e-03 7.447476983070373535e-01 5.368932615965604782e-03 -5.564515590667724609e-01 2.300971187651157379e-03 1.264000177383422852e+00 -3.834952076431363821e-04 1.606844812631607056e-01 1.263616681098937988e+00 9.023641943931579590e-01 -9.794467091560363770e-01 -6.250971555709838867e-02 1.295446753501892090e+00 6.174272671341896057e-02 -1.256598758697509766e+01
0.000000000000000000e+00 -5.292233824729919434e-02 4.601942375302314758e-03 7.451311945915222168e-01 4.985437728464603424e-03 -5.564515590667724609e-01 1.533980830572545528e-03 1.264383673667907715e+00 -7.669904152862727642e-04 1.606844812631607056e-01 1.264000177383422852e+00 9.019806981086730957e-01 -9.798302054405212402e-01 -6.097573786973953247e-02 1.295830249786376953e+00 6.174272671341896057e-02 -1.256598758697509766e+01
0.000000000000000000e+00 -5.253884196281433105e-02 5.368932615965604782e-03 7.443642020225524902e-01 5.368932615965604782e-03 -5.564515590667724609e-01 2.300971187651157379e-03 1.263616681098937988e+00 -7.669904152862727642e-04 1.603009849786758423e-01 1.264383673667907715e+00 9.023641943931579590e-01 -9.798302054405212402e-01 -6.250971555709838867e-02 1.295063257217407227e+00 6.174272671341896057e-02 -1.256598758697509766e+01
0.000000000000000000e+00 -5.253884196281433105e-02 4.601942375302314758e-03 7.443642020225524902e-01 4.985437728464603424e-03 -5.560680627822875977e-01 1.917475950904190540e-03 1.264383673667907715e+00 -1.150485593825578690e-03 1.603009849786758423e-01 1.263616681098937988e+00 9.023641943931579590e-01 -9.794467091560363770e-01 -6.174272671341896057e-02 1.295446753501892090e+00 6.174272671341896057e-02 -1.256598758697509766e+01
0.000000000000000000e+00 -5.215534567832946777e-02 4.985437728464603424e-03 7.451311945915222168e-01 5.368932615965604782e-03 -5.564515590667724609e-01 2.300971187651157379e-03 1.264383673667907715e+00 -1.150485593825578690e-03 1.603009849786758423e-01 1.264000177383422852e+00 9.019806981086730957e-01 -9.790632128715515137e-01 -6.174272671341896057e-02 1.295446753501892090e+00 6.250971555709838867e-02 -1.256598758697509766e+01
0.000000000000000000e+00 -5.292233824729919434e-02 4.601942375302314758e-03 7.447476983070373535e-01 5.368932615965604782e-03 -5.572184920310974121e-01 1.917475950904190540e-03 1.263616681098937988e+00 -7.669904152862727642e-04 1.606844812631607056e-01 1.264000177383422852e+00 9.023641943931579590e-01 -9.790632128715515137e-01 -6.174272671341896057e-02 1.295830249786376953e+00 6.174272671341896057e-02 -1.256598758697509766e+01
0.000000000000000000e+00 -5.330583080649375916e-02 4.601942375302314758e-03 7.447476983070373535e-01 5.368932615965604782e-03 -5.560680627822875977e-01 2.300971187651157379e-03 1.264000177383422852e+00 -7.669904152862727642e-04 1.603009849786758423e-01 1.263233184814453125e+00 9.023641943931579590e-01 -9.790632128715515137e-01 -6.174272671341896057e-02 1.295446753501892090e+00 6.174272671341896057e-02 -1.256598758697509766e+01
0.000000000000000000e+00 -5.292233824729919434e-02 4.985437728464603424e-03 7.443642020225524902e-01 4.985437728464603424e-03 -5.568350553512573242e-01 1.917475950904190540e-03 1.264000177383422852e+00 0.000000000000000000e+00 1.603009849786758423e-01 1.264000177383422852e+00 9.019806981086730957e-01 -9.794467091560363770e-01 -6.212622299790382385e-02 1.295446753501892090e+00 6.174272671341896057e-02 -1.256598758697509766e+01
0.000000000000000000e+00 -5.292233824729919434e-02 4.985437728464603424e-03 7.447476983070373535e-01 5.752427969127893448e-03 -5.564515590667724609e-01 1.533980830572545528e-03 1.264383673667907715e+00 -1.150485593825578690e-03 1.599175035953521729e-01 1.264383673667907715e+00 9.023641943931579590e-01 -9.798302054405212402e-01 -6.250971555709838867e-02 1.295063257217407227e+00 6.174272671341896057e-02 -1.256598758697509766e+01
0.000000000000000000e+00 -5.215534567832946777e-02 4.601942375302314758e-03 7.447476983070373535e-01 5.752427969127893448e-03 -5.560680627822875977e-01 1.917475950904190540e-03 1.264383673667907715e+00 -3.834952076431363821e-04 1.606844812631607056e-01 1.264383673667907715e+00 9.023641943931579590e-01 -9.794467091560363770e-01 -6.174272671341896057e-02 1.295446753501892090e+00 6.174272671341896057e-02 -1.256598758697509766e+01
0.000000000000000000e+00 -5.292233824729919434e-02 4.601942375302314758e-03 7.435972094535827637e-01 5.368932615965604782e-03 -5.564515590667724609e-01 2.300971187651157379e-03 1.264383673667907715e+00 -3.834952076431363821e-04 1.606844812631607056e-01 1.264000177383422852e+00 9.015972018241882324e-01 -9.790632128715515137e-01 -6.212622299790382385e-02 1.296213746070861816e+00 6.212622299790382385e-02 -1.256598758697509766e+01
0.000000000000000000e+00 -5.330583080649375916e-02 4.985437728464603424e-03 7.443642020225524902e-01 4.985437728464603424e-03 -5.560680627822875977e-01 2.684466307982802391e-03 1.263616681098937988e+00 -3.834952076431363821e-04 1.603009849786758423e-01 1.263616681098937988e+00 9.023641943931579590e-01 -9.786797165870666504e-01 -6.135923042893409729e-02 1.296213746070861816e+00 6.174272671341896057e-02 -1.256598758697509766e+01
0.000000000000000000e+00 -5.292233824729919434e-02 4.985437728464603424e-03 7.447476983070373535e-01 5.368932615965604782e-03 -5.568350553512573242e-01 1.917475950904190540e-03 1.264383673667907715e+00 -7.669904152862727642e-04 1.603009849786758423e-01 1.263233184814453125e+00 9.019806981086730957e-01 -9.786797165870666504e-01 -6.250971555709838867e-02 1.295446753501892090e+00 6.097573786973953247e-02 -1.256598758697509766e+01
0.000000000000000000e+00 -5.253884196281433105e-02 4.601942375302314758e-03 7.443642020225524902e-01 5.368932615965604782e-03 -5.564515590667724609e-01 1.917475950904190540e-03 1.264000177383422852e+00 -7.669904152862727642e-04 1.603009849786758423e-01 1.263233184814453125e+00 9.031311869621276855e-01 -9.790632128715515137e-01 -6.135923042893409729e-02 1.295063257217407227e+00 6.174272671341896057e-02 -1.256598758697509766e+01
0.000000000000000000e+00 -5.253884196281433105e-02 4.985437728464603424e-03 7.443642020225524902e-01 5.752427969127893448e-03 -5.568350553512573242e-01 2.300971187651157379e-03 1.264000177383422852e+00 -3.834952076431363821e-04 1.606844812631607056e-01 1.263616681098937988e+00 9.023641943931579590e-01 -9.786797165870666504e-01 -6.212622299790382385e-02 1.295830249786376953e+00 6.135923042893409729e-02 -1.256598758697509766e+01
0.000000000000000000e+00 -5.253884196281433105e-02 4.985437728464603424e-03 7.447476983070373535e-01 5.752427969127893448e-03 -5.564515590667724609e-01 2.300971187651157379e-03 1.264383673667907715e+00 -1.150485593825578690e-03 1.606844812631607056e-01 1.263616681098937988e+00 9.019806981086730957e-01 -9.779127240180969238e-01 -6.135923042893409729e-02 1.295063257217407227e+00 6.135923042893409729e-02 -1.256598758697509766e+01
0.000000000000000000e+00 -5.253884196281433105e-02 4.985437728464603424e-03 7.447476983070373535e-01 5.368932615965604782e-03 -5.564515590667724609e-01 1.917475950904190540e-03 1.264000177383422852e+00 -7.669904152862727642e-04 1.606844812631607056e-01 1.263616681098937988e+00 9.023641943931579590e-01 -9.782962203025817871e-01 -6.250971555709838867e-02 1.294679760932922363e+00 6.212622299790382385e-02 -1.256598758697509766e+01
0.000000000000000000e+00 -5.253884196281433105e-02 5.368932615965604782e-03 7.443642020225524902e-01 5.752427969127893448e-03 -5.564515590667724609e-01 1.533980830572545528e-03 1.264383673667907715e+00 -7.669904152862727642e-04 1.603009849786758423e-01 1.264767169952392578e+00 9.019806981086730957e-01 -9.786797165870666504e-01 -6.212622299790382385e-02 1.295063257217407227e+00 6.212622299790382385e-02 -1.256598758697509766e+01
0.000000000000000000e+00 -5.253884196281433105e-02 5.368932615965604782e-03 7.435972094535827637e-01 4.985437728464603424e-03 -5.572184920310974121e-01 1.917475950904190540e-03 1.264383673667907715e+00 -3.834952076431363821e-04 1.606844812631607056e-01 1.263616681098937988e+00 9.023641943931579590e-01 -9.779127240180969238e-01 -6.250971555709838867e-02 1.294679760932922363e+00 6.174272671341896057e-02 -1.256598758697509766e+01
0.000000000000000000e+00 -5.292233824729919434e-02 4.601942375302314758e-03 7.435972094535827637e-01 5.368932615965604782e-03 -5.553010702133178711e-01 1.533980830572545528e-03 1.264767169952392578e+00 -3.834952076431363821e-04 1.603009849786758423e-01 1.263233184814453125e+00 9.023641943931579590e-01 -9.779127240180969238e-01 -6.212622299790382385e-02 1.294679760932922363e+00 6.289321184158325195e-02 -1.256598758697509766e+01
0.000000000000000000e+00 -5.292233824729919434e-02 4.985437728464603424e-03 7.443642020225524902e-01 4.985437728464603424e-03 -5.564515590667724609e-01 2.300971187651157379e-03 1.264000177383422852e+00 -7.669904152862727642e-04 1.606844812631607056e-01 1.264767169952392578e+00 9.023641943931579590e-01 -9.771457910537719727e-01 -6.212622299790382385e-02 1.295446753501892090e+00 6.174272671341896057e-02 -1.256598758697509766e+01
0.000000000000000000e+00 -5.292233824729919434e-02 4.985437728464603424e-03 7.451311945915222168e-01 5.368932615965604782e-03 -5.560680627822875977e-01 2.684466307982802391e-03 1.264000177383422852e+00 -3.834952076431363821e-04 1.606844812631607056e-01 1.264000177383422852e+00 9.019806981086730957e-01 -9.779127240180969238e-01 -6.250971555709838867e-02 1.295446753501892090e+00 6.250971555709838867e-02 -1.256598758697509766e+01
0.000000000000000000e+00 -5.292233824729919434e-02 4.218447022140026093e-03 7.435972094535827637e-01 5.752427969127893448e-03 -5.560680627822875977e-01 2.300971187651157379e-03 1.264383673667907715e+00 -7.669904152862727642e-04 1.599175035953521729e-01 1.264000177383422852e+00 9.015972018241882324e-01 -9.771457910537719727e-01 -6.250971555709838867e-02 1.295063257217407227e+00 6.174272671341896057e-02 -1.256598758697509766e+01
0.000000000000000000e+00 -5.330583080649375916e-02 4.218447022140026093e-03 7.443642020225524902e-01 4.985437728464603424e-03 -5.564515590667724609e-01 2.684466307982802391e-03 1.264000177383422852e+00 -1.150485593825578690e-03 1.603009849786758423e-01 1.264383673667907715e+00 9.012137055397033691e-01 -9.775292277336120605e-01 -6.212622299790382385e-02 1.294679760932922363e+00 6.212622299790382385e-02 -1.256598758697509766e+01
0.000000000000000000e+00 -5.292233824729919434e-02 4.985437728464603424e-03 7.443642020225524902e-01 4.985437728464603424e-03 -5.564515590667724609e-01 2.300971187651157379e-03 1.264383673667907715e+00 -7.669904152862727642e-04 1.606844812631607056e-01 1.264383673667907715e+00 9.019806981086730957e-01 -9.775292277336120605e-01 -6.174272671341896057e-02 1.295063257217407227e+00 6.174272671341896057e-02 -1.256598758697509766e+01
0.000000000000000000e+00 -5.253884196281433105e-02 4.601942375302314758e-03 7.443642020225524902e-01 4.985437728464603424e-03 -5.564515590667724609e-01 2.300971187651157379e-03 1.264000177383422852e+00 -1.150485593825578690e-03 1.606844812631607056e-01 1.264767169952392578e+00 9.027476906776428223e-01 -9.767622947692871094e-01 -6.135923042893409729e-02 1.295446753501892090e+00 6.174272671341896057e-02 -1.256598758697509766e+01
0.000000000000000000e+00 -5.292233824729919434e-02 4.601942375302314758e-03 7.447476983070373535e-01 4.601942375302314758e-03 -5.564515590667724609e-01 1.917475950904190540e-03 1.264000177383422852e+00 -1.533980830572545528e-03 1.603009849786758423e-01 1.264000177383422852e+00 9.023641943931579590e-01 -9.775292277336120605e-01 -6.174272671341896057e-02 1.295063257217407227e+00 6.289321184158325195e-02 -1.256598758697509766e+01
0.000000000000000000e+00 -5.253884196281433105e-02 4.985437728464603424e-03 7.435972094535827637e-01 5.752427969127893448e-03 -5.560680627822875977e-01 2.300971187651157379e-03 1.264000177383422852e+00 -7.669904152862727642e-04 1.606844812631607056e-01 1.264383673667907715e+00 9.023641943931579590e-01 -9.775292277336120605e-01 -6.174272671341896057e-02 1.295446753501892090e+00 6.212622299790382385e-02 -1.256598758697509766e+01
0.000000000000000000e+00 -5.292233824729919434e-02 4.601942375302314758e-03 7.443642020225524902e-01 5.368932615965604782e-03 -5.564515590667724609e-01 1.917475950904190540e-03 1.264000177383422852e+00 -7.669904152862727642e-04 1.606844812631607056e-01 1.264000177383422852e+00 9.012137055397033691e-01 -9.775292277336120605e-01 -6.212622299790382385e-02 1.295063257217407227e+00 6.174272671341896057e-02 -1.256598758697509766e+01
0.000000000000000000e+00 -5.253884196281433105e-02 4.985437728464603424e-03 7.443642020225524902e-01 4.985437728464603424e-03 -5.560680627822875977e-01 1.917475950904190540e-03 1.264000177383422852e+00 -7.669904152862727642e-04 1.610679775476455688e-01 1.264000177383422852e+00 9.012137055397033691e-01 -9.763787984848022461e-01 -6.250971555709838867e-02 1.295446753501892090e+00 6.174272671341896057e-02 -1.256598758697509766e+01
0.000000000000000000e+00 -5.253884196281433105e-02 4.601942375302314758e-03 7.451311945915222168e-01 5.368932615965604782e-03 -5.560680627822875977e-01 2.684466307982802391e-03 1.264000177383422852e+00 -7.669904152862727642e-04 1.599175035953521729e-01 1.264767169952392578e+00 9.019806981086730957e-01 -9.771457910537719727e-01 -6.250971555709838867e-02 1.295063257217407227e+00 6.212622299790382385e-02 -1.256598758697509766e+01
0.000000000000000000e+00 -5.330583080649375916e-02 4.985437728464603424e-03 7.432137131690979004e-01 4.601942375302314758e-03 -5.568350553512573242e-01 1.917475950904190540e-03 1.264000177383422852e+00 -3.834952076431363821e-04 1.610679775476455688e-01 1.264383673667907715e+00 9.023641943931579590e-01 -9.767622947692871094e-01 -6.289321184158325195e-02 1.294679760932922363e+00 6.174272671341896057e-02 -1.256598758697509766e+01
0.000000000000000000e+00 -5.253884196281433105e-02 4.985437728464603424e-03 7.447476983070373535e-01 4.601942375302314758e-03 -5.556845664978027344e-01 1.533980830572545528e-03 1.264000177383422852e+00 -7.669904152862727642e-04 1.610679775476455688e-01 1.263616681098937988e+00 9.019806981086730957e-01 -9.771457910537719727e-01 -6.135923042893409729e-02 1.294679760932922363e+00 6.212622299790382385e-02 -1.256598758697509766e+01
0.000000000000000000e+00 -5.253884196281433105e-02 4.601942375302314758e-03 7.447476983070373535e-01 4.985437728464603424e-03 -5.564515590667724609e-01 1.917475950904190540e-03 1.264000177383422852e+00 -7.669904152862727642e-04 1.610679775476455688e-01 1.263616681098937988e+00 9.015972018241882324e-01 -9.767622947692871094e-01 -6.174272671341896057e-02 1.294296264648437500e+00 6.174272671341896057e-02 -1.256598758697509766e+01
0.000000000000000000e+00 -5.368932709097862244e-02 4.985437728464603424e-03 7.447476983070373535e-01 4.601942375302314758e-03 -5.564515590667724609e-01 2.300971187651157379e-03 1.264000177383422852e+00 -1.150485593825578690e-03 1.603009849786758423e-01 1.264767169952392578e+00 9.023641943931579590e-01 -9.771457910537719727e-01 -6.212622299790382385e-02 1.294679760932922363e+00 6.135923042893409729e-02 -1.256598758697509766e+01
0.000000000000000000e+00 -5.292233824729919434e-02 4.985437728464603424e-03 7.447476983070373535e-01 5.368932615965604782e-03 -5.564515590667724609e-01 2.300971187651157379e-03 1.263616681098937988e+00 -3.834952076431363821e-04 1.603009849786758423e-01 1.264000177383422852e+00 9.019806981086730957e-01 -9.767622947692871094e-01 -6.174272671341896057e-02 1.295446753501892090e+00 6.135923042893409729e-02 -1.256598758697509766e+01
0.000000000000000000e+00 -5.292233824729919434e-02 4.985437728464603424e-03 7.435972094535827637e-01 5.368932615965604782e-03 -5.556845664978027344e-01 2.300971187651157379e-03 1.264767169952392578e+00 -7.669904152862727642e-04 1.606844812631607056e-01 1.264383673667907715e+00 9.023641943931579590e-01 -9.767622947692871094e-01 -6.250971555709838867e-02 1.295830249786376953e+00 6.174272671341896057e-02 -1.256598758697509766e+01
0.000000000000000000e+00 -5.292233824729919434e-02 4.601942375302314758e-03 7.443642020225524902e-01 4.985437728464603424e-03 -5.556845664978027344e-01 1.917475950904190540e-03 1.264383673667907715e+00 -7.669904152862727642e-04 1.599175035953521729e-01 1.264767169952392578e+00 9.015972018241882324e-01 -9.775292277336120605e-01 -6.212622299790382385e-02 1.295063257217407227e+00 6.212622299790382385e-02 -1.256598758697509766e+01
0.000000000000000000e+00 -5.292233824729919434e-02 4.985437728464603424e-03 7.447476983070373535e-01 5.368932615965604782e-03 -5.556845664978027344e-01 1.917475950904190540e-03 1.264000177383422852e+00 -7.669904152862727642e-04 1.610679775476455688e-01 1.264383673667907715e+00 9.015972018241882324e-01 -9.767622947692871094e-01 -6.174272671341896057e-02 1.295063257217407227e+00 6.174272671341896057e-02 -1.256598758697509766e+01
0.000000000000000000e+00 -5.292233824729919434e-02 4.601942375302314758e-03 7.447476983070373535e-01 5.368932615965604782e-03 -5.560680627822875977e-01 2.300971187651157379e-03 1.264000177383422852e+00 -7.669904152862727642e-04 1.610679775476455688e-01 1.264000177383422852e+00 9.027476906776428223e-01 -9.771457910537719727e-01 -6.135923042893409729e-02 1.294679760932922363e+00 6.174272671341896057e-02 -1.256598758697509766e+01
0.000000000000000000e+00 -5.292233824729919434e-02 5.368932615965604782e-03 7.443642020225524902e-01 4.985437728464603424e-03 -5.564515590667724609e-01 2.300971187651157379e-03 1.264000177383422852e+00 -1.150485593825578690e-03 1.603009849786758423e-01 1.263616681098937988e+00 9.019806981086730957e-01 -9.767622947692871094e-01 -6.250971555709838867e-02 1.294296264648437500e+00 6.174272671341896057e-02 -1.256598758697509766e+01
0.000000000000000000e+00 -5.253884196281433105e-02 3.834951901808381081e-03 7.451311945915222168e-01 5.368932615965604782e-03 -5.560680627822875977e-01 2.300971187651157379e-03 1.264383673667907715e+00 0.000000000000000000e+00 1.603009849786758423e-01 1.264383673667907715e+00 9.019806981086730957e-01 -9.771457910537719727e-01 -6.174272671341896057e-02 1.295063257217407227e+00 6.135923042893409729e-02 -1.256598758697509766e+01
0.000000000000000000e+00 -5.292233824729919434e-02 4.985437728464603424e-03 7.435972094535827637e-01 5.368932615965604782e-03 -5.560680627822875977e-01 1.917475950904190540e-03 1.264000177383422852e+00 -3.834952076431363821e-04 1.606844812631607056e-01 1.263616681098937988e+00 9.023641943931579590e-01 -9.775292277336120605e-01 -6.135923042893409729e-02 1.295063257217407227e+00 6.174272671341896057e-02 -1.256598758697509766e+01
0.000000000000000000e+00 -5.292233824729919434e-02 4.985437728464603424e-03 7.443642020225524902e-01 4.985437728464603424e-03 -5.560680627822875977e-01 1.533980830572545528e-03 1.264000177383422852e+00 -3.834952076431363821e-04 1.599175035953521729e-01 1.264000177383422852e+00 9.027476906776428223e-01 -9.771457910537719727e-01 -6.174272671341896057e-02 1.295063257217407227e+00 6.212622299790382385e-02 -1.256598758697509766e+01
0.000000000000000000e+00 -5.292233824729919434e-02 5.368932615965604782e-03 7.443642020225524902e-01 5.368932615965604782e-03 -5.564515590667724609e-01 2.684466307982802391e-03 1.264000177383422852e+00 -7.669904152862727642e-04 1.603009849786758423e-01 1.263616681098937988e+00 9.019806981086730957e-01 -9.771457910537719727e-01 -6.250971555709838867e-02 1.294296264648437500e+00 6.250971555709838867e-02 -1.256598758697509766e+01
0.000000000000000000e+00 -5.292233824729919434e-02 5.368932615965604782e-03 7.447476983070373535e-01 4.985437728464603424e-03 -5.560680627822875977e-01 1.917475950904190540e-03 1.264383673667907715e+00 -7.669904152862727642e-04 1.603009849786758423e-01 1.263233184814453125e+00 9.023641943931579590e-01 -9.775292277336120605e-01 -6.097573786973953247e-02 1.294296264648437500e+00 6.212622299790382385e-02 -1.256598758697509766e+01
0.000000000000000000e+00 -5.292233824729919434e-02 4.218447022140026093e-03 7.443642020225524902e-01 5.368932615965604782e-03 -5.560680627822875977e-01 1.533980830572545528e-03 1.264767169952392578e+00 -3.834952076431363821e-04 1.603009849786758423e-01 1.264000177383422852e+00 9.019806981086730957e-01 -9.771457910537719727e-01 -6.174272671341896057e-02 1.294679760932922363e+00 6.135923042893409729e-02 -1.256598758697509766e+01
0.000000000000000000e+00 -5.292233824729919434e-02 4.601942375302314758e-03 7.447476983070373535e-01 5.368932615965604782e-03 -5.560680627822875977e-01 1.533980830572545528e-03 1.264767169952392578e+00 0.000000000000000000e+00 1.599175035953521729e-01 1.263616681098937988e+00 9.023641943931579590e-01 -9.775292277336120605e-01 -6.174272671341896057e-02 1.294679760932922363e+00 6.212622299790382385e-02 -1.256598758697509766e+01
0.000000000000000000e+00 -5.330583080649375916e-02 5.752427969127893448e-03 7.447476983070373535e-01 5.368932615965604782e-03 -5.564515590667724609e-01 1.917475950904190540e-03 1.263616681098937988e+00 0.000000000000000000e+00 1.591505110263824463e-01 1.263233184814453125e+00 9.027476906776428223e-01 -9.779127240180969238e-01 -6.212622299790382385e-02 1.295063257217407227e+00 6.174272671341896057e-02 -1.256598758697509766e+01
0.000000000000000000e+00 -5.253884196281433105e-02 4.601942375302314758e-03 7.447476983070373535e-01 5.752427969127893448e-03 -5.564515590667724609e-01 1.917475950904190540e-03 1.264000177383422852e+00 -3.834952076431363821e-04 1.614514738321304321e-01 1.264000177383422852e+00 9.015972018241882324e-01 -9.771457910537719727e-01 -6.212622299790382385e-02 1.295063257217407227e+00 6.212622299790382385e-02 -1.256598758697509766e+01
0.000000000000000000e+00 -5.253884196281433105e-02 4.985437728464603424e-03 7.447476983070373535e-01 4.985437728464603424e-03 -5.560680627822875977e-01 2.300971187651157379e-03 1.264000177383422852e+00 -1.150485593825578690e-03 1.606844812631607056e-01 1.263233184814453125e+00 9.023641943931579590e-01 -9.775292277336120605e-01 -6.212622299790382385e-02 1.294679760932922363e+00 6.174272671341896057e-02 -1.256598758697509766e+01
0.000000000000000000e+00 -5.215534567832946777e-02 5.368932615965604782e-03 7.443642020225524902e-01 4.601942375302314758e-03 -5.560680627822875977e-01 1.533980830572545528e-03 1.264000177383422852e+00 -3.834952076431363821e-04 1.599175035953521729e-01 1.262849688529968262e+00 9.019806981086730957e-01 -9.775292277336120605e-01 -6.212622299790382385e-02 1.294679760932922363e+00 6.174272671341896057e-02 -1.256598758697509766e+01
0.000000000000000000e+00 -5.253884196281433105e-02 5.752427969127893448e-03 7.447476983070373535e-01 4.601942375302314758e-03 -5.560680627822875977e-01 2.684466307982802391e-03 1.264000177383422852e+00 -7.669904152862727642e-04 1.610679775476455688e-01 1.263233184814453125e+00 9.023641943931579590e-01 -9.763787984848022461e-01 -6.135923042893409729e-02 1.294679760932922363e+00 6.212622299790382385e-02 -1.256598758697509766e+01
0.000000000000000000e+00 -5.253884196281433105e-02 4.601942375302314758e-03 7.443642020225524902e-01 5.368932615965604782e-03 -5.564515590667724609e-01 1.533980830572545528e-03 1.264000177383422852e+00 -1.533980830572545528e-03 1.603009849786758423e-01 1.262849688529968262e+00 9.023641943931579590e-01 -9.775292277336120605e-01 -6.250971555709838867e-02 1.295063257217407227e+00 6.212622299790382385e-02 -1.256598758697509766e+01
0.000000000000000000e+00 -5.330583080649375916e-02 4.601942375302314758e-03 7.443642020225524902e-01 5.368932615965604782e-03 -5.564515590667724609e-01 2.300971187651157379e-03 1.264383673667907715e+00 7.669904152862727642e-04 1.599175035953521729e-01 1.263616681098937988e+00 9.031311869621276855e-01 -9.775292277336120605e-01 -6.174272671341896057e-02 1.295446753501892090e+00 6.174272671341896057e-02 -1.256598758697509766e+01
0.000000000000000000e+00 -5.292233824729919434e-02 4.985437728464603424e-03 7.447476983070373535e-01 4.601942375302314758e-03 -5.556845664978027344e-01 1.917475950904190540e-03 1.264000177383422852e+00 -7.669904152862727642e-04 1.610679775476455688e-01 1.264000177383422852e+00 9.019806981086730957e-01 -9.771457910537719727e-01 -6.250971555709838867e-02 1.294679760932922363e+00 6.174272671341896057e-02 -1.256598758697509766e+01
0.000000000000000000e+00 -5.253884196281433105e-02 4.601942375302314758e-03 7.443642020225524902e-01 4.985437728464603424e-03 -5.556845664978027344e-01 2.300971187651157379e-03 1.264000177383422852e+00 -7.669904152862727642e-04 1.606844812631607056e-01 1.263233184814453125e+00 9.019806981086730957e-01 -9.779127240180969238e-01 -6.135923042893409729e-02 1.295063257217407227e+00 6.212622299790382385e-02 -1.256598758697509766e+01
0.000000000000000000e+00 -5.292233824729919434e-02 5.368932615965604782e-03 7.435972094535827637e-01 5.368932615965604782e-03 -5.564515590667724609e-01 2.300971187651157379e-03 1.264000177383422852e+00 -7.669904152862727642e-04 1.610679775476455688e-01 1.263616681098937988e+00 9.019806981086730957e-01 -9.775292277336120605e-01 -6.212622299790382385e-02 1.295446753501892090e+00 6.135923042893409729e-02 -1.256598758697509766e+01
0.000000000000000000e+00 -5.253884196281433105e-02 4.218447022140026093e-03 7.447476983070373535e-01 4.985437728464603424e-03 -5.556845664978027344e-01 2.300971187651157379e-03 1.263616681098937988e+00 -1.150485593825578690e-03 1.603009849786758423e-01 1.262849688529968262e+00 9.015972018241882324e-01 -9.775292277336120605e-01 -6.174272671341896057e-02 1.295446753501892090e+00 6.174272671341896057e-02 -1.256598758697509766e+01
0.000000000000000000e+00 -5.253884196281433105e-02 3.834951901808381081e-03 7.447476983070373535e-01 4.985437728464603424e-03 -5.556845664978027344e-01 1.917475950904190540e-03 1.264383673667907715e+00 -1.533980830572545528e-03 1.599175035953521729e-01 1.262849688529968262e+00 9.012137055397033691e-01 -9.775292277336120605e-01 -6.174272671341896057e-02 1.295830249786376953e+00 6.289321184158325195e-02 -1.256598758697509766e+01
0.000000000000000000e+00 -5.253884196281433105e-02 4.985437728464603424e-03 7.443642020225524902e-01 5.752427969127893448e-03 -5.549175739288330078e-01 2.684466307982802391e-03 1.264000177383422852e+00 -1.150485593825578690e-03 1.591505110263824463e-01 1.263233184814453125e+00 9.012137055397033691e-01 -9.775292277336120605e-01 -6.250971555709838867e-02 1.295446753501892090e+00 6.250971555709838867e-02 -1.256598758697509766e+01
0.000000000000000000e+00 -5.292233824729919434e-02 4.601942375302314758e-03 7.443642020225524902e-01 5.368932615965604782e-03 -5.560680627822875977e-01 2.300971187651157379e-03 1.264000177383422852e+00 -1.150485593825578690e-03 1.591505110263824463e-01 1.261699199676513672e+00 9.000632166862487793e-01 -9.767622947692871094e-01 -6.212622299790382385e-02 1.295063257217407227e+00 6.250971555709838867e-02 -1.256598758697509766e+01
0.000000000000000000e+00 -5.215534567832946777e-02 4.985437728464603424e-03 7.447476983070373535e-01 5.752427969127893448e-03 -5.556845664978027344e-01 1.533980830572545528e-03 1.264000177383422852e+00 -3.834952076431363821e-04 1.595340073108673096e-01 1.262082695960998535e+00 9.004467129707336426e-01 -9.775292277336120605e-01 -6.250971555709838867e-02 1.295830249786376953e+00 6.174272671341896057e-02 -1.256598758697509766e+01
0.000000000000000000e+00 -5.253884196281433105e-02 4.218447022140026093e-03 7.455146908760070801e-01 5.752427969127893448e-03 -5.560680627822875977e-01 2.684466307982802391e-03 1.264000177383422852e+00 -7.669904152862727642e-04 1.591505110263824463e-01 1.260932207107543945e+00 8.996797204017639160e-01 -9.771457910537719727e-01 -6.212622299790382385e-02 1.295830249786376953e+00 6.250971555709838867e-02 -1.256598758697509766e+01
0.000000000000000000e+00 -5.253884196281433105e-02 4.985437728464603424e-03 7.447476983070373535e-01 5.368932615965604782e-03 -5.556845664978027344e-01 1.917475950904190540e-03 1.264000177383422852e+00 -1.533980830572545528e-03 1.591505110263824463e-01 1.259781718254089355e+00 8.989127278327941895e-01 -9.775292277336120605e-01 -6.212622299790382385e-02 1.295830249786376953e+00 6.174272671341896057e-02 -1.256598758697509766e+01
0.000000000000000000e+00 -5.215534567832946777e-02 4.985437728464603424e-03 7.443642020225524902e-01 5.368932615965604782e-03 -5.560680627822875977e-01 2.300971187651157379e-03 1.264767169952392578e+00 -7.669904152862727642e-04 1.591505110263824463e-01 1.258631229400634766e+00 8.989127278327941895e-01 -9.763787984848022461e-01 -6.289321184158325195e-02 1.296213746070861816e+00 6.250971555709838867e-02 -1.256598758697509766e+01
0.000000000000000000e+00 -5.253884196281433105e-02 4.218447022140026093e-03 7.443642020225524902e-01 4.985437728464603424e-03 -5.556845664978027344e-01 1.917475950904190540e-03 1.264000177383422852e+00 -7.669904152862727642e-04 1.591505110263824463e-01 1.258631229400634766e+00 8.977622389793395996e-01 -9.763787984848022461e-01 -6.212622299790382385e-02 1.296597242355346680e+00 6.174272671341896057e-02 -1.256598758697509766e+01
0.000000000000000000e+00 -5.253884196281433105e-02 4.218447022140026093e-03 7.435972094535827637e-01 5.368932615965604782e-03 -5.556845664978027344e-01 1.917475950904190540e-03 1.264383673667907715e+00 -1.150485593825578690e-03 1.591505110263824463e-01 1.257097244262695312e+00 8.977622389793395996e-01 -9.759953022003173828e-01 -6.212622299790382385e-02 1.297364234924316406e+00 6.097573786973953247e-02 -1.256598758697509766e+01
0.000000000000000000e+00 -5.253884196281433105e-02 5.368932615965604782e-03 7.443642020225524902e-01 5.752427969127893448e-03 -5.564515590667724609e-01 1.533980830572545528e-03 1.264383673667907715e+00 -7.669904152862727642e-04 1.595340073108673096e-01 1.255946755409240723e+00 8.969952464103698730e-01 -9.756118059158325195e-01 -6.135923042893409729e-02 1.296980738639831543e+00 6.250971555709838867e-02 -1.256598758697509766e+01
0.000000000000000000e+00 -5.292233824729919434e-02 4.601942375302314758e-03 7.443642020225524902e-01 5.752427969127893448e-03 -5.556845664978027344e-01 2.300971187651157379e-03 1.263616681098937988e+00 -1.150485593825578690e-03 1.587670147418975830e-01 1.255179762840270996e+00 8.966117501258850098e-01 -9.759953022003173828e-01 -6.289321184158325195e-02 1.297747731208801270e+00 6.135923042893409729e-02 -1.256598758697509766e+01
0.000000000000000000e+00 -5.292233824729919434e-02 5.368932615965604782e-03 7.447476983070373535e-01 5.368932615965604782e-03 -5.556845664978027344e-01 2.684466307982802391e-03 1.264000177383422852e+00 0.000000000000000000e+00 1.595340073108673096e-01 1.253262281417846680e+00 8.962282538414001465e-01 -9.748448133468627930e-01 -6.289321184158325195e-02 1.298898220062255859e+00 6.212622299790382385e-02 -1.256598758697509766e+01
0.000000000000000000e+00 -5.253884196281433105e-02 4.985437728464603424e-03 7.447476983070373535e-01 5.752427969127893448e-03 -5.560680627822875977e-01 2.684466307982802391e-03 1.264383673667907715e+00 -3.834952076431363821e-04 1.591505110263824463e-01 1.252111792564392090e+00 8.950777649879455566e-01 -9.759953022003173828e-01 -6.250971555709838867e-02 1.299665212631225586e+00 6.174272671341896057e-02 -1.256598758697509766e+01
0.000000000000000000e+00 -5.215534567832946777e-02 5.752427969127893448e-03 7.443642020225524902e-01 5.368932615965604782e-03 -5.553010702133178711e-01 2.300971187651157379e-03 1.264767169952392578e+00 -3.834952076431363821e-04 1.587670147418975830e-01 1.250961303710937500e+00 8.939272761344909668e-01 -9.752283096313476562e-01 -6.250971555709838867e-02 1.300815701484680176e+00 5.982524901628494263e-02 -1.256598758697509766e+01
0.000000000000000000e+00 -5.292233824729919434e-02 5.368932615965604782e-03 7.435972094535827637e-01 5.752427969127893448e-03 -5.556845664978027344e-01 2.300971187651157379e-03 1.263616681098937988e+00 -7.669904152862727642e-04 1.587670147418975830e-01 1.248276829719543457e+00 8.927768468856811523e-01 -9.756118059158325195e-01 -6.212622299790382385e-02 1.303500175476074219e+00 5.867476388812065125e-02 -1.256598758697509766e+01
0.000000000000000000e+00 -5.253884196281433105e-02 5.368932615965604782e-03 7.447476983070373535e-01 5.752427969127893448e-03 -5.556845664978027344e-01 1.917475950904190540e-03 1.263616681098937988e+00 -3.834952076431363821e-04 1.587670147418975830e-01 1.246742844581604004e+00 8.923933506011962891e-01 -9.752283096313476562e-01 -6.135923042893409729e-02 1.305417656898498535e+00 5.522330850362777710e-02 -1.256598758697509766e+01
0.000000000000000000e+00 -5.253884196281433105e-02 4.985437728464603424e-03 7.435972094535827637e-01 5.368932615965604782e-03 -5.553010702133178711e-01 1.917475950904190540e-03 1.263233184814453125e+00 -3.834952076431363821e-04 1.587670147418975830e-01 1.244058370590209961e+00 8.912428617477416992e-01 -9.748448133468627930e-01 -6.212622299790382385e-02 1.307718634605407715e+00 5.292233824729919434e-02 -1.256598758697509766e+01
0.000000000000000000e+00 -5.215534567832946777e-02 4.985437728464603424e-03 7.443642020225524902e-01 5.368932615965604782e-03 -5.553010702133178711e-01 2.300971187651157379e-03 1.264000177383422852e+00 -7.669904152862727642e-04 1.591505110263824463e-01 1.242140889167785645e+00 8.908593654632568359e-01 -9.759953022003173828e-01 -6.212622299790382385e-02 1.310786604881286621e+00 5.062136426568031311e-02 -1.256598758697509766e+01
0.000000000000000000e+00 -5.253884196281433105e-02 4.601942375302314758e-03 7.447476983070373535e-01 4.985437728464603424e-03 -5.553010702133178711e-01 2.684466307982802391e-03 1.264000177383422852e+00 -7.669904152862727642e-04 1.583835184574127197e-01 1.239073038101196289e+00 8.885583877563476562e-01 -9.759953022003173828e-01 -6.212622299790382385e-02 1.313087582588195801e+00 4.985437542200088501e-02 -1.256598758697509766e+01
0.000000000000000000e+00 -5.253884196281433105e-02 4.601942375302314758e-03 7.447476983070373535e-01 4.985437728464603424e-03 -5.556845664978027344e-01 2.300971187651157379e-03 1.264000177383422852e+00 -7.669904152862727642e-04 1.591505110263824463e-01 1.234854578971862793e+00 8.874078989028930664e-01 -9.763787984848022461e-01 -6.212622299790382385e-02 1.315005064010620117e+00 4.908738657832145691e-02 -1.256598758697509766e+01
0.000000000000000000e+00 -5.215534567832946777e-02 4.601942375302314758e-03 7.443642020225524902e-01 5.368932615965604782e-03 -5.549175739288330078e-01 2.684466307982802391e-03 1.264000177383422852e+00 -1.150485593825578690e-03 1.587670147418975830e-01 1.233320593833923340e+00 8.870244026184082031e-01 -9.771457910537719727e-01 -6.212622299790382385e-02 1.317306041717529297e+00 4.908738657832145691e-02 -1.256598758697509766e+01
0.000000000000000000e+00 -5.253884196281433105e-02 5.368932615965604782e-03 7.447476983070373535e-01 5.368932615965604782e-03 -5.553010702133178711e-01 1.917475950904190540e-03 1.264000177383422852e+00 -3.834952076431363821e-04 1.591505110263824463e-01 1.231403112411499023e+00 8.847234249114990234e-01 -9.771457910537719727e-01 -6.289321184158325195e-02 1.318840026855468750e+00 4.870389029383659363e-02 -1.256598758697509766e+01
0.000000000000000000e+00 -5.253884196281433105e-02 4.601942375302314758e-03 7.451311945915222168e-01 5.368932615965604782e-03 -5.545340776443481445e-01 2.300971187651157379e-03 1.264000177383422852e+00 0.000000000000000000e+00 1.591505110263824463e-01 1.229102134704589844e+00 8.839564323425292969e-01 -9.775292277336120605e-01 -6.250971555709838867e-02 1.320374011993408203e+00 4.985437542200088501e-02 -1.256598758697509766e+01
0.000000000000000000e+00 -5.292233824729919434e-02 3.834951901808381081e-03 7.451311945915222168e-01 4.985437728464603424e-03 -5.549175739288330078e-01 2.300971187651157379e-03 1.264000177383422852e+00 -1.150485593825578690e-03 1.591505110263824463e-01 1.226801156997680664e+00 8.820389509201049805e-01 -9.782962203025817871e-01 -6.250971555709838867e-02 1.321907997131347656e+00 4.870389029383659363e-02 -1.256598758697509766e+01
0.000000000000000000e+00 -5.253884196281433105e-02 4.218447022140026093e-03 7.447476983070373535e-01 5.368932615965604782e-03 -5.553010702133178711e-01 1.533980830572545528e-03 1.264000177383422852e+00 -3.834952076431363821e-04 1.587670147418975830e-01 1.223349690437316895e+00 8.808884620666503906e-01 -9.794467091560363770e-01 -6.289321184158325195e-02 1.324208855628967285e+00 4.947087913751602173e-02 -1.256598758697509766e+01
0.000000000000000000e+00 -5.292233824729919434e-02 4.218447022140026093e-03 7.447476983070373535e-01 5.368932615965604782e-03 -5.545340776443481445e-01 2.300971187651157379e-03 1.263616681098937988e+00 0.000000000000000000e+00 1.591505110263824463e-01 1.220281720161437988e+00 8.797379732131958008e-01 -9.790632128715515137e-01 -6.289321184158325195e-02 1.326893329620361328e+00 4.870389029383659363e-02 -1.256598758697509766e+01
0.000000000000000000e+00 -5.253884196281433105e-02 4.985437728464603424e-03 7.447476983070373535e-01 5.368932615965604782e-03 -5.545340776443481445e-01 2.684466307982802391e-03 1.264000177383422852e+00 -3.834952076431363821e-04 1.587670147418975830e-01 1.216063261032104492e+00 8.778204917907714844e-01 -9.802137017250061035e-01 -6.289321184158325195e-02 1.330344796180725098e+00 4.870389029383659363e-02 -1.256598758697509766e+01
0.000000000000000000e+00 -5.253884196281433105e-02 4.985437728464603424e-03 7.435972094535827637e-01 5.368932615965604782e-03 -5.541505813598632812e-01 2.300971187651157379e-03 1.264000177383422852e+00 -3.834952076431363821e-04 1.591505110263824463e-01 1.212995290756225586e+00 8.762865066528320312e-01 -9.809806942939758301e-01 -6.212622299790382385e-02 1.333796262741088867e+00 4.870389029383659363e-02 -1.256598758697509766e+01
0.000000000000000000e+00 -5.292233824729919434e-02 4.601942375302314758e-03 7.451311945915222168e-01 4.985437728464603424e-03 -5.541505813598632812e-01 2.684466307982802391e-03 1.264000177383422852e+00 -1.150485593825578690e-03 1.583835184574127197e-01 1.209160327911376953e+00 8.747525215148925781e-01 -9.809806942939758301e-01 -6.212622299790382385e-02 1.336864233016967773e+00 4.870389029383659363e-02 -1.256598758697509766e+01
0.000000000000000000e+00 -5.292233824729919434e-02 5.368932615965604782e-03 7.447476983070373535e-01 4.601942375302314758e-03 -5.545340776443481445e-01 2.300971187651157379e-03 1.264767169952392578e+00 -1.150485593825578690e-03 1.591505110263824463e-01 1.205325365066528320e+00 8.736020326614379883e-01 -9.817476868629455566e-01 -6.250971555709838867e-02 1.341466188430786133e+00 4.755340516567230225e-02 -1.256598758697509766e+01
0.000000000000000000e+00 -5.330583080649375916e-02 4.985437728464603424e-03 7.447476983070373535e-01 5.368932615965604782e-03 -5.545340776443481445e-01 3.067961661145091057e-03 1.264767169952392578e+00 -7.669904152862727642e-04 1.595340073108673096e-01 1.201106905937194824e+00 8.713011145591735840e-01 -9.821311831474304199e-01 -6.212622299790382385e-02 1.345301151275634766e+00 4.755340516567230225e-02 -1.256598758697509766e+01
0.000000000000000000e+00 -5.253884196281433105e-02 4.601942375302314758e-03 7.451311945915222168e-01 5.368932615965604782e-03 -5.541505813598632812e-01 1.917475950904190540e-03 1.264000177383422852e+00 -1.150485593825578690e-03 1.583835184574127197e-01 1.197655558586120605e+00 8.693836331367492676e-01 -9.825146794319152832e-01 -6.250971555709838867e-02 1.348752617835998535e+00 4.640292003750801086e-02 -1.256598758697509766e+01
0.000000000000000000e+00 -5.253884196281433105e-02 4.601942375302314758e-03 7.447476983070373535e-01 4.985437728464603424e-03 -5.549175739288330078e-01 2.300971187651157379e-03 1.263616681098937988e+00 -1.150485593825578690e-03 1.591505110263824463e-01 1.193053603172302246e+00 8.678496479988098145e-01 -9.828981757164001465e-01 -6.212622299790382385e-02 1.352971076965332031e+00 4.601942375302314758e-02 -1.256598758697509766e+01
0.000000000000000000e+00 -5.253884196281433105e-02 4.985437728464603424e-03 7.455146908760070801e-01 5.752427969127893448e-03 -5.533835887908935547e-01 1.917475950904190540e-03 1.264000177383422852e+00 -3.834952076431363821e-04 1.587670147418975830e-01 1.189218640327453613e+00 8.663156628608703613e-01 -9.828981757164001465e-01 -6.250971555709838867e-02 1.356422543525695801e+00 4.486893862485885620e-02 -1.256598758697509766e+01
0.000000000000000000e+00 -5.253884196281433105e-02 4.985437728464603424e-03 7.435972094535827637e-01 4.985437728464603424e-03 -5.537670850753784180e-01 1.917475950904190540e-03 1.263616681098937988e+00 0.000000000000000000e+00 1.587670147418975830e-01 1.183849692344665527e+00 8.651651740074157715e-01 -9.836651682853698730e-01 -6.212622299790382385e-02 1.362174987792968750e+00 4.410194605588912964e-02 -1.256598758697509766e+01
0.000000000000000000e+00 -5.253884196281433105e-02 4.985437728464603424e-03 7.447476983070373535e-01 4.601942375302314758e-03 -5.537670850753784180e-01 1.917475950904190540e-03 1.263233184814453125e+00 -7.669904152862727642e-04 1.583835184574127197e-01 1.180014729499816895e+00 8.624807000160217285e-01 -9.836651682853698730e-01 -6.289321184158325195e-02 1.366393327713012695e+00 4.256796836853027344e-02 -1.256598758697509766e+01
0.000000000000000000e+00 -5.253884196281433105e-02 5.752427969127893448e-03 7.447476983070373535e-01 4.985437728464603424e-03 -5.537670850753784180e-01 2.300971187651157379e-03 1.264000177383422852e+00 -1.533980830572545528e-03 1.587670147418975830e-01 1.173878788948059082e+00 8.613302111625671387e-01 -9.840486645698547363e-01 -6.250971555709838867e-02 1.370995283126831055e+00 4.103398695588111877e-02 -1.256598758697509766e+01
0.000000000000000000e+00 -5.330583080649375916e-02 4.985437728464603424e-03 7.447476983070373535e-01 5.368932615965604782e-03 -5.541505813598632812e-01 1.917475950904190540e-03 1.264000177383422852e+00 -3.834952076431363821e-04 1.591505110263824463e-01 1.168893337249755859e+00 8.582622408866882324e-01 -9.844321608543395996e-01 -6.289321184158325195e-02 1.376364231109619141e+00 3.911650925874710083e-02 -1.256598758697509766e+01
0.000000000000000000e+00 -5.253884196281433105e-02 3.834951901808381081e-03 7.451311945915222168e-01 4.985437728464603424e-03 -5.541505813598632812e-01 1.917475950904190540e-03 1.264000177383422852e+00 -7.669904152862727642e-04 1.591505110263824463e-01 1.164674878120422363e+00 8.567282557487487793e-01 -9.844321608543395996e-01 -6.250971555709838867e-02 1.381349682807922363e+00 3.758252784609794617e-02 -1.256598758697509766e+01
0.000000000000000000e+00 -5.215534567832946777e-02 4.601942375302314758e-03 7.447476983070373535e-01 4.985437728464603424e-03 -5.545340776443481445e-01 1.917475950904190540e-03 1.264000177383422852e+00 -7.669904152862727642e-04 1.591505110263824463e-01 1.158922433853149414e+00 8.544272780418395996e-01 -9.848156571388244629e-01 -6.250971555709838867e-02 1.386718630790710449e+00 3.566505387425422668e-02 -1.256598758697509766e+01
0.000000000000000000e+00 -5.215534567832946777e-02 4.985437728464603424e-03 7.451311945915222168e-01 4.985437728464603424e-03 -5.545340776443481445e-01 2.300971187651157379e-03 1.264383673667907715e+00 -3.834952076431363821e-04 1.583835184574127197e-01 1.153170108795166016e+00 8.521263003349304199e-01 -9.851991534233093262e-01 -6.289321184158325195e-02 1.391704082489013672e+00 3.336408361792564392e-02 -1.256598758697509766e+01
0.000000000000000000e+00 -5.253884196281433105e-02 4.985437728464603424e-03 7.447476983070373535e-01 5.368932615965604782e-03 -5.541505813598632812e-01 2.300971187651157379e-03 1.264383673667907715e+00 -7.669904152862727642e-04 1.583835184574127197e-01 1.148568153381347656e+00 8.498253822326660156e-01 -9.848156571388244629e-01 -6.250971555709838867e-02 1.397456526756286621e+00 3.144660592079162598e-02 -1.256598758697509766e+01
0.000000000000000000e+00 -5.253884196281433105e-02 4.218447022140026093e-03 7.447476983070373535e-01 5.368932615965604782e-03 -5.545340776443481445e-01 1.533980830572545528e-03 1.264767169952392578e+00 -7.669904152862727642e-04 1.587670147418975830e-01 1.142815709114074707e+00 8.475244045257568359e-01 -9.844321608543395996e-01 -6.289321184158325195e-02 1.402825474739074707e+00 2.876213937997817993e-02 -1.256598758697509766e+01
