0.000000000000000000e+00 -5.253884196281433105e-02 4.985437728464603424e-03 7.451311945915222168e-01 5.368932615965604782e-03 -5.553010702133178711e-01 1.917475950904190540e-03 1.264383673667907715e+00 -1.150485593825578690e-03 1.610679775476455688e-01 1.265150666236877441e+00 9.027476906776428223e-01 -9.779127240180969238e-01 -6.250971555709838867e-02 1.294296264648437500e+00 6.174272671341896057e-02 -1.256598758697509766e+01
0.000000000000000000e+00 -5.253884196281433105e-02 4.601942375302314758e-03 7.443642020225524902e-01 5.752427969127893448e-03 -5.553010702133178711e-01 1.533980830572545528e-03 1.264000177383422852e+00 -1.150485593825578690e-03 1.618349701166152954e-01 1.265534162521362305e+00 9.015972018241882324e-01 -9.779127240180969238e-01 -6.212622299790382385e-02 1.294296264648437500e+00 6.250971555709838867e-02 -1.256598758697509766e+01
0.000000000000000000e+00 -5.292233824729919434e-02 5.368932615965604782e-03 7.447476983070373535e-01 5.752427969127893448e-03 -5.541505813598632812e-01 1.533980830572545528e-03 1.264000177383422852e+00 0.000000000000000000e+00 1.614514738321304321e-01 1.265534162521362305e+00 9.023641943931579590e-01 -9.782962203025817871e-01 -6.174272671341896057e-02 1.294296264648437500e+00 6.212622299790382385e-02 -1.256598758697509766e+01
0.000000000000000000e+00 -5.292233824729919434e-02 4.601942375302314758e-03 7.443642020225524902e-01 5.368932615965604782e-03 -5.549175739288330078e-01 1.917475950904190540e-03 1.264000177383422852e+00 -7.669904152862727642e-04 1.614514738321304321e-01 1.265534162521362305e+00 9.012137055397033691e-01 -9.775292277336120605e-01 -6.174272671341896057e-02 1.294296264648437500e+00 6.174272671341896057e-02 -1.256598758697509766e+01
0.000000000000000000e+00 -5.253884196281433105e-02 4.218447022140026093e-03 7.451311945915222168e-01 5.368932615965604782e-03 -5.545340776443481445e-01 2.300971187651157379e-03 1.264000177383422852e+00 0.000000000000000000e+00 1.614514738321304321e-01 1.264000177383422852e+00 9.023641943931579590e-01 -9.779127240180969238e-01 -6.174272671341896057e-02 1.294296264648437500e+00 6.250971555709838867e-02 -1.256598758697509766e+01
0.000000000000000000e+00 -5.292233824729919434e-02 4.601942375302314758e-03 7.451311945915222168e-01 4.985437728464603424e-03 -5.549175739288330078e-01 1.917475950904190540e-03 1.264383673667907715e+00 -7.669904152862727642e-04 1.610679775476455688e-01 1.265150666236877441e+00 9.019806981086730957e-01 -9.779127240180969238e-01 -6.174272671341896057e-02 1.294296264648437500e+00 6.174272671341896057e-02 -1.256598758697509766e+01
0.000000000000000000e+00 -5.253884196281433105e-02 5.368932615965604782e-03 7.443642020225524902e-01 5.752427969127893448e-03 -5.549175739288330078e-01 1.917475950904190540e-03 1.264000177383422852e+00 0.000000000000000000e+00 1.614514738321304321e-01 1.265534162521362305e+00 9.015972018241882324e-01 -9.779127240180969238e-01 -6.250971555709838867e-02 1.294296264648437500e+00 6.250971555709838867e-02 -1.256598758697509766e+01
0.000000000000000000e+00 -5.215534567832946777e-02 4.218447022140026093e-03 7.447476983070373535e-01 4.985437728464603424e-03 -5.549175739288330078e-01 2.300971187651157379e-03 1.264000177383422852e+00 -1.533980830572545528e-03 1.622184664011001587e-01 1.264767169952392578e+00 9.019806981086730957e-01 -9.771457910537719727e-01 -6.212622299790382385e-02 1.294296264648437500e+00 6.174272671341896057e-02 -1.256598758697509766e+01
0.000000000000000000e+00 -5.253884196281433105e-02 4.601942375302314758e-03 7.443642020225524902e-01 5.368932615965604782e-03 -5.553010702133178711e-01 2.300971187651157379e-03 1.264383673667907715e+00 0.000000000000000000e+00 1.610679775476455688e-01 1.265534162521362305e+00 9.023641943931579590e-01 -9.771457910537719727e-01 -6.174272671341896057e-02 1.294679760932922363e+00 6.174272671341896057e-02 -1.256598758697509766e+01
0.000000000000000000e+00 -5.292233824729919434e-02 5.368932615965604782e-03 7.447476983070373535e-01 5.368932615965604782e-03 -5.549175739288330078e-01 2.300971187651157379e-03 1.264000177383422852e+00 -3.834952076431363821e-04 1.610679775476455688e-01 1.265150666236877441e+00 9.027476906776428223e-01 -9.779127240180969238e-01 -6.135923042893409729e-02 1.294296264648437500e+00 6.212622299790382385e-02 -1.256598758697509766e+01
0.000000000000000000e+00 -5.215534567832946777e-02 5.368932615965604782e-03 7.447476983070373535e-01 5.368932615965604782e-03 -5.549175739288330078e-01 2.684466307982802391e-03 1.264383673667907715e+00 -7.669904152862727642e-04 1.614514738321304321e-01 1.264767169952392578e+00 9.023641943931579590e-01 -9.775292277336120605e-01 -6.174272671341896057e-02 1.293912768363952637e+00 6.174272671341896057e-02 -1.256598758697509766e+01
0.000000000000000000e+00 -5.292233824729919434e-02 4.985437728464603424e-03 7.447476983070373535e-01 6.135923322290182114e-03 -5.553010702133178711e-01 1.917475950904190540e-03 1.264000177383422852e+00 -7.669904152862727642e-04 1.610679775476455688e-01 1.265150666236877441e+00 9.019806981086730957e-01 -9.779127240180969238e-01 -6.212622299790382385e-02 1.293912768363952637e+00 6.135923042893409729e-02 -1.256598758697509766e+01
0.000000000000000000e+00 -5.253884196281433105e-02 4.218447022140026093e-03 7.447476983070373535e-01 4.985437728464603424e-03 -5.549175739288330078e-01 1.533980830572545528e-03 1.264383673667907715e+00 -1.150485593825578690e-03 1.618349701166152954e-01 1.264767169952392578e+00 9.019806981086730957e-01 -9.771457910537719727e-01 -6.250971555709838867e-02 1.293912768363952637e+00 6.289321184158325195e-02 -1.256598758697509766e+01
0.000000000000000000e+00 -5.292233824729919434e-02 5.368932615965604782e-03 7.443642020225524902e-01 4.985437728464603424e-03 -5.553010702133178711e-01 2.300971187651157379e-03 1.264000177383422852e+00 -1.150485593825578690e-03 1.614514738321304321e-01 1.265150666236877441e+00 9.023641943931579590e-01 -9.775292277336120605e-01 -6.135923042893409729e-02 1.294679760932922363e+00 6.174272671341896057e-02 -1.256598758697509766e+01
0.000000000000000000e+00 -5.292233824729919434e-02 5.368932615965604782e-03 7.443642020225524902e-01 5.752427969127893448e-03 -5.549175739288330078e-01 2.684466307982802391e-03 1.263616681098937988e+00 -1.533980830572545528e-03 1.606844812631607056e-01 1.264383673667907715e+00 9.019806981086730957e-01 -9.782962203025817871e-01 -6.174272671341896057e-02 1.294296264648437500e+00 6.174272671341896057e-02 -1.256598758697509766e+01
0.000000000000000000e+00 -5.253884196281433105e-02 4.601942375302314758e-03 7.451311945915222168e-01 5.368932615965604782e-03 -5.553010702133178711e-01 2.300971187651157379e-03 1.263616681098937988e+00 -7.669904152862727642e-04 1.614514738321304321e-01 1.264767169952392578e+00 9.019806981086730957e-01 -9.779127240180969238e-01 -6.212622299790382385e-02 1.293912768363952637e+00 6.135923042893409729e-02 -1.256598758697509766e+01
0.000000000000000000e+00 -5.215534567832946777e-02 4.601942375302314758e-03 7.435972094535827637e-01 5.752427969127893448e-03 -5.549175739288330078e-01 1.533980830572545528e-03 1.263616681098937988e+00 -3.834952076431363821e-04 1.614514738321304321e-01 1.265150666236877441e+00 9.023641943931579590e-01 -9.779127240180969238e-01 -6.212622299790382385e-02 1.294296264648437500e+00 6.212622299790382385e-02 -1.256598758697509766e+01
0.000000000000000000e+00 -5.253884196281433105e-02 4.601942375302314758e-03 7.455146908760070801e-01 4.601942375302314758e-03 -5.549175739288330078e-01 1.533980830572545528e-03 1.263616681098937988e+00 0.000000000000000000e+00 1.614514738321304321e-01 1.264767169952392578e+00 9.023641943931579590e-01 -9.775292277336120605e-01 -6.174272671341896057e-02 1.294679760932922363e+00 6.212622299790382385e-02 -1.256598758697509766e+01
0.000000000000000000e+00 -5.292233824729919434e-02 4.601942375302314758e-03 7.447476983070373535e-01 5.368932615965604782e-03 -5.549175739288330078e-01 1.533980830572545528e-03 1.263233184814453125e+00 0.000000000000000000e+00 1.610679775476455688e-01 1.264767169952392578e+00 9.015972018241882324e-01 -9.771457910537719727e-01 -6.212622299790382385e-02 1.294679760932922363e+00 6.135923042893409729e-02 -1.256598758697509766e+01
0.000000000000000000e+00 -5.330583080649375916e-02 4.985437728464603424e-03 7.443642020225524902e-01 5.368932615965604782e-03 -5.549175739288330078e-01 1.533980830572545528e-03 1.264000177383422852e+00 -7.669904152862727642e-04 1.610679775476455688e-01 1.264767169952392578e+00 9.019806981086730957e-01 -9.775292277336120605e-01 -6.212622299790382385e-02 1.294679760932922363e+00 6.250971555709838867e-02 -1.256598758697509766e+01
0.000000000000000000e+00 -5.330583080649375916e-02 5.368932615965604782e-03 7.447476983070373535e-01 5.368932615965604782e-03 -5.549175739288330078e-01 2.300971187651157379e-03 1.264000177383422852e+00 -7.669904152862727642e-04 1.610679775476455688e-01 1.265534162521362305e+00 9.019806981086730957e-01 -9.786797165870666504e-01 -6.174272671341896057e-02 1.293912768363952637e+00 6.174272671341896057e-02 -1.256598758697509766e+01
0.000000000000000000e+00 -5.292233824729919434e-02 4.985437728464603424e-03 7.435972094535827637e-01 4.985437728464603424e-03 -5.556845664978027344e-01 1.150485593825578690e-03 1.264383673667907715e+00 -7.669904152862727642e-04 1.614514738321304321e-01 1.264767169952392578e+00 9.019806981086730957e-01 -9.779127240180969238e-01 -6.212622299790382385e-02 1.294296264648437500e+00 6.135923042893409729e-02 -1.256598758697509766e+01
0.000000000000000000e+00 -5.292233824729919434e-02 4.985437728464603424e-03 7.447476983070373535e-01 5.368932615965604782e-03 -5.549175739288330078e-01 2.684466307982802391e-03 1.263616681098937988e+00 -7.669904152862727642e-04 1.614514738321304321e-01 1.265150666236877441e+00 9.019806981086730957e-01 -9.779127240180969238e-01 -6.212622299790382385e-02 1.293912768363952637e+00 6.135923042893409729e-02 -1.256598758697509766e+01
0.000000000000000000e+00 -5.292233824729919434e-02 4.601942375302314758e-03 7.443642020225524902e-01 5.368932615965604782e-03 -5.553010702133178711e-01 1.917475950904190540e-03 1.264000177383422852e+00 -1.150485593825578690e-03 1.614514738321304321e-01 1.265917658805847168e+00 9.019806981086730957e-01 -9.779127240180969238e-01 -6.212622299790382385e-02 1.294679760932922363e+00 6.135923042893409729e-02 -1.256598758697509766e+01
0.000000000000000000e+00 -5.330583080649375916e-02 5.368932615965604782e-03 7.443642020225524902e-01 5.368932615965604782e-03 -5.553010702133178711e-01 1.533980830572545528e-03 1.263233184814453125e+00 0.000000000000000000e+00 1.610679775476455688e-01 1.265150666236877441e+00 9.019806981086730957e-01 -9.775292277336120605e-01 -6.212622299790382385e-02 1.294679760932922363e+00 6.174272671341896057e-02 -1.256598758697509766e+01
0.000000000000000000e+00 -5.292233824729919434e-02 4.985437728464603424e-03 7.443642020225524902e-01 5.752427969127893448e-03 -5.549175739288330078e-01 1.533980830572545528e-03 1.264383673667907715e+00 -7.669904152862727642e-04 1.603009849786758423e-01 1.265150666236877441e+00 9.019806981086730957e-01 -9.779127240180969238e-01 -6.212622299790382385e-02 1.293912768363952637e+00 6.250971555709838867e-02 -1.256598758697509766e+01
0.000000000000000000e+00 -5.253884196281433105e-02 5.368932615965604782e-03 7.443642020225524902e-01 5.368932615965604782e-03 -5.553010702133178711e-01 2.300971187651157379e-03 1.264383673667907715e+00 0.000000000000000000e+00 1.610679775476455688e-01 1.264767169952392578e+00 9.019806981086730957e-01 -9.779127240180969238e-01 -6.174272671341896057e-02 1.294296264648437500e+00 6.174272671341896057e-02 -1.256598758697509766e+01
0.000000000000000000e+00 -5.292233824729919434e-02 4.985437728464603424e-03 7.447476983070373535e-01 4.601942375302314758e-03 -5.549175739288330078e-01 2.300971187651157379e-03 1.264000177383422852e+00 -3.834952076431363821e-04 1.614514738321304321e-01 1.264767169952392578e+00 9.023641943931579590e-01 -9.779127240180969238e-01 -6.135923042893409729e-02 1.294679760932922363e+00 6.174272671341896057e-02 -1.256598758697509766e+01
0.000000000000000000e+00 -5.253884196281433105e-02 4.601942375302314758e-03 7.443642020225524902e-01 6.135923322290182114e-03 -5.553010702133178711e-01 1.917475950904190540e-03 1.264383673667907715e+00 -7.669904152862727642e-04 1.606844812631607056e-01 1.265917658805847168e+00 9.015972018241882324e-01 -9.779127240180969238e-01 -6.174272671341896057e-02 1.293912768363952637e+00 6.212622299790382385e-02 -1.256598758697509766e+01
0.000000000000000000e+00 -5.292233824729919434e-02 4.601942375302314758e-03 7.451311945915222168e-01 5.368932615965604782e-03 -5.549175739288330078e-01 1.533980830572545528e-03 1.264383673667907715e+00 -7.669904152862727642e-04 1.603009849786758423e-01 1.264767169952392578e+00 9.023641943931579590e-01 -9.779127240180969238e-01 -6.212622299790382385e-02 1.294296264648437500e+00 6.212622299790382385e-02 -1.256598758697509766e+01
0.000000000000000000e+00 -5.253884196281433105e-02 4.985437728464603424e-03 7.435972094535827637e-01 5.368932615965604782e-03 -5.549175739288330078e-01 1.533980830572545528e-03 1.264383673667907715e+00 -3.834952076431363821e-04 1.610679775476455688e-01 1.265150666236877441e+00 9.023641943931579590e-01 -9.779127240180969238e-01 -6.174272671341896057e-02 1.295063257217407227e+00 6.135923042893409729e-02 -1.256598758697509766e+01
0.000000000000000000e+00 -5.253884196281433105e-02 4.601942375302314758e-03 7.435972094535827637e-01 4.601942375302314758e-03 -5.553010702133178711e-01 1.533980830572545528e-03 1.264383673667907715e+00 -7.669904152862727642e-04 1.614514738321304321e-01 1.264767169952392578e+00 9.023641943931579590e-01 -9.775292277336120605e-01 -6.174272671341896057e-02 1.293912768363952637e+00 6.135923042893409729e-02 -1.256598758697509766e+01
0.000000000000000000e+00 -5.292233824729919434e-02 4.601942375302314758e-03 7.447476983070373535e-01 4.985437728464603424e-03 -5.545340776443481445e-01 2.300971187651157379e-03 1.263233184814453125e+00 -3.834952076431363821e-04 1.618349701166152954e-01 1.264767169952392578e+00 9.027476906776428223e-01 -9.779127240180969238e-01 -6.250971555709838867e-02 1.294296264648437500e+00 6.212622299790382385e-02 -1.256598758697509766e+01
0.000000000000000000e+00 -5.253884196281433105e-02 4.601942375302314758e-03 7.447476983070373535e-01 5.368932615965604782e-03 -5.553010702133178711e-01 1.917475950904190540e-03 1.263616681098937988e+00 -7.669904152862727642e-04 1.614514738321304321e-01 1.264383673667907715e+00 9.015972018241882324e-01 -9.779127240180969238e-01 -6.250971555709838867e-02 1.294296264648437500e+00 6.212622299790382385e-02 -1.256598758697509766e+01
0.000000000000000000e+00 -5.215534567832946777e-02 4.985437728464603424e-03 7.443642020225524902e-01 4.985437728464603424e-03 -5.545340776443481445e-01 2.300971187651157379e-03 1.264383673667907715e+00 -1.150485593825578690e-03 1.614514738321304321e-01 1.264383673667907715e+00 9.023641943931579590e-01 -9.775292277336120605e-01 -6.212622299790382385e-02 1.294296264648437500e+00 6.135923042893409729e-02 -1.256598758697509766e+01
0.000000000000000000e+00 -5.292233824729919434e-02 5.368932615965604782e-03 7.451311945915222168e-01 4.985437728464603424e-03 -5.549175739288330078e-01 1.917475950904190540e-03 1.264000177383422852e+00 -7.669904152862727642e-04 1.614514738321304321e-01 1.264383673667907715e+00 9.023641943931579590e-01 -9.779127240180969238e-01 -6.289321184158325195e-02 1.294296264648437500e+00 6.212622299790382385e-02 -1.256598758697509766e+01
0.000000000000000000e+00 -5.292233824729919434e-02 4.985437728464603424e-03 7.443642020225524902e-01 5.368932615965604782e-03 -5.553010702133178711e-01 2.300971187651157379e-03 1.264383673667907715e+00 0.000000000000000000e+00 1.606844812631607056e-01 1.264383673667907715e+00 9.019806981086730957e-01 -9.775292277336120605e-01 -6.135923042893409729e-02 1.293912768363952637e+00 6.174272671341896057e-02 -1.256598758697509766e+01
0.000000000000000000e+00 -5.253884196281433105e-02 4.218447022140026093e-03 7.451311945915222168e-01 4.985437728464603424e-03 -5.556845664978027344e-01 2.684466307982802391e-03 1.264383673667907715e+00 -3.834952076431363821e-04 1.614514738321304321e-01 1.265534162521362305e+00 9.023641943931579590e-01 -9.779127240180969238e-01 -6.212622299790382385e-02 1.294296264648437500e+00 6.135923042893409729e-02 -1.256598758697509766e+01
0.000000000000000000e+00 -5.292233824729919434e-02 4.218447022140026093e-03 7.443642020225524902e-01 5.368932615965604782e-03 -5.549175739288330078e-01 1.917475950904190540e-03 1.264000177383422852e+00 -7.669904152862727642e-04 1.618349701166152954e-01 1.265150666236877441e+00 9.019806981086730957e-01 -9.782962203025817871e-01 -6.212622299790382385e-02 1.293912768363952637e+00 6.212622299790382385e-02 -1.256598758697509766e+01
0.000000000000000000e+00 -5.253884196281433105e-02 4.985437728464603424e-03 7.447476983070373535e-01 5.368932615965604782e-03 -5.549175739288330078e-01 2.300971187651157379e-03 1.264383673667907715e+00 -3.834952076431363821e-04 1.622184664011001587e-01 1.265150666236877441e+00 9.015972018241882324e-01 -9.779127240180969238e-01 -6.174272671341896057e-02 1.294296264648437500e+00 6.250971555709838867e-02 -1.256598758697509766e+01
0.000000000000000000e+00 -5.253884196281433105e-02 4.985437728464603424e-03 7.443642020225524902e-01 4.601942375302314758e-03 -5.553010702133178711e-01 1.917475950904190540e-03 1.264000177383422852e+00 -7.669904152862727642e-04 1.614514738321304321e-01 1.264383673667907715e+00 9.019806981086730957e-01 -9.779127240180969238e-01 -6.212622299790382385e-02 1.294679760932922363e+00 6.174272671341896057e-02 -1.256598758697509766e+01
0.000000000000000000e+00 -5.292233824729919434e-02 4.985437728464603424e-03 7.447476983070373535e-01 4.985437728464603424e-03 -5.553010702133178711e-01 1.917475950904190540e-03 1.263616681098937988e+00 -7.669904152862727642e-04 1.610679775476455688e-01 1.265150666236877441e+00 9.019806981086730957e-01 -9.771457910537719727e-01 -6.250971555709838867e-02 1.293145775794982910e+00 6.135923042893409729e-02 -1.256598758697509766e+01
0.000000000000000000e+00 -5.253884196281433105e-02 4.601942375302314758e-03 7.443642020225524902e-01 4.985437728464603424e-03 -5.549175739288330078e-01 2.684466307982802391e-03 1.264383673667907715e+00 -7.669904152862727642e-04 1.610679775476455688e-01 1.264383673667907715e+00 9.012137055397033691e-01 -9.775292277336120605e-01 -6.174272671341896057e-02 1.294679760932922363e+00 6.250971555709838867e-02 -1.256598758697509766e+01
0.000000000000000000e+00 -5.215534567832946777e-02 4.985437728464603424e-03 7.443642020225524902e-01 4.985437728464603424e-03 -5.556845664978027344e-01 1.533980830572545528e-03 1.264000177383422852e+00 -1.150485593825578690e-03 1.606844812631607056e-01 1.264383673667907715e+00 9.015972018241882324e-01 -9.779127240180969238e-01 -6.174272671341896057e-02 1.294679760932922363e+00 6.174272671341896057e-02 -1.256598758697509766e+01
0.000000000000000000e+00 -5.292233824729919434e-02 4.601942375302314758e-03 7.443642020225524902e-01 4.985437728464603424e-03 -5.553010702133178711e-01 2.300971187651157379e-03 1.263616681098937988e+00 -7.669904152862727642e-04 1.610679775476455688e-01 1.265917658805847168e+00 9.019806981086730957e-01 -9.775292277336120605e-01 -6.212622299790382385e-02 1.294296264648437500e+00 6.135923042893409729e-02 -1.256598758697509766e+01
0.000000000000000000e+00 -5.253884196281433105e-02 5.368932615965604782e-03 7.443642020225524902e-01 5.368932615965604782e-03 -5.553010702133178711e-01 2.300971187651157379e-03 1.264000177383422852e+00 -3.834952076431363821e-04 1.610679775476455688e-01 1.265150666236877441e+00 9.015972018241882324e-01 -9.779127240180969238e-01 -6.135923042893409729e-02 1.293912768363952637e+00 6.135923042893409729e-02 -1.256598758697509766e+01
0.000000000000000000e+00 -5.292233824729919434e-02 4.218447022140026093e-03 7.443642020225524902e-01 5.368932615965604782e-03 -5.545340776443481445e-01 1.533980830572545528e-03 1.264000177383422852e+00 -7.669904152862727642e-04 1.610679775476455688e-01 1.265150666236877441e+00 9.019806981086730957e-01 -9.779127240180969238e-01 -6.212622299790382385e-02 1.293912768363952637e+00 6.174272671341896057e-02 -1.256598758697509766e+01
0.000000000000000000e+00 -5.253884196281433105e-02 4.218447022140026093e-03 7.443642020225524902e-01 5.752427969127893448e-03 -5.549175739288330078e-01 1.917475950904190540e-03 1.264000177383422852e+00 -1.150485593825578690e-03 1.614514738321304321e-01 1.264767169952392578e+00 9.012137055397033691e-01 -9.775292277336120605e-01 -6.250971555709838867e-02 1.293912768363952637e+00 6.174272671341896057e-02 -1.256598758697509766e+01
0.000000000000000000e+00 -5.253884196281433105e-02 5.368932615965604782e-03 7.435972094535827637e-01 5.752427969127893448e-03 -5.553010702133178711e-01 1.533980830572545528e-03 1.264383673667907715e+00 -3.834952076431363821e-04 1.614514738321304321e-01 1.264383673667907715e+00 9.027476906776428223e-01 -9.775292277336120605e-01 -6.174272671341896057e-02 1.293912768363952637e+00 6.212622299790382385e-02 -1.256598758697509766e+01
0.000000000000000000e+00 -5.253884196281433105e-02 4.985437728464603424e-03 7.443642020225524902e-01 5.368932615965604782e-03 -5.549175739288330078e-01 1.917475950904190540e-03 1.264000177383422852e+00 -3.834952076431363821e-04 1.618349701166152954e-01 1.264767169952392578e+00 9.019806981086730957e-01 -9.779127240180969238e-01 -6.212622299790382385e-02 1.294296264648437500e+00 6.212622299790382385e-02 -1.256598758697509766e+01
0.000000000000000000e+00 -5.292233824729919434e-02 4.985437728464603424e-03 7.447476983070373535e-01 5.752427969127893448e-03 -5.549175739288330078e-01 1.917475950904190540e-03 1.264000177383422852e+00 -7.669904152862727642e-04 1.618349701166152954e-01 1.264767169952392578e+00 9.019806981086730957e-01 -9.771457910537719727e-01 -6.212622299790382385e-02 1.293912768363952637e+00 6.174272671341896057e-02 -1.256598758697509766e+01
0.000000000000000000e+00 -5.292233824729919434e-02 4.985437728464603424e-03 7.435972094535827637e-01 5.368932615965604782e-03 -5.549175739288330078e-01 1.533980830572545528e-03 1.264000177383422852e+00 -7.669904152862727642e-04 1.614514738321304321e-01 1.265150666236877441e+00 9.023641943931579590e-01 -9.779127240180969238e-01 -6.212622299790382385e-02 1.293912768363952637e+00 6.174272671341896057e-02 -1.256598758697509766e+01
0.000000000000000000e+00 -5.292233824729919434e-02 4.601942375302314758e-03 7.443642020225524902e-01 5.368932615965604782e-03 -5.553010702133178711e-01 1.917475950904190540e-03 1.264383673667907715e+00 -1.533980830572545528e-03 1.603009849786758423e-01 1.264767169952392578e+00 9.019806981086730957e-01 -9.779127240180969238e-01 -6.135923042893409729e-02 1.294296264648437500e+00 6.212622299790382385e-02 -1.256598758697509766e+01
0.000000000000000000e+00 -5.292233824729919434e-02 4.985437728464603424e-03 7.443642020225524902e-01 4.985437728464603424e-03 -5.545340776443481445e-01 2.300971187651157379e-03 1.263616681098937988e+00 -7.669904152862727642e-04 1.614514738321304321e-01 1.264767169952392578e+00 9.031311869621276855e-01 -9.775292277336120605e-01 -6.250971555709838867e-02 1.294296264648437500e+00 6.212622299790382385e-02 -1.256598758697509766e+01
0.000000000000000000e+00 -5.253884196281433105e-02 4.601942375302314758e-03 7.435972094535827637e-01 4.985437728464603424e-03 -5.553010702133178711e-01 2.300971187651157379e-03 1.264000177383422852e+00 -1.533980830572545528e-03 1.614514738321304321e-01 1.265150666236877441e+00 9.015972018241882324e-01 -9.771457910537719727e-01 -6.212622299790382385e-02 1.293912768363952637e+00 6.250971555709838867e-02 -1.256598758697509766e+01
0.000000000000000000e+00 -5.292233824729919434e-02 4.985437728464603424e-03 7.447476983070373535e-01 5.752427969127893448e-03 -5.553010702133178711e-01 1.917475950904190540e-03 1.264000177383422852e+00 -3.834952076431363821e-04 1.614514738321304321e-01 1.265150666236877441e+00 9.015972018241882324e-01 -9.779127240180969238e-01 -6.212622299790382385e-02 1.293912768363952637e+00 6.135923042893409729e-02 -1.256598758697509766e+01
0.000000000000000000e+00 -5.253884196281433105e-02 4.985437728464603424e-03 7.451311945915222168e-01 4.985437728464603424e-03 -5.553010702133178711e-01 1.533980830572545528e-03 1.264383673667907715e+00 -1.150485593825578690e-03 1.606844812631607056e-01 1.265150666236877441e+00 9.023641943931579590e-01 -9.775292277336120605e-01 -6.174272671341896057e-02 1.294296264648437500e+00 6.174272671341896057e-02 -1.256598758697509766e+01
0.000000000000000000e+00 -5.215534567832946777e-02 4.601942375302314758e-03 7.451311945915222168e-01 5.368932615965604782e-03 -5.553010702133178711e-01 1.917475950904190540e-03 1.264000177383422852e+00 -3.834952076431363821e-04 1.614514738321304321e-01 1.265917658805847168e+00 9.027476906776428223e-01 -9.779127240180969238e-01 -6.135923042893409729e-02 1.294296264648437500e+00 6.174272671341896057e-02 -1.256598758697509766e+01
0.000000000000000000e+00 -5.253884196281433105e-02 5.368932615965604782e-03 7.447476983070373535e-01 5.368932615965604782e-03 -5.549175739288330078e-01 1.917475950904190540e-03 1.263616681098937988e+00 -7.669904152862727642e-04 1.622184664011001587e-01 1.264767169952392578e+00 9.019806981086730957e-01 -9.775292277336120605e-01 -6.174272671341896057e-02 1.294296264648437500e+00 6.174272671341896057e-02 -1.256598758697509766e+01
0.000000000000000000e+00 -5.292233824729919434e-02 4.985437728464603424e-03 7.447476983070373535e-01 5.368932615965604782e-03 -5.545340776443481445e-01 2.684466307982802391e-03 1.264000177383422852e+00 0.000000000000000000e+00 1.614514738321304321e-01 1.264767169952392578e+00 9.019806981086730957e-01 -9.771457910537719727e-01 -6.250971555709838867e-02 1.294679760932922363e+00 6.212622299790382385e-02 -1.256598758697509766e+01
0.000000000000000000e+00 -5.215534567832946777e-02 4.601942375302314758e-03 7.447476983070373535e-01 5.752427969127893448e-03 -5.553010702133178711e-01 2.300971187651157379e-03 1.263616681098937988e+00 0.000000000000000000e+00 1.606844812631607056e-01 1.265534162521362305e+00 9.023641943931579590e-01 -9.779127240180969238e-01 -6.174272671341896057e-02 1.293912768363952637e+00 6.174272671341896057e-02 -1.256598758697509766e+01
0.000000000000000000e+00 -5.292233824729919434e-02 4.601942375302314758e-03 7.443642020225524902e-01 4.985437728464603424e-03 -5.549175739288330078e-01 2.300971187651157379e-03 1.264000177383422852e+00 -7.669904152862727642e-04 1.626019626855850220e-01 1.265150666236877441e+00 9.023641943931579590e-01 -9.779127240180969238e-01 -6.174272671341896057e-02 1.294296264648437500e+00 6.174272671341896057e-02 -1.256598758697509766e+01
0.000000000000000000e+00 -5.253884196281433105e-02 4.601942375302314758e-03 7.447476983070373535e-01 4.985437728464603424e-03 -5.549175739288330078e-01 1.917475950904190540e-03 1.264383673667907715e+00 -3.834952076431363821e-04 1.606844812631607056e-01 1.265534162521362305e+00 9.023641943931579590e-01 -9.775292277336120605e-01 -6.212622299790382385e-02 1.294296264648437500e+00 6.174272671341896057e-02 -1.256598758697509766e+01
0.000000000000000000e+00 -5.292233824729919434e-02 4.985437728464603424e-03 7.435972094535827637e-01 5.368932615965604782e-03 -5.549175739288330078e-01 2.300971187651157379e-03 1.264000177383422852e+00 0.000000000000000000e+00 1.610679775476455688e-01 1.265150666236877441e+00 9.019806981086730957e-01 -9.782962203025817871e-01 -6.212622299790382385e-02 1.293912768363952637e+00 6.250971555709838867e-02 -1.256598758697509766e+01
0.000000000000000000e+00 -5.253884196281433105e-02 5.368932615965604782e-03 7.435972094535827637e-01 6.519418209791183472e-03 -5.545340776443481445e-01 2.300971187651157379e-03 1.264000177383422852e+00 -3.834952076431363821e-04 1.610679775476455688e-01 1.264767169952392578e+00 9.019806981086730957e-01 -9.779127240180969238e-01 -6.212622299790382385e-02 1.295063257217407227e+00 6.212622299790382385e-02 -1.256598758697509766e+01
0.000000000000000000e+00 -5.253884196281433105e-02 4.985437728464603424e-03 7.451311945915222168e-01 5.368932615965604782e-03 -5.556845664978027344e-01 2.300971187651157379e-03 1.264383673667907715e+00 -7.669904152862727642e-04 1.614514738321304321e-01 1.265150666236877441e+00 9.019806981086730957e-01 -9.775292277336120605e-01 -6.174272671341896057e-02 1.293912768363952637e+00 6.174272671341896057e-02 -1.256598758697509766e+01
0.000000000000000000e+00 -5.253884196281433105e-02 5.368932615965604782e-03 7.443642020225524902e-01 4.985437728464603424e-03 -5.549175739288330078e-01 1.917475950904190540e-03 1.264000177383422852e+00 -1.150485593825578690e-03 1.614514738321304321e-01 1.264767169952392578e+00 9.012137055397033691e-01 -9.775292277336120605e-01 -6.174272671341896057e-02 1.294296264648437500e+00 6.212622299790382385e-02 -1.256598758697509766e+01
0.000000000000000000e+00 -5.292233824729919434e-02 4.601942375302314758e-03 7.447476983070373535e-01 5.368932615965604782e-03 -5.553010702133178711e-01 1.917475950904190540e-03 1.264000177383422852e+00 -1.533980830572545528e-03 1.610679775476455688e-01 1.264767169952392578e+00 9.015972018241882324e-01 -9.771457910537719727e-01 -6.174272671341896057e-02 1.293912768363952637e+00 6.250971555709838867e-02 -1.256598758697509766e+01
0.000000000000000000e+00 -5.253884196281433105e-02 4.601942375302314758e-03 7.447476983070373535e-01 4.601942375302314758e-03 -5.549175739288330078e-01 1.533980830572545528e-03 1.264000177383422852e+00 -3.834952076431363821e-04 1.614514738321304321e-01 1.264383673667907715e+00 9.015972018241882324e-01 -9.775292277336120605e-01 -6.212622299790382385e-02 1.293912768363952637e+00 6.135923042893409729e-02 -1.256598758697509766e+01
0.000000000000000000e+00 -5.253884196281433105e-02 4.985437728464603424e-03 7.447476983070373535e-01 4.985437728464603424e-03 -5.549175739288330078e-01 2.300971187651157379e-03 1.264000177383422852e+00 -3.834952076431363821e-04 1.614514738321304321e-01 1.264383673667907715e+00 9.019806981086730957e-01 -9.779127240180969238e-01 -6.212622299790382385e-02 1.294679760932922363e+00 6.174272671341896057e-02 -1.256598758697509766e+01
0.000000000000000000e+00 -5.292233824729919434e-02 4.601942375302314758e-03 7.451311945915222168e-01 5.752427969127893448e-03 -5.556845664978027344e-01 1.917475950904190540e-03 1.263616681098937988e+00 -1.150485593825578690e-03 1.614514738321304321e-01 1.265150666236877441e+00 9.027476906776428223e-01 -9.782962203025817871e-01 -6.250971555709838867e-02 1.294679760932922363e+00 6.250971555709838867e-02 -1.256598758697509766e+01
0.000000000000000000e+00 -5.292233824729919434e-02 4.601942375302314758e-03 7.447476983070373535e-01 4.985437728464603424e-03 -5.549175739288330078e-01 1.917475950904190540e-03 1.264000177383422852e+00 -1.150485593825578690e-03 1.618349701166152954e-01 1.265534162521362305e+00 9.019806981086730957e-01 -9.779127240180969238e-01 -6.135923042893409729e-02 1.294679760932922363e+00 6.174272671341896057e-02 -1.256598758697509766e+01
0.000000000000000000e+00 -5.253884196281433105e-02 4.985437728464603424e-03 7.451311945915222168e-01 4.601942375302314758e-03 -5.556845664978027344e-01 1.533980830572545528e-03 1.264383673667907715e+00 -7.669904152862727642e-04 1.614514738321304321e-01 1.264383673667907715e+00 9.027476906776428223e-01 -9.775292277336120605e-01 -6.174272671341896057e-02 1.294296264648437500e+00 6.174272671341896057e-02 -1.256598758697509766e+01
0.000000000000000000e+00 -5.330583080649375916e-02 5.368932615965604782e-03 7.443642020225524902e-01 5.752427969127893448e-03 -5.549175739288330078e-01 1.917475950904190540e-03 1.264000177383422852e+00 -1.150485593825578690e-03 1.610679775476455688e-01 1.265150666236877441e+00 9.027476906776428223e-01 -9.779127240180969238e-01 -6.174272671341896057e-02 1.294296264648437500e+00 6.174272671341896057e-02 -1.256598758697509766e+01
0.000000000000000000e+00 -5.292233824729919434e-02 4.601942375302314758e-03 7.443642020225524902e-01 5.368932615965604782e-03 -5.549175739288330078e-01 1.917475950904190540e-03 1.263616681098937988e+00 -7.669904152862727642e-04 1.606844812631607056e-01 1.265917658805847168e+00 9.019806981086730957e-01 -9.771457910537719727e-01 -6.174272671341896057e-02 1.294296264648437500e+00 6.174272671341896057e-02 -1.256598758697509766e+01
0.000000000000000000e+00 -5.253884196281433105e-02 4.218447022140026093e-03 7.447476983070373535e-01 4.985437728464603424e-03 -5.556845664978027344e-01 2.300971187651157379e-03 1.264383673667907715e+00 -3.834952076431363821e-04 1.618349701166152954e-01 1.264767169952392578e+00 9.019806981086730957e-01 -9.775292277336120605e-01 -6.174272671341896057e-02 1.294296264648437500e+00 6.135923042893409729e-02 -1.256598758697509766e+01
0.000000000000000000e+00 -5.215534567832946777e-02 4.985437728464603424e-03 7.443642020225524902e-01 4.985437728464603424e-03 -5.553010702133178711e-01 1.917475950904190540e-03 1.263616681098937988e+00 -1.150485593825578690e-03 1.610679775476455688e-01 1.265534162521362305e+00 9.019806981086730957e-01 -9.771457910537719727e-01 -6.212622299790382385e-02 1.293912768363952637e+00 6.174272671341896057e-02 -1.256598758697509766e+01
0.000000000000000000e+00 -5.253884196281433105e-02 5.368932615965604782e-03 7.451311945915222168e-01 4.985437728464603424e-03 -5.556845664978027344e-01 2.300971187651157379e-03 1.264767169952392578e+00 -7.669904152862727642e-04 1.614514738321304321e-01 1.264767169952392578e+00 9.019806981086730957e-01 -9.782962203025817871e-01 -6.212622299790382385e-02 1.293529272079467773e+00 6.212622299790382385e-02 -1.256598758697509766e+01
0.000000000000000000e+00 -5.253884196281433105e-02 4.985437728464603424e-03 7.443642020225524902e-01 4.985437728464603424e-03 -5.553010702133178711e-01 1.917475950904190540e-03 1.264383673667907715e+00 -7.669904152862727642e-04 1.610679775476455688e-01 1.265917658805847168e+00 9.019806981086730957e-01 -9.779127240180969238e-01 -6.250971555709838867e-02 1.295063257217407227e+00 6.174272671341896057e-02 -1.256598758697509766e+01
0.000000000000000000e+00 -5.253884196281433105e-02 4.985437728464603424e-03 7.447476983070373535e-01 5.752427969127893448e-03 -5.549175739288330078e-01 1.533980830572545528e-03 1.264383673667907715e+00 -7.669904152862727642e-04 1.606844812631607056e-01 1.264767169952392578e+00 9.015972018241882324e-01 -9.775292277336120605e-01 -6.174272671341896057e-02 1.293912768363952637e+00 6.135923042893409729e-02 -1.256598758697509766e+01
0.000000000000000000e+00 -5.253884196281433105e-02 4.218447022140026093e-03 7.443642020225524902e-01 5.752427969127893448e-03 -5.545340776443481445e-01 1.917475950904190540e-03 1.264383673667907715e+00 -7.669904152862727642e-04 1.610679775476455688e-01 1.265534162521362305e+00 9.027476906776428223e-01 -9.779127240180969238e-01 -6.327670812606811523e-02 1.294296264648437500e+00 6.174272671341896057e-02 -1.256598758697509766e+01
0.000000000000000000e+00 -5.215534567832946777e-02 4.601942375302314758e-03 7.443642020225524902e-01 5.368932615965604782e-03 -5.549175739288330078e-01 1.533980830572545528e-03 1.264383673667907715e+00 -1.150485593825578690e-03 1.610679775476455688e-01 1.264000177383422852e+00 9.023641943931579590e-01 -9.782962203025817871e-01 -6.174272671341896057e-02 1.294296264648437500e+00 6.135923042893409729e-02 -1.256598758697509766e+01
0.000000000000000000e+00 -5.292233824729919434e-02 4.601942375302314758e-03 7.435972094535827637e-01 4.985437728464603424e-03 -5.560680627822875977e-01 1.917475950904190540e-03 1.264000177383422852e+00 -3.834952076431363821e-04 1.610679775476455688e-01 1.264767169952392578e+00 9.015972018241882324e-01 -9.771457910537719727e-01 -6.097573786973953247e-02 1.294296264648437500e+00 6.250971555709838867e-02 -1.256598758697509766e+01
0.000000000000000000e+00 -5.292233824729919434e-02 5.368932615965604782e-03 7.443642020225524902e-01 4.985437728464603424e-03 -5.553010702133178711e-01 1.533980830572545528e-03 1.264000177383422852e+00 -7.669904152862727642e-04 1.610679775476455688e-01 1.265534162521362305e+00 9.019806981086730957e-01 -9.775292277336120605e-01 -6.250971555709838867e-02 1.294296264648437500e+00 6.212622299790382385e-02 -1.256598758697509766e+01
0.000000000000000000e+00 -5.253884196281433105e-02 4.601942375302314758e-03 7.451311945915222168e-01 4.985437728464603424e-03 -5.553010702133178711e-01 1.917475950904190540e-03 1.264000177383422852e+00 -7.669904152862727642e-04 1.606844812631607056e-01 1.264767169952392578e+00 9.012137055397033691e-01 -9.775292277336120605e-01 -6.250971555709838867e-02 1.293912768363952637e+00 6.174272671341896057e-02 -1.256598758697509766e+01
0.000000000000000000e+00 -5.292233824729919434e-02 4.985437728464603424e-03 7.443642020225524902e-01 5.368932615965604782e-03 -5.553010702133178711e-01 2.300971187651157379e-03 1.263616681098937988e+00 -1.150485593825578690e-03 1.606844812631607056e-01 1.264767169952392578e+00 9.023641943931579590e-01 -9.775292277336120605e-01 -6.212622299790382385e-02 1.293912768363952637e+00 6.327670812606811523e-02 -1.256598758697509766e+01
0.000000000000000000e+00 -5.215534567832946777e-02 4.601942375302314758e-03 7.443642020225524902e-01 4.985437728464603424e-03 -5.549175739288330078e-01 7.669904152862727642e-04 1.264000177383422852e+00 -7.669904152862727642e-04 1.610679775476455688e-01 1.264383673667907715e+00 9.023641943931579590e-01 -9.771457910537719727e-01 -6.289321184158325195e-02 1.293145775794982910e+00 6.212622299790382385e-02 -1.256598758697509766e+01
0.000000000000000000e+00 -5.253884196281433105e-02 4.985437728464603424e-03 7.443642020225524902e-01 4.985437728464603424e-03 -5.556845664978027344e-01 2.300971187651157379e-03 1.264383673667907715e+00 -7.669904152862727642e-04 1.626019626855850220e-01 1.265150666236877441e+00 9.023641943931579590e-01 -9.775292277336120605e-01 -6.212622299790382385e-02 1.293529272079467773e+00 6.174272671341896057e-02 -1.256598758697509766e+01
0.000000000000000000e+00 -5.253884196281433105e-02 4.601942375302314758e-03 7.443642020225524902e-01 5.368932615965604782e-03 -5.556845664978027344e-01 1.917475950904190540e-03 1.264000177383422852e+00 -7.669904152862727642e-04 1.610679775476455688e-01 1.264767169952392578e+00 9.015972018241882324e-01 -9.771457910537719727e-01 -6.174272671341896057e-02 1.294296264648437500e+00 6.212622299790382385e-02 -1.256598758697509766e+01
0.000000000000000000e+00 -5.292233824729919434e-02 4.218447022140026093e-03 7.447476983070373535e-01 4.985437728464603424e-03 -5.553010702133178711e-01 1.533980830572545528e-03 1.264000177383422852e+00 -3.834952076431363821e-04 1.614514738321304321e-01 1.265534162521362305e+00 9.019806981086730957e-01 -9.779127240180969238e-01 -6.174272671341896057e-02 1.294679760932922363e+00 6.212622299790382385e-02 -1.256598758697509766e+01
0.000000000000000000e+00 -5.292233824729919434e-02 4.601942375302314758e-03 7.432137131690979004e-01 4.985437728464603424e-03 -5.553010702133178711e-01 1.917475950904190540e-03 1.263616681098937988e+00 -7.669904152862727642e-04 1.618349701166152954e-01 1.265150666236877441e+00 9.027476906776428223e-01 -9.767622947692871094e-01 -6.250971555709838867e-02 1.294296264648437500e+00 6.212622299790382385e-02 -1.256598758697509766e+01
0.000000000000000000e+00 -5.292233824729919434e-02 5.368932615965604782e-03 7.435972094535827637e-01 4.985437728464603424e-03 -5.553010702133178711e-01 2.300971187651157379e-03 1.264383673667907715e+00 -7.669904152862727642e-04 1.614514738321304321e-01 1.264767169952392578e+00 9.015972018241882324e-01 -9.779127240180969238e-01 -6.174272671341896057e-02 1.294296264648437500e+00 6.250971555709838867e-02 -1.256598758697509766e+01
0.000000000000000000e+00 -5.253884196281433105e-02 4.601942375302314758e-03 7.443642020225524902e-01 5.752427969127893448e-03 -5.549175739288330078e-01 2.300971187651157379e-03 1.264000177383422852e+00 -7.669904152862727642e-04 1.614514738321304321e-01 1.264767169952392578e+00 9.012137055397033691e-01 -9.775292277336120605e-01 -6.212622299790382385e-02 1.294296264648437500e+00 6.250971555709838867e-02 -1.256598758697509766e+01
0.000000000000000000e+00 -5.253884196281433105e-02 3.834951901808381081e-03 7.447476983070373535e-01 5.368932615965604782e-03 -5.545340776443481445e-01 2.300971187651157379e-03 1.264000177383422852e+00 -3.834952076431363821e-04 1.618349701166152954e-01 1.265534162521362305e+00 9.023641943931579590e-01 -9.775292277336120605e-01 -6.212622299790382385e-02 1.294296264648437500e+00 6.212622299790382385e-02 -1.256598758697509766e+01
0.000000000000000000e+00 -5.253884196281433105e-02 4.601942375302314758e-03 7.447476983070373535e-01 5.752427969127893448e-03 -5.545340776443481445e-01 1.917475950904190540e-03 1.264767169952392578e+00 0.000000000000000000e+00 1.614514738321304321e-01 1.265534162521362305e+00 9.019806981086730957e-01 -9.771457910537719727e-01 -6.250971555709838867e-02 1.294679760932922363e+00 6.174272671341896057e-02 -1.256598758697509766e+01
0.000000000000000000e+00 -5.253884196281433105e-02 4.601942375302314758e-03 7.451311945915222168e-01 5.368932615965604782e-03 -5.549175739288330078e-01 2.300971187651157379e-03 1.264000177383422852e+00 -7.669904152862727642e-04 1.614514738321304321e-01 1.265150666236877441e+00 9.023641943931579590e-01 -9.779127240180969238e-01 -6.174272671341896057e-02 1.294296264648437500e+00 6.174272671341896057e-02 -1.256598758697509766e+01
0.000000000000000000e+00 -5.253884196281433105e-02 4.985437728464603424e-03 7.443642020225524902e-01 5.368932615965604782e-03 -5.549175739288330078e-01 1.917475950904190540e-03 1.264000177383422852e+00 -1.150485593825578690e-03 1.614514738321304321e-01 1.265150666236877441e+00 9.019806981086730957e-01 -9.779127240180969238e-01 -6.289321184158325195e-02 1.293529272079467773e+00 6.289321184158325195e-02 -1.256598758697509766e+01
0.000000000000000000e+00 -5.215534567832946777e-02 5.368932615965604782e-03 7.451311945915222168e-01 5.368932615965604782e-03 -5.553010702133178711e-01 1.917475950904190540e-03 1.264383673667907715e+00 -7.669904152862727642e-04 1.622184664011001587e-01 1.264767169952392578e+00 9.019806981086730957e-01 -9.771457910537719727e-01 -6.212622299790382385e-02 1.293912768363952637e+00 6.289321184158325195e-02 -1.256598758697509766e+01
0.000000000000000000e+00 -5.253884196281433105e-02 4.985437728464603424e-03 7.447476983070373535e-01 5.368932615965604782e-03 -5.553010702133178711e-01 2.300971187651157379e-03 1.264000177383422852e+00 0.000000000000000000e+00 1.610679775476455688e-01 1.265150666236877441e+00 9.023641943931579590e-01 -9.779127240180969238e-01 -6.174272671341896057e-02 1.293912768363952637e+00 6.212622299790382385e-02 -1.256598758697509766e+01
0.000000000000000000e+00 -5.253884196281433105e-02 4.985437728464603424e-03 7.447476983070373535e-01 4.985437728464603424e-03 -5.549175739288330078e-01 2.300971187651157379e-03 1.264383673667907715e+00 -7.669904152862727642e-04 1.606844812631607056e-01 1.265150666236877441e+00 9.023641943931579590e-01 -9.779127240180969238e-01 -6.212622299790382385e-02 1.293912768363952637e+00 6.250971555709838867e-02 -1.256598758697509766e+01
0.000000000000000000e+00 -5.292233824729919434e-02 4.985437728464603424e-03 7.435972094535827637e-01 6.135923322290182114e-03 -5.545340776443481445e-01 2.300971187651157379e-03 1.263616681098937988e+00 -1.150485593825578690e-03 1.618349701166152954e-01 1.265534162521362305e+00 9.027476906776428223e-01 -9.775292277336120605e-01 -6.174272671341896057e-02 1.295063257217407227e+00 6.212622299790382385e-02 -1.256598758697509766e+01
0.000000000000000000e+00 -5.292233824729919434e-02 4.985437728464603424e-03 7.435972094535827637e-01 5.752427969127893448e-03 -5.553010702133178711e-01 1.917475950904190540e-03 1.264383673667907715e+00 -7.669904152862727642e-04 1.618349701166152954e-01 1.265150666236877441e+00 9.019806981086730957e-01 -9.779127240180969238e-01 -6.174272671341896057e-02 1.293912768363952637e+00 6.212622299790382385e-02 -1.256598758697509766e+01
0.000000000000000000e+00 -5.292233824729919434e-02 5.368932615965604782e-03 7.451311945915222168e-01 5.368932615965604782e-03 -5.560680627822875977e-01 1.533980830572545528e-03 1.264000177383422852e+00 -7.669904152862727642e-04 1.614514738321304321e-01 1.265917658805847168e+00 9.015972018241882324e-01 -9.775292277336120605e-01 -6.250971555709838867e-02 1.295063257217407227e+00 6.212622299790382385e-02 -1.256598758697509766e+01
0.000000000000000000e+00 -5.330583080649375916e-02 4.985437728464603424e-03 7.443642020225524902e-01 4.985437728464603424e-03 -5.545340776443481445e-01 1.917475950904190540e-03 1.264000177383422852e+00 -1.150485593825578690e-03 1.614514738321304321e-01 1.264767169952392578e+00 9.023641943931579590e-01 -9.779127240180969238e-01 -6.250971555709838867e-02 1.294296264648437500e+00 6.250971555709838867e-02 -1.256598758697509766e+01
0.000000000000000000e+00 -5.177185311913490295e-02 3.834951901808381081e-03 7.447476983070373535e-01 5.368932615965604782e-03 -5.545340776443481445e-01 2.300971187651157379e-03 1.263616681098937988e+00 -1.150485593825578690e-03 1.614514738321304321e-01 1.265534162521362305e+00 9.019806981086730957e-01 -9.771457910537719727e-01 -6.212622299790382385e-02 1.294296264648437500e+00 6.174272671341896057e-02 -1.256598758697509766e+01
0.000000000000000000e+00 -5.215534567832946777e-02 4.601942375302314758e-03 7.447476983070373535e-01 5.368932615965604782e-03 -5.556845664978027344e-01 1.917475950904190540e-03 1.264000177383422852e+00 -7.669904152862727642e-04 1.618349701166152954e-01 1.265150666236877441e+00 9.023641943931579590e-01 -9.775292277336120605e-01 -6.174272671341896057e-02 1.294679760932922363e+00 6.135923042893409729e-02 -1.256598758697509766e+01
0.000000000000000000e+00 -5.215534567832946777e-02 4.985437728464603424e-03 7.447476983070373535e-01 5.368932615965604782e-03 -5.553010702133178711e-01 1.533980830572545528e-03 1.264383673667907715e+00 -3.834952076431363821e-04 1.610679775476455688e-01 1.264767169952392578e+00 9.015972018241882324e-01 -9.771457910537719727e-01 -6.212622299790382385e-02 1.293912768363952637e+00 6.174272671341896057e-02 -1.256598758697509766e+01
0.000000000000000000e+00 -5.292233824729919434e-02 4.985437728464603424e-03 7.443642020225524902e-01 5.368932615965604782e-03 -5.553010702133178711e-01 2.300971187651157379e-03 1.264000177383422852e+00 -7.669904152862727642e-04 1.610679775476455688e-01 1.264767169952392578e+00 9.023641943931579590e-01 -9.771457910537719727e-01 -6.174272671341896057e-02 1.293912768363952637e+00 6.250971555709838867e-02 -1.256598758697509766e+01
0.000000000000000000e+00 -5.253884196281433105e-02 4.985437728464603424e-03 7.447476983070373535e-01 5.368932615965604782e-03 -5.553010702133178711e-01 1.917475950904190540e-03 1.264000177383422852e+00 0.000000000000000000e+00 1.606844812631607056e-01 1.265534162521362305e+00 9.019806981086730957e-01 -9.771457910537719727e-01 -6.174272671341896057e-02 1.294296264648437500e+00 6.135923042893409729e-02 -1.256598758697509766e+01
0.000000000000000000e+00 -5.253884196281433105e-02 4.601942375302314758e-03 7.447476983070373535e-01 5.368932615965604782e-03 -5.556845664978027344e-01 1.917475950904190540e-03 1.264000177383422852e+00 -3.834952076431363821e-04 1.618349701166152954e-01 1.265534162521362305e+00 9.015972018241882324e-01 -9.771457910537719727e-01 -6.250971555709838867e-02 1.294296264648437500e+00 6.174272671341896057e-02 -1.256598758697509766e+01
0.000000000000000000e+00 -5.253884196281433105e-02 5.368932615965604782e-03 7.443642020225524902e-01 5.752427969127893448e-03 -5.549175739288330078e-01 2.300971187651157379e-03 1.264383673667907715e+00 -7.669904152862727642e-04 1.614514738321304321e-01 1.265534162521362305e+00 9.008302092552185059e-01 -9.782962203025817871e-01 -6.250971555709838867e-02 1.294296264648437500e+00 6.174272671341896057e-02 -1.256598758697509766e+01
0.000000000000000000e+00 -5.215534567832946777e-02 4.985437728464603424e-03 7.447476983070373535e-01 5.368932615965604782e-03 -5.553010702133178711e-01 1.917475950904190540e-03 1.263616681098937988e+00 -7.669904152862727642e-04 1.614514738321304321e-01 1.264767169952392578e+00 9.019806981086730957e-01 -9.782962203025817871e-01 -6.250971555709838867e-02 1.294296264648437500e+00 6.174272671341896057e-02 -1.256598758697509766e+01
0.000000000000000000e+00 -5.253884196281433105e-02 4.601942375302314758e-03 7.435972094535827637e-01 5.752427969127893448e-03 -5.549175739288330078e-01 2.300971187651157379e-03 1.264383673667907715e+00 -7.669904152862727642e-04 1.610679775476455688e-01 1.265534162521362305e+00 9.027476906776428223e-01 -9.775292277336120605e-01 -6.212622299790382385e-02 1.294296264648437500e+00 6.174272671341896057e-02 -1.256598758697509766e+01
0.000000000000000000e+00 -5.215534567832946777e-02 4.985437728464603424e-03 7.435972094535827637e-01 5.368932615965604782e-03 -5.553010702133178711e-01 1.533980830572545528e-03 1.263616681098937988e+00 -1.533980830572545528e-03 1.603009849786758423e-01 1.265150666236877441e+00 9.023641943931579590e-01 -9.775292277336120605e-01 -6.212622299790382385e-02 1.294296264648437500e+00 6.212622299790382385e-02 -1.256598758697509766e+01
0.000000000000000000e+00 -5.292233824729919434e-02 4.601942375302314758e-03 7.443642020225524902e-01 5.752427969127893448e-03 -5.556845664978027344e-01 2.300971187651157379e-03 1.263616681098937988e+00 -3.834952076431363821e-04 1.606844812631607056e-01 1.265534162521362305e+00 9.019806981086730957e-01 -9.779127240180969238e-01 -6.250971555709838867e-02 1.294296264648437500e+00 6.212622299790382385e-02 -1.256598758697509766e+01
0.000000000000000000e+00 -5.253884196281433105e-02 4.601942375302314758e-03 7.443642020225524902e-01 5.368932615965604782e-03 -5.553010702133178711e-01 2.300971187651157379e-03 1.263616681098937988e+00 -7.669904152862727642e-04 1.614514738321304321e-01 1.264383673667907715e+00 9.019806981086730957e-01 -9.775292277336120605e-01 -6.135923042893409729e-02 1.294679760932922363e+00 6.174272671341896057e-02 -1.256598758697509766e+01
0.000000000000000000e+00 -5.292233824729919434e-02 4.601942375302314758e-03 7.443642020225524902e-01 5.368932615965604782e-03 -5.556845664978027344e-01 2.300971187651157379e-03 1.264000177383422852e+00 -1.150485593825578690e-03 1.622184664011001587e-01 1.264383673667907715e+00 9.008302092552185059e-01 -9.782962203025817871e-01 -6.174272671341896057e-02 1.294679760932922363e+00 6.174272671341896057e-02 -1.256598758697509766e+01
0.000000000000000000e+00 -5.292233824729919434e-02 4.985437728464603424e-03 7.447476983070373535e-01 5.752427969127893448e-03 -5.556845664978027344e-01 2.300971187651157379e-03 1.264000177383422852e+00 -1.150485593825578690e-03 1.610679775476455688e-01 1.264767169952392578e+00 9.019806981086730957e-01 -9.767622947692871094e-01 -6.212622299790382385e-02 1.293912768363952637e+00 6.212622299790382385e-02 -1.256598758697509766e+01
0.000000000000000000e+00 -5.253884196281433105e-02 4.985437728464603424e-03 7.447476983070373535e-01 5.368932615965604782e-03 -5.556845664978027344e-01 1.917475950904190540e-03 1.264000177383422852e+00 -1.533980830572545528e-03 1.614514738321304321e-01 1.264383673667907715e+00 9.023641943931579590e-01 -9.771457910537719727e-01 -6.174272671341896057e-02 1.294296264648437500e+00 6.174272671341896057e-02 -1.256598758697509766e+01
0.000000000000000000e+00 -5.292233824729919434e-02 4.985437728464603424e-03 7.435972094535827637e-01 5.368932615965604782e-03 -5.553010702133178711e-01 1.917475950904190540e-03 1.264000177383422852e+00 -7.669904152862727642e-04 1.606844812631607056e-01 1.264767169952392578e+00 9.015972018241882324e-01 -9.782962203025817871e-01 -6.212622299790382385e-02 1.294296264648437500e+00 6.212622299790382385e-02 -1.256598758697509766e+01
0.000000000000000000e+00 -5.253884196281433105e-02 5.752427969127893448e-03 7.447476983070373535e-01 4.985437728464603424e-03 -5.545340776443481445e-01 1.917475950904190540e-03 1.263616681098937988e+00 -1.150485593825578690e-03 1.614514738321304321e-01 1.265917658805847168e+00 9.023641943931579590e-01 -9.775292277336120605e-01 -6.212622299790382385e-02 1.294296264648437500e+00 6.174272671341896057e-02 -1.256598758697509766e+01
0.000000000000000000e+00 -5.253884196281433105e-02 5.368932615965604782e-03 7.443642020225524902e-01 4.985437728464603424e-03 -5.553010702133178711e-01 2.300971187651157379e-03 1.264000177383422852e+00 -7.669904152862727642e-04 1.610679775476455688e-01 1.265534162521362305e+00 9.015972018241882324e-01 -9.779127240180969238e-01 -6.212622299790382385e-02 1.294679760932922363e+00 6.212622299790382385e-02 -1.256598758697509766e+01
0.000000000000000000e+00 -5.292233824729919434e-02 4.218447022140026093e-03 7.447476983070373535e-01 6.135923322290182114e-03 -5.549175739288330078e-01 2.300971187651157379e-03 1.264383673667907715e+00 -3.834952076431363821e-04 1.614514738321304321e-01 1.264767169952392578e+00 9.015972018241882324e-01 -9.771457910537719727e-01 -6.135923042893409729e-02 1.294296264648437500e+00 6.135923042893409729e-02 -1.256598758697509766e+01
0.000000000000000000e+00 -5.292233824729919434e-02 4.985437728464603424e-03 7.447476983070373535e-01 5.368932615965604782e-03 -5.556845664978027344e-01 1.533980830572545528e-03 1.263616681098937988e+00 -7.669904152862727642e-04 1.610679775476455688e-01 1.265150666236877441e+00 9.019806981086730957e-01 -9.775292277336120605e-01 -6.212622299790382385e-02 1.293529272079467773e+00 6.212622299790382385e-02 -1.256598758697509766e+01
0.000000000000000000e+00 -5.253884196281433105e-02 4.985437728464603424e-03 7.443642020225524902e-01 5.368932615965604782e-03 -5.549175739288330078e-01 2.300971187651157379e-03 1.263616681098937988e+00 -1.150485593825578690e-03 1.610679775476455688e-01 1.264767169952392578e+00 9.019806981086730957e-01 -9.771457910537719727e-01 -6.135923042893409729e-02 1.294296264648437500e+00 6.174272671341896057e-02 -1.256598758697509766e+01
0.000000000000000000e+00 -5.253884196281433105e-02 4.601942375302314758e-03 7.443642020225524902e-01 5.368932615965604782e-03 -5.553010702133178711e-01 1.917475950904190540e-03 1.264000177383422852e+00 -7.669904152862727642e-04 1.610679775476455688e-01 1.265150666236877441e+00 9.015972018241882324e-01 -9.775292277336120605e-01 -6.212622299790382385e-02 1.294679760932922363e+00 6.250971555709838867e-02 -1.256598758697509766e+01
0.000000000000000000e+00 -5.253884196281433105e-02 4.218447022140026093e-03 7.443642020225524902e-01 5.368932615965604782e-03 -5.553010702133178711e-01 1.917475950904190540e-03 1.264383673667907715e+00 -3.834952076431363821e-04 1.610679775476455688e-01 1.265150666236877441e+00 9.019806981086730957e-01 -9.771457910537719727e-01 -6.174272671341896057e-02 1.294296264648437500e+00 6.212622299790382385e-02 -1.256598758697509766e+01
0.000000000000000000e+00 -5.330583080649375916e-02 4.985437728464603424e-03 7.443642020225524902e-01 5.368932615965604782e-03 -5.549175739288330078e-01 1.917475950904190540e-03 1.264767169952392578e+00 -7.669904152862727642e-04 1.610679775476455688e-01 1.265150666236877441e+00 9.019806981086730957e-01 -9.782962203025817871e-01 -6.059224158525466919e-02 1.295063257217407227e+00 6.174272671341896057e-02 -1.256598758697509766e+01
0.000000000000000000e+00 -5.292233824729919434e-02 4.601942375302314758e-03 7.443642020225524902e-01 6.135923322290182114e-03 -5.553010702133178711e-01 2.300971187651157379e-03 1.264383673667907715e+00 -7.669904152862727642e-04 1.610679775476455688e-01 1.265150666236877441e+00 9.023641943931579590e-01 -9.775292277336120605e-01 -6.212622299790382385e-02 1.294296264648437500e+00 6.250971555709838867e-02 -1.256598758697509766e+01
0.000000000000000000e+00 -5.292233824729919434e-02 4.601942375302314758e-03 7.443642020225524902e-01 5.752427969127893448e-03 -5.549175739288330078e-01 2.300971187651157379e-03 1.264000177383422852e+00 -1.150485593825578690e-03 1.614514738321304321e-01 1.264767169952392578e+00 9.027476906776428223e-01 -9.775292277336120605e-01 -6.174272671341896057e-02 1.293912768363952637e+00 6.174272671341896057e-02 -1.256598758697509766e+01
0.000000000000000000e+00 -5.292233824729919434e-02 5.368932615965604782e-03 7.447476983070373535e-01 5.368932615965604782e-03 -5.549175739288330078e-01 1.533980830572545528e-03 1.264000177383422852e+00 -1.150485593825578690e-03 1.610679775476455688e-01 1.264767169952392578e+00 9.023641943931579590e-01 -9.775292277336120605e-01 -6.135923042893409729e-02 1.293529272079467773e+00 6.212622299790382385e-02 -1.256598758697509766e+01
0.000000000000000000e+00 -5.215534567832946777e-02 5.368932615965604782e-03 7.447476983070373535e-01 5.752427969127893448e-03 -5.553010702133178711e-01 2.300971187651157379e-03 1.263233184814453125e+00 -7.669904152862727642e-04 1.610679775476455688e-01 1.264767169952392578e+00 9.019806981086730957e-01 -9.779127240180969238e-01 -6.250971555709838867e-02 1.294296264648437500e+00 6.212622299790382385e-02 -1.256598758697509766e+01
0.000000000000000000e+00 -5.292233824729919434e-02 4.985437728464603424e-03 7.447476983070373535e-01 5.368932615965604782e-03 -5.556845664978027344e-01 1.917475950904190540e-03 1.264383673667907715e+00 -7.669904152862727642e-04 1.614514738321304321e-01 1.265534162521362305e+00 9.031311869621276855e-01 -9.779127240180969238e-01 -6.250971555709838867e-02 1.294296264648437500e+00 6.212622299790382385e-02 -1.256598758697509766e+01
0.000000000000000000e+00 -5.292233824729919434e-02 5.752427969127893448e-03 7.447476983070373535e-01 5.368932615965604782e-03 -5.553010702133178711e-01 2.300971187651157379e-03 1.264000177383422852e+00 -3.834952076431363821e-04 1.614514738321304321e-01 1.265150666236877441e+00 9.019806981086730957e-01 -9.779127240180969238e-01 -6.174272671341896057e-02 1.294679760932922363e+00 6.212622299790382385e-02 -1.256598758697509766e+01
0.000000000000000000e+00 -5.292233824729919434e-02 4.985437728464603424e-03 7.451311945915222168e-01 5.368932615965604782e-03 -5.545340776443481445e-01 1.917475950904190540e-03 1.264000177383422852e+00 -1.150485593825578690e-03 1.614514738321304321e-01 1.265534162521362305e+00 9.023641943931579590e-01 -9.775292277336120605e-01 -6.174272671341896057e-02 1.294296264648437500e+00 6.174272671341896057e-02 -1.256598758697509766e+01
0.000000000000000000e+00 -5.253884196281433105e-02 4.601942375302314758e-03 7.447476983070373535e-01 5.752427969127893448e-03 -5.549175739288330078e-01 1.917475950904190540e-03 1.264383673667907715e+00 -7.669904152862727642e-04 1.610679775476455688e-01 1.264383673667907715e+00 9.023641943931579590e-01 -9.771457910537719727e-01 -6.212622299790382385e-02 1.294296264648437500e+00 6.250971555709838867e-02 -1.256598758697509766e+01
0.000000000000000000e+00 -5.292233824729919434e-02 4.218447022140026093e-03 7.451311945915222168e-01 5.368932615965604782e-03 -5.553010702133178711e-01 1.917475950904190540e-03 1.263616681098937988e+00 -1.533980830572545528e-03 1.618349701166152954e-01 1.265150666236877441e+00 9.027476906776428223e-01 -9.775292277336120605e-01 -6.212622299790382385e-02 1.294679760932922363e+00 6.135923042893409729e-02 -1.256598758697509766e+01
0.000000000000000000e+00 -5.253884196281433105e-02 5.752427969127893448e-03 7.443642020225524902e-01 5.368932615965604782e-03 -5.545340776443481445e-01 2.300971187651157379e-03 1.264000177383422852e+00 -1.150485593825578690e-03 1.614514738321304321e-01 1.265534162521362305e+00 9.015972018241882324e-01 -9.779127240180969238e-01 -6.250971555709838867e-02 1.294296264648437500e+00 6.174272671341896057e-02 -1.256598758697509766e+01
0.000000000000000000e+00 -5.215534567832946777e-02 4.985437728464603424e-03 7.447476983070373535e-01 5.368932615965604782e-03 -5.545340776443481445e-01 2.300971187651157379e-03 1.263616681098937988e+00 -3.834952076431363821e-04 1.610679775476455688e-01 1.265917658805847168e+00 9.012137055397033691e-01 -9.775292277336120605e-01 -6.174272671341896057e-02 1.294296264648437500e+00 6.174272671341896057e-02 -1.256598758697509766e+01
0.000000000000000000e+00 -5.330583080649375916e-02 4.601942375302314758e-03 7.447476983070373535e-01 5.368932615965604782e-03 -5.549175739288330078e-01 1.917475950904190540e-03 1.264383673667907715e+00 -7.669904152862727642e-04 1.610679775476455688e-01 1.265150666236877441e+00 9.015972018241882324e-01 -9.771457910537719727e-01 -6.174272671341896057e-02 1.293912768363952637e+00 6.212622299790382385e-02 -1.256598758697509766e+01
0.000000000000000000e+00 -5.292233824729919434e-02 4.601942375302314758e-03 7.435972094535827637e-01 5.368932615965604782e-03 -5.553010702133178711e-01 2.300971187651157379e-03 1.263233184814453125e+00 -1.150485593825578690e-03 1.614514738321304321e-01 1.265150666236877441e+00 9.019806981086730957e-01 -9.782962203025817871e-01 -6.135923042893409729e-02 1.293912768363952637e+00 6.174272671341896057e-02 -1.256598758697509766e+01
0.000000000000000000e+00 -5.253884196281433105e-02 4.985437728464603424e-03 7.447476983070373535e-01 5.368932615965604782e-03 -5.549175739288330078e-01 2.300971187651157379e-03 1.264000177383422852e+00 -1.150485593825578690e-03 1.610679775476455688e-01 1.264767169952392578e+00 9.015972018241882324e-01 -9.779127240180969238e-01 -6.212622299790382385e-02 1.294679760932922363e+00 6.174272671341896057e-02 -1.256598758697509766e+01
0.000000000000000000e+00 -5.253884196281433105e-02 4.985437728464603424e-03 7.455146908760070801e-01 5.752427969127893448e-03 -5.549175739288330078e-01 1.917475950904190540e-03 1.263616681098937988e+00 -3.834952076431363821e-04 1.610679775476455688e-01 1.264767169952392578e+00 9.023641943931579590e-01 -9.771457910537719727e-01 -6.174272671341896057e-02 1.293912768363952637e+00 6.174272671341896057e-02 -1.256598758697509766e+01
0.000000000000000000e+00 -5.215534567832946777e-02 4.985437728464603424e-03 7.435972094535827637e-01 4.985437728464603424e-03 -5.545340776443481445e-01 2.300971187651157379e-03 1.263616681098937988e+00 -7.669904152862727642e-04 1.618349701166152954e-01 1.265534162521362305e+00 9.012137055397033691e-01 -9.779127240180969238e-01 -6.174272671341896057e-02 1.294296264648437500e+00 6.212622299790382385e-02 -1.256598758697509766e+01
0.000000000000000000e+00 -5.253884196281433105e-02 4.218447022140026093e-03 7.443642020225524902e-01 4.985437728464603424e-03 -5.549175739288330078e-01 1.533980830572545528e-03 1.264000177383422852e+00 -7.669904152862727642e-04 1.610679775476455688e-01 1.264383673667907715e+00 9.019806981086730957e-01 -9.771457910537719727e-01 -6.174272671341896057e-02 1.294296264648437500e+00 6.135923042893409729e-02 -1.256598758697509766e+01
0.000000000000000000e+00 -5.330583080649375916e-02 4.985437728464603424e-03 7.447476983070373535e-01 5.368932615965604782e-03 -5.541505813598632812e-01 1.917475950904190540e-03 1.264000177383422852e+00 -3.834952076431363821e-04 1.614514738321304321e-01 1.265150666236877441e+00 9.019806981086730957e-01 -9.775292277336120605e-01 -6.250971555709838867e-02 1.294296264648437500e+00 6.212622299790382385e-02 -1.256598758697509766e+01
0.000000000000000000e+00 -5.292233824729919434e-02 4.985437728464603424e-03 7.447476983070373535e-01 4.601942375302314758e-03 -5.553010702133178711e-01 1.917475950904190540e-03 1.264000177383422852e+00 -1.150485593825578690e-03 1.603009849786758423e-01 1.265534162521362305e+00 9.015972018241882324e-01 -9.767622947692871094e-01 -6.250971555709838867e-02 1.294296264648437500e+00 6.212622299790382385e-02 -1.256598758697509766e+01
0.000000000000000000e+00 -5.253884196281433105e-02 4.985437728464603424e-03 7.432137131690979004e-01 5.368932615965604782e-03 -5.553010702133178711e-01 2.300971187651157379e-03 1.263616681098937988e+00 -7.669904152862727642e-04 1.606844812631607056e-01 1.265150666236877441e+00 9.023641943931579590e-01 -9.775292277336120605e-01 -6.250971555709838867e-02 1.293529272079467773e+00 6.212622299790382385e-02 -1.256598758697509766e+01
0.000000000000000000e+00 -5.253884196281433105e-02 4.985437728464603424e-03 7.435972094535827637e-01 5.752427969127893448e-03 -5.549175739288330078e-01 2.684466307982802391e-03 1.263616681098937988e+00 -1.533980830572545528e-03 1.610679775476455688e-01 1.265534162521362305e+00 9.019806981086730957e-01 -9.775292277336120605e-01 -6.250971555709838867e-02 1.294679760932922363e+00 6.212622299790382385e-02 -1.256598758697509766e+01
0.000000000000000000e+00 -5.253884196281433105e-02 4.601942375302314758e-03 7.443642020225524902e-01 5.368932615965604782e-03 -5.556845664978027344e-01 2.300971187651157379e-03 1.264383673667907715e+00 0.000000000000000000e+00 1.610679775476455688e-01 1.265150666236877441e+00 9.012137055397033691e-01 -9.779127240180969238e-01 -6.212622299790382385e-02 1.294679760932922363e+00 6.174272671341896057e-02 -1.256598758697509766e+01
0.000000000000000000e+00 -5.330583080649375916e-02 4.985437728464603424e-03 7.447476983070373535e-01 5.368932615965604782e-03 -5.553010702133178711e-01 1.917475950904190540e-03 1.264000177383422852e+00 -7.669904152862727642e-04 1.610679775476455688e-01 1.264767169952392578e+00 9.015972018241882324e-01 -9.782962203025817871e-01 -6.250971555709838867e-02 1.294296264648437500e+00 6.212622299790382385e-02 -1.256598758697509766e+01
0.000000000000000000e+00 -5.292233824729919434e-02 5.368932615965604782e-03 7.443642020225524902e-01 6.135923322290182114e-03 -5.553010702133178711e-01 2.300971187651157379e-03 1.264000177383422852e+00 -3.834952076431363821e-04 1.610679775476455688e-01 1.265150666236877441e+00 9.015972018241882324e-01 -9.771457910537719727e-01 -6.212622299790382385e-02 1.294296264648437500e+00 6.135923042893409729e-02 -1.256598758697509766e+01
0.000000000000000000e+00 -5.177185311913490295e-02 4.985437728464603424e-03 7.435972094535827637e-01 4.985437728464603424e-03 -5.556845664978027344e-01 1.917475950904190540e-03 1.264383673667907715e+00 -1.150485593825578690e-03 1.614514738321304321e-01 1.265150666236877441e+00 9.015972018241882324e-01 -9.779127240180969238e-01 -6.135923042893409729e-02 1.294679760932922363e+00 6.174272671341896057e-02 -1.256598758697509766e+01
0.000000000000000000e+00 -5.292233824729919434e-02 4.601942375302314758e-03 7.443642020225524902e-01 5.368932615965604782e-03 -5.549175739288330078e-01 2.300971187651157379e-03 1.263616681098937988e+00 0.000000000000000000e+00 1.618349701166152954e-01 1.265150666236877441e+00 9.019806981086730957e-01 -9.775292277336120605e-01 -6.212622299790382385e-02 1.295446753501892090e+00 6.135923042893409729e-02 -1.256598758697509766e+01
0.000000000000000000e+00 -5.292233824729919434e-02 5.752427969127893448e-03 7.455146908760070801e-01 4.985437728464603424e-03 -5.549175739288330078e-01 1.917475950904190540e-03 1.264000177383422852e+00 -3.834952076431363821e-04 1.606844812631607056e-01 1.264767169952392578e+00 9.023641943931579590e-01 -9.775292277336120605e-01 -6.327670812606811523e-02 1.294679760932922363e+00 6.135923042893409729e-02 -1.256598758697509766e+01
0.000000000000000000e+00 -5.253884196281433105e-02 4.601942375302314758e-03 7.435972094535827637e-01 5.368932615965604782e-03 -5.553010702133178711e-01 2.684466307982802391e-03 1.263616681098937988e+00 -7.669904152862727642e-04 1.618349701166152954e-01 1.265917658805847168e+00 9.019806981086730957e-01 -9.775292277336120605e-01 -6.212622299790382385e-02 1.294296264648437500e+00 6.212622299790382385e-02 -1.256598758697509766e+01
0.000000000000000000e+00 -5.215534567832946777e-02 4.218447022140026093e-03 7.447476983070373535e-01 5.752427969127893448e-03 -5.549175739288330078e-01 1.917475950904190540e-03 1.264000177383422852e+00 0.000000000000000000e+00 1.606844812631607056e-01 1.265150666236877441e+00 9.023641943931579590e-01 -9.771457910537719727e-01 -6.135923042893409729e-02 1.294679760932922363e+00 6.174272671341896057e-02 -1.256598758697509766e+01
0.000000000000000000e+00 -5.253884196281433105e-02 4.601942375302314758e-03 7.432137131690979004e-01 5.368932615965604782e-03 -5.553010702133178711e-01 2.300971187651157379e-03 1.264383673667907715e+00 -3.834952076431363821e-04 1.610679775476455688e-01 1.265534162521362305e+00 9.023641943931579590e-01 -9.771457910537719727e-01 -6.250971555709838867e-02 1.294296264648437500e+00 6.212622299790382385e-02 -1.256598758697509766e+01
0.000000000000000000e+00 -5.253884196281433105e-02 4.985437728464603424e-03 7.443642020225524902e-01 5.752427969127893448e-03 -5.556845664978027344e-01 1.533980830572545528e-03 1.264000177383422852e+00 -1.150485593825578690e-03 1.614514738321304321e-01 1.265534162521362305e+00 9.023641943931579590e-01 -9.779127240180969238e-01 -6.250971555709838867e-02 1.294296264648437500e+00 6.174272671341896057e-02 -1.256598758697509766e+01
0.000000000000000000e+00 -5.292233824729919434e-02 4.601942375302314758e-03 7.435972094535827637e-01 4.985437728464603424e-03 -5.545340776443481445e-01 1.917475950904190540e-03 1.264000177383422852e+00 -7.669904152862727642e-04 1.614514738321304321e-01 1.265150666236877441e+00 9.012137055397033691e-01 -9.775292277336120605e-01 -6.174272671341896057e-02 1.293529272079467773e+00 6.174272671341896057e-02 -1.256598758697509766e+01
0.000000000000000000e+00 -5.215534567832946777e-02 4.985437728464603424e-03 7.447476983070373535e-01 5.752427969127893448e-03 -5.556845664978027344e-01 1.533980830572545528e-03 1.264383673667907715e+00 -3.834952076431363821e-04 1.610679775476455688e-01 1.265917658805847168e+00 9.023641943931579590e-01 -9.775292277336120605e-01 -6.174272671341896057e-02 1.295446753501892090e+00 6.212622299790382385e-02 -1.256598758697509766e+01
0.000000000000000000e+00 -5.253884196281433105e-02 5.368932615965604782e-03 7.443642020225524902e-01 5.368932615965604782e-03 -5.553010702133178711e-01 2.300971187651157379e-03 1.264000177383422852e+00 -3.834952076431363821e-04 1.614514738321304321e-01 1.265150666236877441e+00 9.008302092552185059e-01 -9.771457910537719727e-01 -6.212622299790382385e-02 1.294296264648437500e+00 6.174272671341896057e-02 -1.256598758697509766e+01
0.000000000000000000e+00 -5.330583080649375916e-02 4.218447022140026093e-03 7.435972094535827637e-01 5.368932615965604782e-03 -5.549175739288330078e-01 1.533980830572545528e-03 1.264383673667907715e+00 -7.669904152862727642e-04 1.606844812631607056e-01 1.264767169952392578e+00 9.019806981086730957e-01 -9.775292277336120605e-01 -6.212622299790382385e-02 1.294679760932922363e+00 6.135923042893409729e-02 -1.256598758697509766e+01
0.000000000000000000e+00 -5.292233824729919434e-02 4.601942375302314758e-03 7.447476983070373535e-01 5.368932615965604782e-03 -5.545340776443481445e-01 2.300971187651157379e-03 1.263233184814453125e+00 -1.150485593825578690e-03 1.622184664011001587e-01 1.265150666236877441e+00 9.019806981086730957e-01 -9.775292277336120605e-01 -6.174272671341896057e-02 1.294296264648437500e+00 6.174272671341896057e-02 -1.256598758697509766e+01
0.000000000000000000e+00 -5.253884196281433105e-02 4.985437728464603424e-03 7.443642020225524902e-01 5.368932615965604782e-03 -5.545340776443481445e-01 2.300971187651157379e-03 1.263233184814453125e+00 -1.150485593825578690e-03 1.610679775476455688e-01 1.264767169952392578e+00 9.019806981086730957e-01 -9.775292277336120605e-01 -6.250971555709838867e-02 1.294679760932922363e+00 6.250971555709838867e-02 -1.256598758697509766e+01
0.000000000000000000e+00 -5.215534567832946777e-02 5.368932615965604782e-03 7.447476983070373535e-01 4.985437728464603424e-03 -5.549175739288330078e-01 2.300971187651157379e-03 1.264383673667907715e+00 -7.669904152862727642e-04 1.614514738321304321e-01 1.265150666236877441e+00 9.015972018241882324e-01 -9.779127240180969238e-01 -6.250971555709838867e-02 1.293529272079467773e+00 6.174272671341896057e-02 -1.256598758697509766e+01
0.000000000000000000e+00 -5.253884196281433105e-02 4.985437728464603424e-03 7.435972094535827637e-01 5.752427969127893448e-03 -5.549175739288330078e-01 2.300971187651157379e-03 1.264000177383422852e+00 -7.669904152862727642e-04 1.606844812631607056e-01 1.264767169952392578e+00 9.012137055397033691e-01 -9.775292277336120605e-01 -6.135923042893409729e-02 1.294679760932922363e+00 6.097573786973953247e-02 -1.256598758697509766e+01
0.000000000000000000e+00 -5.253884196281433105e-02 4.985437728464603424e-03 7.451311945915222168e-01 4.985437728464603424e-03 -5.549175739288330078e-01 1.917475950904190540e-03 1.263616681098937988e+00 -1.150485593825578690e-03 1.614514738321304321e-01 1.265150666236877441e+00 9.019806981086730957e-01 -9.779127240180969238e-01 -6.212622299790382385e-02 1.293912768363952637e+00 6.212622299790382385e-02 -1.256598758697509766e+01
0.000000000000000000e+00 -5.253884196281433105e-02 4.601942375302314758e-03 7.435972094535827637e-01 5.368932615965604782e-03 -5.549175739288330078e-01 2.300971187651157379e-03 1.264000177383422852e+00 -7.669904152862727642e-04 1.603009849786758423e-01 1.265917658805847168e+00 9.019806981086730957e-01 -9.775292277336120605e-01 -6.212622299790382385e-02 1.294296264648437500e+00 6.135923042893409729e-02 -1.256598758697509766e+01
0.000000000000000000e+00 -5.253884196281433105e-02 4.601942375302314758e-03 7.443642020225524902e-01 4.985437728464603424e-03 -5.556845664978027344e-01 2.300971187651157379e-03 1.264000177383422852e+00 -7.669904152862727642e-04 1.610679775476455688e-01 1.264000177383422852e+00 9.015972018241882324e-01 -9.779127240180969238e-01 -6.212622299790382385e-02 1.293912768363952637e+00 6.174272671341896057e-02 -1.256598758697509766e+01
0.000000000000000000e+00 -5.215534567832946777e-02 4.218447022140026093e-03 7.443642020225524902e-01 4.985437728464603424e-03 -5.549175739288330078e-01 1.533980830572545528e-03 1.263616681098937988e+00 -3.834952076431363821e-04 1.614514738321304321e-01 1.265150666236877441e+00 9.015972018241882324e-01 -9.779127240180969238e-01 -6.212622299790382385e-02 1.295063257217407227e+00 6.250971555709838867e-02 -1.256598758697509766e+01
0.000000000000000000e+00 -5.292233824729919434e-02 4.985437728464603424e-03 7.443642020225524902e-01 4.985437728464603424e-03 -5.553010702133178711e-01 1.533980830572545528e-03 1.264000177383422852e+00 -1.150485593825578690e-03 1.610679775476455688e-01 1.264767169952392578e+00 9.023641943931579590e-01 -9.775292277336120605e-01 -6.174272671341896057e-02 1.294679760932922363e+00 6.289321184158325195e-02 -1.256598758697509766e+01
0.000000000000000000e+00 -5.292233824729919434e-02 5.368932615965604782e-03 7.447476983070373535e-01 5.752427969127893448e-03 -5.553010702133178711e-01 1.533980830572545528e-03 1.264000177383422852e+00 -1.150485593825578690e-03 1.606844812631607056e-01 1.265534162521362305e+00 9.015972018241882324e-01 -9.767622947692871094e-01 -6.250971555709838867e-02 1.293912768363952637e+00 6.212622299790382385e-02 -1.256598758697509766e+01
0.000000000000000000e+00 -5.292233824729919434e-02 4.985437728464603424e-03 7.451311945915222168e-01 5.752427969127893448e-03 -5.556845664978027344e-01 1.917475950904190540e-03 1.264000177383422852e+00 -3.834952076431363821e-04 1.610679775476455688e-01 1.264767169952392578e+00 9.019806981086730957e-01 -9.779127240180969238e-01 -6.250971555709838867e-02 1.293912768363952637e+00 6.212622299790382385e-02 -1.256598758697509766e+01
0.000000000000000000e+00 -5.253884196281433105e-02 4.218447022140026093e-03 7.451311945915222168e-01 5.368932615965604782e-03 -5.553010702133178711e-01 1.917475950904190540e-03 1.264000177383422852e+00 -1.150485593825578690e-03 1.610679775476455688e-01 1.265917658805847168e+00 9.019806981086730957e-01 -9.775292277336120605e-01 -6.250971555709838867e-02 1.294679760932922363e+00 6.135923042893409729e-02 -1.256598758697509766e+01
0.000000000000000000e+00 -5.253884196281433105e-02 5.368932615965604782e-03 7.443642020225524902e-01 5.752427969127893448e-03 -5.545340776443481445e-01 2.300971187651157379e-03 1.264383673667907715e+00 -3.834952076431363821e-04 1.614514738321304321e-01 1.265150666236877441e+00 9.015972018241882324e-01 -9.775292277336120605e-01 -6.174272671341896057e-02 1.293912768363952637e+00 6.174272671341896057e-02 -1.256598758697509766e+01
0.000000000000000000e+00 -5.292233824729919434e-02 4.985437728464603424e-03 7.443642020225524902e-01 4.985437728464603424e-03 -5.553010702133178711e-01 1.533980830572545528e-03 1.263616681098937988e+00 -3.834952076431363821e-04 1.614514738321304321e-01 1.265150666236877441e+00 9.019806981086730957e-01 -9.775292277336120605e-01 -6.250971555709838867e-02 1.294679760932922363e+00 6.212622299790382385e-02 -1.256598758697509766e+01
0.000000000000000000e+00 -5.292233824729919434e-02 4.218447022140026093e-03 7.447476983070373535e-01 5.752427969127893448e-03 -5.545340776443481445e-01 2.300971187651157379e-03 1.264000177383422852e+00 -1.917475950904190540e-03 1.606844812631607056e-01 1.265534162521362305e+00 9.019806981086730957e-01 -9.771457910537719727e-01 -6.212622299790382385e-02 1.293912768363952637e+00 6.135923042893409729e-02 -1.256598758697509766e+01
0.000000000000000000e+00 -5.292233824729919434e-02 5.368932615965604782e-03 7.435972094535827637e-01 5.368932615965604782e-03 -5.549175739288330078e-01 1.917475950904190540e-03 1.264383673667907715e+00 -1.150485593825578690e-03 1.614514738321304321e-01 1.265150666236877441e+00 9.012137055397033691e-01 -9.767622947692871094e-01 -6.250971555709838867e-02 1.294679760932922363e+00 6.135923042893409729e-02 -1.256598758697509766e+01
0.000000000000000000e+00 -5.330583080649375916e-02 4.985437728464603424e-03 7.447476983070373535e-01 5.752427969127893448e-03 -5.549175739288330078e-01 2.300971187651157379e-03 1.263616681098937988e+00 -7.669904152862727642e-04 1.606844812631607056e-01 1.265150666236877441e+00 9.019806981086730957e-01 -9.771457910537719727e-01 -6.212622299790382385e-02 1.294679760932922363e+00 6.212622299790382385e-02 -1.256598758697509766e+01
0.000000000000000000e+00 -5.292233824729919434e-02 5.368932615965604782e-03 7.451311945915222168e-01 5.752427969127893448e-03 -5.553010702133178711e-01 1.917475950904190540e-03 1.263616681098937988e+00 0.000000000000000000e+00 1.622184664011001587e-01 1.265150666236877441e+00 9.019806981086730957e-01 -9.771457910537719727e-01 -6.289321184158325195e-02 1.293912768363952637e+00 6.174272671341896057e-02 -1.256598758697509766e+01
0.000000000000000000e+00 -5.253884196281433105e-02 5.368932615965604782e-03 7.443642020225524902e-01 5.752427969127893448e-03 -5.553010702133178711e-01 1.917475950904190540e-03 1.264000177383422852e+00 -7.669904152862727642e-04 1.610679775476455688e-01 1.264383673667907715e+00 9.019806981086730957e-01 -9.775292277336120605e-01 -6.135923042893409729e-02 1.294679760932922363e+00 6.174272671341896057e-02 -1.256598758697509766e+01
0.000000000000000000e+00 -5.253884196281433105e-02 4.601942375302314758e-03 7.447476983070373535e-01 5.368932615965604782e-03 -5.553010702133178711e-01 1.917475950904190540e-03 1.264000177383422852e+00 -7.669904152862727642e-04 1.610679775476455688e-01 1.264383673667907715e+00 9.019806981086730957e-01 -9.771457910537719727e-01 -6.212622299790382385e-02 1.294679760932922363e+00 6.174272671341896057e-02 -1.256598758697509766e+01
0.000000000000000000e+00 -5.253884196281433105e-02 4.985437728464603424e-03 7.451311945915222168e-01 5.752427969127893448e-03 -5.553010702133178711e-01 2.300971187651157379e-03 1.264383673667907715e+00 -3.834952076431363821e-04 1.610679775476455688e-01 1.265150666236877441e+00 9.015972018241882324e-01 -9.771457910537719727e-01 -6.212622299790382385e-02 1.293912768363952637e+00 6.212622299790382385e-02 -1.256598758697509766e+01
0.000000000000000000e+00 -5.253884196281433105e-02 4.985437728464603424e-03 7.435972094535827637e-01 5.368932615965604782e-03 -5.556845664978027344e-01 1.917475950904190540e-03 1.264000177383422852e+00 -3.834952076431363821e-04 1.610679775476455688e-01 1.265150666236877441e+00 9.023641943931579590e-01 -9.775292277336120605e-01 -6.327670812606811523e-02 1.293912768363952637e+00 6.174272671341896057e-02 -1.256598758697509766e+01
0.000000000000000000e+00 -5.292233824729919434e-02 5.368932615965604782e-03 7.447476983070373535e-01 5.752427969127893448e-03 -5.549175739288330078e-01 1.917475950904190540e-03 1.264383673667907715e+00 -7.669904152862727642e-04 1.614514738321304321e-01 1.265534162521362305e+00 9.019806981086730957e-01 -9.779127240180969238e-01 -6.212622299790382385e-02 1.294296264648437500e+00 6.174272671341896057e-02 -1.256598758697509766e+01
0.000000000000000000e+00 -5.292233824729919434e-02 4.985437728464603424e-03 7.451311945915222168e-01 4.985437728464603424e-03 -5.553010702133178711e-01 1.917475950904190540e-03 1.264767169952392578e+00 -7.669904152862727642e-04 1.614514738321304321e-01 1.266301155090332031e+00 9.019806981086730957e-01 -9.775292277336120605e-01 -6.289321184158325195e-02 1.294679760932922363e+00 6.135923042893409729e-02 -1.256598758697509766e+01
0.000000000000000000e+00 -5.292233824729919434e-02 4.985437728464603424e-03 7.443642020225524902e-01 5.368932615965604782e-03 -5.545340776443481445e-01 1.917475950904190540e-03 1.264000177383422852e+00 -3.834952076431363821e-04 1.606844812631607056e-01 1.264767169952392578e+00 9.019806981086730957e-01 -9.775292277336120605e-01 -6.135923042893409729e-02 1.293912768363952637e+00 6.250971555709838867e-02 -1.256598758697509766e+01
0.000000000000000000e+00 -5.330583080649375916e-02 4.601942375302314758e-03 7.451311945915222168e-01 5.752427969127893448e-03 -5.549175739288330078e-01 1.917475950904190540e-03 1.264000177383422852e+00 -3.834952076431363821e-04 1.610679775476455688e-01 1.265150666236877441e+00 9.012137055397033691e-01 -9.775292277336120605e-01 -6.135923042893409729e-02 1.294296264648437500e+00 6.250971555709838867e-02 -1.256598758697509766e+01
0.000000000000000000e+00 -5.292233824729919434e-02 5.368932615965604782e-03 7.435972094535827637e-01 4.985437728464603424e-03 -5.553010702133178711e-01 1.917475950904190540e-03 1.264000177383422852e+00 -3.834952076431363821e-04 1.614514738321304321e-01 1.264383673667907715e+00 9.023641943931579590e-01 -9.779127240180969238e-01 -6.212622299790382385e-02 1.294296264648437500e+00 6.212622299790382385e-02 -1.256598758697509766e+01
0.000000000000000000e+00 -5.253884196281433105e-02 5.368932615965604782e-03 7.443642020225524902e-01 5.368932615965604782e-03 -5.549175739288330078e-01 2.300971187651157379e-03 1.264383673667907715e+00 -1.150485593825578690e-03 1.614514738321304321e-01 1.265150666236877441e+00 9.023641943931579590e-01 -9.779127240180969238e-01 -6.135923042893409729e-02 1.294679760932922363e+00 6.212622299790382385e-02 -1.256598758697509766e+01
0.000000000000000000e+00 -5.330583080649375916e-02 5.368932615965604782e-03 7.443642020225524902e-01 4.985437728464603424e-03 -5.553010702133178711e-01 2.300971187651157379e-03 1.264000177383422852e+00 -7.669904152862727642e-04 1.618349701166152954e-01 1.265150666236877441e+00 9.019806981086730957e-01 -9.775292277336120605e-01 -6.212622299790382385e-02 1.294679760932922363e+00 6.174272671341896057e-02 -1.256598758697509766e+01
0.000000000000000000e+00 -5.253884196281433105e-02 4.985437728464603424e-03 7.443642020225524902e-01 5.752427969127893448e-03 -5.545340776443481445e-01 1.533980830572545528e-03 1.264383673667907715e+00 -7.669904152862727642e-04 1.610679775476455688e-01 1.265534162521362305e+00 9.019806981086730957e-01 -9.775292277336120605e-01 -6.174272671341896057e-02 1.294679760932922363e+00 6.174272671341896057e-02 -1.256598758697509766e+01
0.000000000000000000e+00 -5.253884196281433105e-02 4.985437728464603424e-03 7.447476983070373535e-01 5.752427969127893448e-03 -5.545340776443481445e-01 2.684466307982802391e-03 1.264000177383422852e+00 -3.834952076431363821e-04 1.614514738321304321e-01 1.264767169952392578e+00 9.015972018241882324e-01 -9.767622947692871094e-01 -6.212622299790382385e-02 1.295063257217407227e+00 6.212622299790382385e-02 -1.256598758697509766e+01
0.000000000000000000e+00 -5.253884196281433105e-02 4.985437728464603424e-03 7.447476983070373535e-01 5.752427969127893448e-03 -5.553010702133178711e-01 1.917475950904190540e-03 1.264000177383422852e+00 -7.669904152862727642e-04 1.610679775476455688e-01 1.264383673667907715e+00 9.027476906776428223e-01 -9.771457910537719727e-01 -6.212622299790382385e-02 1.294296264648437500e+00 6.212622299790382385e-02 -1.256598758697509766e+01
0.000000000000000000e+00 -5.177185311913490295e-02 4.601942375302314758e-03 7.443642020225524902e-01 4.985437728464603424e-03 -5.553010702133178711e-01 1.917475950904190540e-03 1.264383673667907715e+00 -1.150485593825578690e-03 1.618349701166152954e-01 1.264000177383422852e+00 9.008302092552185059e-01 -9.775292277336120605e-01 -6.212622299790382385e-02 1.294679760932922363e+00 6.135923042893409729e-02 -1.256598758697509766e+01
0.000000000000000000e+00 -5.253884196281433105e-02 4.601942375302314758e-03 7.447476983070373535e-01 5.368932615965604782e-03 -5.553010702133178711e-01 1.917475950904190540e-03 1.264000177383422852e+00 -7.669904152862727642e-04 1.618349701166152954e-01 1.265917658805847168e+00 9.019806981086730957e-01 -9.779127240180969238e-01 -6.250971555709838867e-02 1.294296264648437500e+00 6.212622299790382385e-02 -1.256598758697509766e+01
0.000000000000000000e+00 -5.292233824729919434e-02 4.985437728464603424e-03 7.451311945915222168e-01 5.752427969127893448e-03 -5.549175739288330078e-01 2.684466307982802391e-03 1.263616681098937988e+00 -7.669904152862727642e-04 1.618349701166152954e-01 1.264000177383422852e+00 9.023641943931579590e-01 -9.779127240180969238e-01 -6.212622299790382385e-02 1.294296264648437500e+00 6.097573786973953247e-02 -1.256598758697509766e+01
0.000000000000000000e+00 -5.292233824729919434e-02 4.601942375302314758e-03 7.447476983070373535e-01 4.601942375302314758e-03 -5.556845664978027344e-01 1.917475950904190540e-03 1.264000177383422852e+00 -3.834952076431363821e-04 1.618349701166152954e-01 1.265150666236877441e+00 9.027476906776428223e-01 -9.771457910537719727e-01 -6.212622299790382385e-02 1.293912768363952637e+00 6.250971555709838867e-02 -1.256598758697509766e+01
0.000000000000000000e+00 -5.292233824729919434e-02 4.218447022140026093e-03 7.451311945915222168e-01 5.752427969127893448e-03 -5.549175739288330078e-01 1.533980830572545528e-03 1.263616681098937988e+00 -7.669904152862727642e-04 1.618349701166152954e-01 1.265534162521362305e+00 9.023641943931579590e-01 -9.775292277336120605e-01 -6.212622299790382385e-02 1.294296264648437500e+00 6.250971555709838867e-02 -1.256598758697509766e+01
0.000000000000000000e+00 -5.215534567832946777e-02 5.368932615965604782e-03 7.447476983070373535e-01 5.368932615965604782e-03 -5.545340776443481445e-01 1.917475950904190540e-03 1.264000177383422852e+00 -3.834952076431363821e-04 1.606844812631607056e-01 1.265534162521362305e+00 9.023641943931579590e-01 -9.779127240180969238e-01 -6.174272671341896057e-02 1.294679760932922363e+00 6.212622299790382385e-02 -1.256598758697509766e+01
0.000000000000000000e+00 -5.292233824729919434e-02 4.601942375302314758e-03 7.432137131690979004e-01 5.368932615965604782e-03 -5.553010702133178711e-01 1.917475950904190540e-03 1.264000177383422852e+00 -3.834952076431363821e-04 1.610679775476455688e-01 1.264767169952392578e+00 9.015972018241882324e-01 -9.775292277336120605e-01 -6.174272671341896057e-02 1.294679760932922363e+00 6.174272671341896057e-02 -1.256598758697509766e+01
0.000000000000000000e+00 -5.215534567832946777e-02 4.985437728464603424e-03 7.443642020225524902e-01 5.752427969127893448e-03 -5.545340776443481445e-01 1.917475950904190540e-03 1.263233184814453125e+00 -7.669904152862727642e-04 1.606844812631607056e-01 1.265150666236877441e+00 9.023641943931579590e-01 -9.771457910537719727e-01 -6.212622299790382385e-02 1.294679760932922363e+00 6.250971555709838867e-02 -1.256598758697509766e+01
0.000000000000000000e+00 -5.253884196281433105e-02 4.985437728464603424e-03 7.443642020225524902e-01 5.368932615965604782e-03 -5.549175739288330078e-01 1.917475950904190540e-03 1.262849688529968262e+00 -3.834952076431363821e-04 1.614514738321304321e-01 1.264767169952392578e+00 9.019806981086730957e-01 -9.771457910537719727e-01 -6.212622299790382385e-02 1.294679760932922363e+00 6.174272671341896057e-02 -1.256598758697509766e+01
0.000000000000000000e+00 -5.253884196281433105e-02 4.985437728464603424e-03 7.447476983070373535e-01 5.368932615965604782e-03 -5.549175739288330078e-01 2.300971187651157379e-03 1.264383673667907715e+00 -1.150485593825578690e-03 1.614514738321304321e-01 1.264383673667907715e+00 9.027476906776428223e-01 -9.775292277336120605e-01 -6.212622299790382385e-02 1.294296264648437500e+00 6.212622299790382385e-02 -1.256598758697509766e+01
0.000000000000000000e+00 -5.253884196281433105e-02 4.985437728464603424e-03 7.443642020225524902e-01 5.752427969127893448e-03 -5.556845664978027344e-01 1.533980830572545528e-03 1.264383673667907715e+00 -1.150485593825578690e-03 1.618349701166152954e-01 1.265534162521362305e+00 9.019806981086730957e-01 -9.779127240180969238e-01 -6.174272671341896057e-02 1.294296264648437500e+00 6.135923042893409729e-02 -1.256598758697509766e+01
0.000000000000000000e+00 -5.253884196281433105e-02 4.985437728464603424e-03 7.447476983070373535e-01 5.368932615965604782e-03 -5.549175739288330078e-01 1.917475950904190540e-03 1.264000177383422852e+00 -7.669904152862727642e-04 1.618349701166152954e-01 1.265150666236877441e+00 9.019806981086730957e-01 -9.779127240180969238e-01 -6.212622299790382385e-02 1.294679760932922363e+00 6.174272671341896057e-02 -1.256598758697509766e+01
0.000000000000000000e+00 -5.292233824729919434e-02 4.601942375302314758e-03 7.451311945915222168e-01 5.368932615965604782e-03 -5.545340776443481445e-01 2.300971187651157379e-03 1.263233184814453125e+00 0.000000000000000000e+00 1.606844812631607056e-01 1.265150666236877441e+00 9.012137055397033691e-01 -9.771457910537719727e-01 -6.212622299790382385e-02 1.294679760932922363e+00 6.212622299790382385e-02 -1.256598758697509766e+01
0.000000000000000000e+00 -5.253884196281433105e-02 4.601942375302314758e-03 7.435972094535827637e-01 6.135923322290182114e-03 -5.553010702133178711e-01 1.917475950904190540e-03 1.264000177383422852e+00 -1.533980830572545528e-03 1.610679775476455688e-01 1.265150666236877441e+00 9.019806981086730957e-01 -9.771457910537719727e-01 -6.174272671341896057e-02 1.295063257217407227e+00 6.212622299790382385e-02 -1.256598758697509766e+01
0.000000000000000000e+00 -5.292233824729919434e-02 4.985437728464603424e-03 7.447476983070373535e-01 4.985437728464603424e-03 -5.553010702133178711e-01 1.917475950904190540e-03 1.264383673667907715e+00 -3.834952076431363821e-04 1.614514738321304321e-01 1.264767169952392578e+00 9.019806981086730957e-01 -9.775292277336120605e-01 -6.212622299790382385e-02 1.295063257217407227e+00 6.174272671341896057e-02 -1.256598758697509766e+01
0.000000000000000000e+00 -5.253884196281433105e-02 4.601942375302314758e-03 7.443642020225524902e-01 4.985437728464603424e-03 -5.549175739288330078e-01 1.917475950904190540e-03 1.264383673667907715e+00 -1.150485593825578690e-03 1.610679775476455688e-01 1.265150666236877441e+00 9.015972018241882324e-01 -9.782962203025817871e-01 -6.135923042893409729e-02 1.296213746070861816e+00 6.135923042893409729e-02 -1.256598758697509766e+01
0.000000000000000000e+00 -5.253884196281433105e-02 4.985437728464603424e-03 7.443642020225524902e-01 4.985437728464603424e-03 -5.553010702133178711e-01 1.533980830572545528e-03 1.264383673667907715e+00 -7.669904152862727642e-04 1.614514738321304321e-01 1.265150666236877441e+00 9.023641943931579590e-01 -9.786797165870666504e-01 -6.212622299790382385e-02 1.295063257217407227e+00 6.174272671341896057e-02 -1.256598758697509766e+01
0.000000000000000000e+00 -5.215534567832946777e-02 4.985437728464603424e-03 7.447476983070373535e-01 4.985437728464603424e-03 -5.549175739288330078e-01 1.917475950904190540e-03 1.264383673667907715e+00 -7.669904152862727642e-04 1.622184664011001587e-01 1.265534162521362305e+00 9.019806981086730957e-01 -9.782962203025817871e-01 -6.212622299790382385e-02 1.295446753501892090e+00 6.174272671341896057e-02 -1.256598758697509766e+01
0.000000000000000000e+00 -5.253884196281433105e-02 4.985437728464603424e-03 7.451311945915222168e-01 5.368932615965604782e-03 -5.549175739288330078e-01 1.533980830572545528e-03 1.264000177383422852e+00 -3.834952076431363821e-04 1.614514738321304321e-01 1.264767169952392578e+00 9.023641943931579590e-01 -9.779127240180969238e-01 -6.289321184158325195e-02 1.295830249786376953e+00 6.174272671341896057e-02 -1.256598758697509766e+01
0.000000000000000000e+00 -5.253884196281433105e-02 5.368932615965604782e-03 7.432137131690979004e-01 5.368932615965604782e-03 -5.556845664978027344e-01 2.684466307982802391e-03 1.264383673667907715e+00 -1.150485593825578690e-03 1.610679775476455688e-01 1.265534162521362305e+00 9.019806981086730957e-01 -9.782962203025817871e-01 -6.135923042893409729e-02 1.296597242355346680e+00 6.174272671341896057e-02 -1.256598758697509766e+01
0.000000000000000000e+00 -5.253884196281433105e-02 4.985437728464603424e-03 7.447476983070373535e-01 5.368932615965604782e-03 -5.549175739288330078e-01 2.300971187651157379e-03 1.264383673667907715e+00 -7.669904152862727642e-04 1.610679775476455688e-01 1.264000177383422852e+00 9.019806981086730957e-01 -9.775292277336120605e-01 -6.212622299790382385e-02 1.295446753501892090e+00 6.135923042893409729e-02 -1.256598758697509766e+01
0.000000000000000000e+00 -5.215534567832946777e-02 4.985437728464603424e-03 7.447476983070373535e-01 5.752427969127893448e-03 -5.553010702133178711e-01 1.917475950904190540e-03 1.264000177383422852e+00 -3.834952076431363821e-04 1.618349701166152954e-01 1.265150666236877441e+00 9.027476906776428223e-01 -9.779127240180969238e-01 -6.250971555709838867e-02 1.296213746070861816e+00 6.174272671341896057e-02 -1.256598758697509766e+01
0.000000000000000000e+00 -5.253884196281433105e-02 4.985437728464603424e-03 7.447476983070373535e-01 4.985437728464603424e-03 -5.549175739288330078e-01 1.533980830572545528e-03 1.264000177383422852e+00 -7.669904152862727642e-04 1.614514738321304321e-01 1.264767169952392578e+00 9.027476906776428223e-01 -9.779127240180969238e-01 -6.212622299790382385e-02 1.295830249786376953e+00 6.174272671341896057e-02 -1.256598758697509766e+01
0.000000000000000000e+00 -5.253884196281433105e-02 4.985437728464603424e-03 7.451311945915222168e-01 5.752427969127893448e-03 -5.553010702133178711e-01 1.533980830572545528e-03 1.263616681098937988e+00 -1.150485593825578690e-03 1.614514738321304321e-01 1.265534162521362305e+00 9.019806981086730957e-01 -9.779127240180969238e-01 -6.212622299790382385e-02 1.296980738639831543e+00 6.212622299790382385e-02 -1.256598758697509766e+01
0.000000000000000000e+00 -5.215534567832946777e-02 5.368932615965604782e-03 7.443642020225524902e-01 4.985437728464603424e-03 -5.549175739288330078e-01 1.150485593825578690e-03 1.263233184814453125e+00 -7.669904152862727642e-04 1.618349701166152954e-01 1.264767169952392578e+00 9.015972018241882324e-01 -9.779127240180969238e-01 -6.097573786973953247e-02 1.296597242355346680e+00 6.250971555709838867e-02 -1.256598758697509766e+01
0.000000000000000000e+00 -5.253884196281433105e-02 5.368932615965604782e-03 7.443642020225524902e-01 4.985437728464603424e-03 -5.556845664978027344e-01 1.917475950904190540e-03 1.264000177383422852e+00 -3.834952076431363821e-04 1.618349701166152954e-01 1.265150666236877441e+00 9.023641943931579590e-01 -9.779127240180969238e-01 -6.174272671341896057e-02 1.296597242355346680e+00 6.174272671341896057e-02 -1.256598758697509766e+01
0.000000000000000000e+00 -5.292233824729919434e-02 4.601942375302314758e-03 7.455146908760070801e-01 5.368932615965604782e-03 -5.553010702133178711e-01 2.300971187651157379e-03 1.264000177383422852e+00 -3.834952076431363821e-04 1.618349701166152954e-01 1.264000177383422852e+00 9.023641943931579590e-01 -9.782962203025817871e-01 -6.174272671341896057e-02 1.297364234924316406e+00 6.289321184158325195e-02 -1.256598758697509766e+01
0.000000000000000000e+00 -5.253884196281433105e-02 4.601942375302314758e-03 7.447476983070373535e-01 4.985437728464603424e-03 -5.549175739288330078e-01 1.917475950904190540e-03 1.263616681098937988e+00 -7.669904152862727642e-04 1.618349701166152954e-01 1.265534162521362305e+00 9.019806981086730957e-01 -9.782962203025817871e-01 -6.212622299790382385e-02 1.297364234924316406e+00 6.135923042893409729e-02 -1.256598758697509766e+01
0.000000000000000000e+00 -5.292233824729919434e-02 4.601942375302314758e-03 7.443642020225524902e-01 4.601942375302314758e-03 -5.553010702133178711e-01 2.300971187651157379e-03 1.264000177383422852e+00 0.000000000000000000e+00 1.610679775476455688e-01 1.265150666236877441e+00 9.023641943931579590e-01 -9.782962203025817871e-01 -6.174272671341896057e-02 1.297747731208801270e+00 6.250971555709838867e-02 -1.256598758697509766e+01
0.000000000000000000e+00 -5.215534567832946777e-02 5.368932615965604782e-03 7.447476983070373535e-01 4.601942375302314758e-03 -5.553010702133178711e-01 1.150485593825578690e-03 1.264000177383422852e+00 -1.533980830572545528e-03 1.606844812631607056e-01 1.264000177383422852e+00 9.023641943931579590e-01 -9.782962203025817871e-01 -6.174272671341896057e-02 1.298131227493286133e+00 6.289321184158325195e-02 -1.256598758697509766e+01
0.000000000000000000e+00 -5.177185311913490295e-02 4.601942375302314758e-03 7.447476983070373535e-01 4.985437728464603424e-03 -5.549175739288330078e-01 1.533980830572545528e-03 1.264383673667907715e+00 -7.669904152862727642e-04 1.618349701166152954e-01 1.264000177383422852e+00 9.027476906776428223e-01 -9.782962203025817871e-01 -6.135923042893409729e-02 1.298131227493286133e+00 6.212622299790382385e-02 -1.256598758697509766e+01
0.000000000000000000e+00 -5.253884196281433105e-02 4.601942375302314758e-03 7.435972094535827637e-01 5.368932615965604782e-03 -5.545340776443481445e-01 1.917475950904190540e-03 1.264383673667907715e+00 -7.669904152862727642e-04 1.618349701166152954e-01 1.264000177383422852e+00 9.023641943931579590e-01 -9.782962203025817871e-01 -6.135923042893409729e-02 1.298131227493286133e+00 6.212622299790382385e-02 -1.256598758697509766e+01
0.000000000000000000e+00 -5.253884196281433105e-02 4.601942375302314758e-03 7.443642020225524902e-01 5.368932615965604782e-03 -5.545340776443481445e-01 1.917475950904190540e-03 1.263616681098937988e+00 -3.834952076431363821e-04 1.626019626855850220e-01 1.264000177383422852e+00 9.015972018241882324e-01 -9.786797165870666504e-01 -6.212622299790382385e-02 1.298898220062255859e+00 6.174272671341896057e-02 -1.256598758697509766e+01
0.000000000000000000e+00 -5.253884196281433105e-02 4.985437728464603424e-03 7.447476983070373535e-01 5.752427969127893448e-03 -5.553010702133178711e-01 1.917475950904190540e-03 1.264383673667907715e+00 -7.669904152862727642e-04 1.618349701166152954e-01 1.263616681098937988e+00 9.012137055397033691e-01 -9.786797165870666504e-01 -6.174272671341896057e-02 1.298898220062255859e+00 6.212622299790382385e-02 -1.256598758697509766e+01
0.000000000000000000e+00 -5.215534567832946777e-02 5.752427969127893448e-03 7.447476983070373535e-01 4.985437728464603424e-03 -5.545340776443481445e-01 2.300971187651157379e-03 1.264383673667907715e+00 -3.834952076431363821e-04 1.614514738321304321e-01 1.263616681098937988e+00 9.019806981086730957e-01 -9.786797165870666504e-01 -6.174272671341896057e-02 1.299665212631225586e+00 6.212622299790382385e-02 -1.256598758697509766e+01
0.000000000000000000e+00 -5.253884196281433105e-02 4.218447022140026093e-03 7.447476983070373535e-01 5.368932615965604782e-03 -5.549175739288330078e-01 2.300971187651157379e-03 1.264383673667907715e+00 0.000000000000000000e+00 1.614514738321304321e-01 1.263233184814453125e+00 9.019806981086730957e-01 -9.790632128715515137e-01 -6.250971555709838867e-02 1.300815701484680176e+00 6.212622299790382385e-02 -1.256598758697509766e+01
0.000000000000000000e+00 -5.292233824729919434e-02 5.752427969127893448e-03 7.447476983070373535e-01 5.752427969127893448e-03 -5.553010702133178711e-01 2.300971187651157379e-03 1.264000177383422852e+00 0.000000000000000000e+00 1.622184664011001587e-01 1.264000177383422852e+00 9.019806981086730957e-01 -9.786797165870666504e-01 -6.212622299790382385e-02 1.300815701484680176e+00 6.174272671341896057e-02 -1.256598758697509766e+01
0.000000000000000000e+00 -5.215534567832946777e-02 4.601942375302314758e-03 7.451311945915222168e-01 5.752427969127893448e-03 -5.549175739288330078e-01 1.917475950904190540e-03 1.263616681098937988e+00 -3.834952076431363821e-04 1.618349701166152954e-01 1.263616681098937988e+00 9.027476906776428223e-01 -9.790632128715515137e-01 -6.212622299790382385e-02 1.301199197769165039e+00 6.212622299790382385e-02 -1.256598758697509766e+01
0.000000000000000000e+00 -5.253884196281433105e-02 4.601942375302314758e-03 7.447476983070373535e-01 5.752427969127893448e-03 -5.549175739288330078e-01 1.917475950904190540e-03 1.264000177383422852e+00 -7.669904152862727642e-04 1.629854589700698853e-01 1.264000177383422852e+00 9.012137055397033691e-01 -9.790632128715515137e-01 -6.212622299790382385e-02 1.301199197769165039e+00 6.174272671341896057e-02 -1.256598758697509766e+01
0.000000000000000000e+00 -5.292233824729919434e-02 4.601942375302314758e-03 7.447476983070373535e-01 4.985437728464603424e-03 -5.553010702133178711e-01 2.684466307982802391e-03 1.264383673667907715e+00 0.000000000000000000e+00 1.618349701166152954e-01 1.264383673667907715e+00 9.023641943931579590e-01 -9.794467091560363770e-01 -6.212622299790382385e-02 1.301199197769165039e+00 6.135923042893409729e-02 -1.256598758697509766e+01
0.000000000000000000e+00 -5.253884196281433105e-02 4.601942375302314758e-03 7.435972094535827637e-01 4.985437728464603424e-03 -5.556845664978027344e-01 2.684466307982802391e-03 1.263233184814453125e+00 -3.834952076431363821e-04 1.622184664011001587e-01 1.263233184814453125e+00 9.023641943931579590e-01 -9.798302054405212402e-01 -6.174272671341896057e-02 1.301966190338134766e+00 6.135923042893409729e-02 -1.256598758697509766e+01
0.000000000000000000e+00 -5.292233824729919434e-02 5.368932615965604782e-03 7.451311945915222168e-01 4.985437728464603424e-03 -5.549175739288330078e-01 1.533980830572545528e-03 1.263616681098937988e+00 -1.533980830572545528e-03 1.618349701166152954e-01 1.264383673667907715e+00 9.023641943931579590e-01 -9.790632128715515137e-01 -6.174272671341896057e-02 1.301966190338134766e+00 6.174272671341896057e-02 -1.256598758697509766e+01
0.000000000000000000e+00 -5.253884196281433105e-02 5.368932615965604782e-03 7.451311945915222168e-01 5.368932615965604782e-03 -5.549175739288330078e-01 2.300971187651157379e-03 1.263616681098937988e+00 -7.669904152862727642e-04 1.622184664011001587e-01 1.264383673667907715e+00 9.027476906776428223e-01 -9.798302054405212402e-01 -6.135923042893409729e-02 1.302733182907104492e+00 6.174272671341896057e-02 -1.256598758697509766e+01
0.000000000000000000e+00 -5.292233824729919434e-02 4.601942375302314758e-03 7.447476983070373535e-01 5.368932615965604782e-03 -5.545340776443481445e-01 1.917475950904190540e-03 1.264000177383422852e+00 -1.150485593825578690e-03 1.626019626855850220e-01 1.263233184814453125e+00 9.015972018241882324e-01 -9.794467091560363770e-01 -6.135923042893409729e-02 1.303116679191589355e+00 6.097573786973953247e-02 -1.256598758697509766e+01
0.000000000000000000e+00 -5.215534567832946777e-02 4.601942375302314758e-03 7.451311945915222168e-01 5.368932615965604782e-03 -5.549175739288330078e-01 2.300971187651157379e-03 1.264000177383422852e+00 -1.150485593825578690e-03 1.622184664011001587e-01 1.262466192245483398e+00 9.023641943931579590e-01 -9.794467091560363770e-01 -6.212622299790382385e-02 1.303883671760559082e+00 6.135923042893409729e-02 -1.256598758697509766e+01
0.000000000000000000e+00 -5.253884196281433105e-02 4.601942375302314758e-03 7.447476983070373535e-01 4.985437728464603424e-03 -5.556845664978027344e-01 1.533980830572545528e-03 1.263616681098937988e+00 -1.150485593825578690e-03 1.626019626855850220e-01 1.262466192245483398e+00 9.015972018241882324e-01 -9.798302054405212402e-01 -6.250971555709838867e-02 1.305034160614013672e+00 6.135923042893409729e-02 -1.256598758697509766e+01
0.000000000000000000e+00 -5.253884196281433105e-02 4.985437728464603424e-03 7.447476983070373535e-01 5.368932615965604782e-03 -5.553010702133178711e-01 1.917475950904190540e-03 1.263616681098937988e+00 -7.669904152862727642e-04 1.626019626855850220e-01 1.262082695960998535e+00 9.023641943931579590e-01 -9.798302054405212402e-01 -6.174272671341896057e-02 1.305417656898498535e+00 6.174272671341896057e-02 -1.256598758697509766e+01
0.000000000000000000e+00 -5.330583080649375916e-02 4.601942375302314758e-03 7.447476983070373535e-01 4.985437728464603424e-03 -5.553010702133178711e-01 2.300971187651157379e-03 1.263616681098937988e+00 -3.834952076431363821e-04 1.614514738321304321e-01 1.260548710823059082e+00 9.019806981086730957e-01 -9.798302054405212402e-01 -6.212622299790382385e-02 1.306951642036437988e+00 6.212622299790382385e-02 -1.256598758697509766e+01
0.000000000000000000e+00 -5.292233824729919434e-02 4.985437728464603424e-03 7.447476983070373535e-01 5.368932615965604782e-03 -5.549175739288330078e-01 2.300971187651157379e-03 1.263616681098937988e+00 -7.669904152862727642e-04 1.618349701166152954e-01 1.260548710823059082e+00 9.023641943931579590e-01 -9.794467091560363770e-01 -6.212622299790382385e-02 1.306951642036437988e+00 6.250971555709838867e-02 -1.256598758697509766e+01
0.000000000000000000e+00 -5.253884196281433105e-02 4.601942375302314758e-03 7.458981871604919434e-01 5.368932615965604782e-03 -5.545340776443481445e-01 1.917475950904190540e-03 1.264000177383422852e+00 -7.669904152862727642e-04 1.622184664011001587e-01 1.262082695960998535e+00 9.015972018241882324e-01 -9.798302054405212402e-01 -6.212622299790382385e-02 1.308102130889892578e+00 6.174272671341896057e-02 -1.256598758697509766e+01
0.000000000000000000e+00 -5.253884196281433105e-02 5.368932615965604782e-03 7.435972094535827637e-01 4.985437728464603424e-03 -5.553010702133178711e-01 1.917475950904190540e-03 1.264383673667907715e+00 -3.834952076431363821e-04 1.622184664011001587e-01 1.260932207107543945e+00 9.019806981086730957e-01 -9.802137017250061035e-01 -6.174272671341896057e-02 1.308102130889892578e+00 6.135923042893409729e-02 -1.256598758697509766e+01
0.000000000000000000e+00 -5.253884196281433105e-02 4.985437728464603424e-03 7.447476983070373535e-01 4.985437728464603424e-03 -5.553010702133178711e-01 1.533980830572545528e-03 1.263616681098937988e+00 -1.150485593825578690e-03 1.626019626855850220e-01 1.260932207107543945e+00 9.023641943931579590e-01 -9.805971980094909668e-01 -6.174272671341896057e-02 1.308485627174377441e+00 6.135923042893409729e-02 -1.256598758697509766e+01
0.000000000000000000e+00 -5.215534567832946777e-02 4.601942375302314758e-03 7.443642020225524902e-01 5.368932615965604782e-03 -5.545340776443481445e-01 2.300971187651157379e-03 1.264383673667907715e+00 -3.834952076431363821e-04 1.614514738321304321e-01 1.260165214538574219e+00 9.027476906776428223e-01 -9.798302054405212402e-01 -6.212622299790382385e-02 1.307718634605407715e+00 6.212622299790382385e-02 -1.256598758697509766e+01
0.000000000000000000e+00 -5.292233824729919434e-02 4.985437728464603424e-03 7.443642020225524902e-01 4.985437728464603424e-03 -5.553010702133178711e-01 1.533980830572545528e-03 1.263616681098937988e+00 -7.669904152862727642e-04 1.622184664011001587e-01 1.260165214538574219e+00 9.015972018241882324e-01 -9.798302054405212402e-01 -6.289321184158325195e-02 1.308485627174377441e+00 6.174272671341896057e-02 -1.256598758697509766e+01
0.000000000000000000e+00 -5.292233824729919434e-02 4.985437728464603424e-03 7.451311945915222168e-01 5.368932615965604782e-03 -5.553010702133178711e-01 2.300971187651157379e-03 1.264000177383422852e+00 0.000000000000000000e+00 1.614514738321304321e-01 1.259014725685119629e+00 9.015972018241882324e-01 -9.802137017250061035e-01 -6.250971555709838867e-02 1.308102130889892578e+00 6.135923042893409729e-02 -1.256598758697509766e+01
0.000000000000000000e+00 -5.292233824729919434e-02 4.601942375302314758e-03 7.443642020225524902e-01 4.985437728464603424e-03 -5.553010702133178711e-01 1.150485593825578690e-03 1.264000177383422852e+00 -7.669904152862727642e-04 1.622184664011001587e-01 1.260548710823059082e+00 9.023641943931579590e-01 -9.802137017250061035e-01 -6.212622299790382385e-02 1.308102130889892578e+00 6.135923042893409729e-02 -1.256598758697509766e+01
0.000000000000000000e+00 -5.253884196281433105e-02 5.368932615965604782e-03 7.447476983070373535e-01 5.368932615965604782e-03 -5.549175739288330078e-01 1.917475950904190540e-03 1.264000177383422852e+00 -1.150485593825578690e-03 1.614514738321304321e-01 1.259014725685119629e+00 9.019806981086730957e-01 -9.798302054405212402e-01 -6.212622299790382385e-02 1.308102130889892578e+00 6.174272671341896057e-02 -1.256598758697509766e+01
0.000000000000000000e+00 -5.253884196281433105e-02 4.601942375302314758e-03 7.443642020225524902e-01 5.752427969127893448e-03 -5.541505813598632812e-01 2.300971187651157379e-03 1.264000177383422852e+00 -3.834952076431363821e-04 1.618349701166152954e-01 1.259781718254089355e+00 9.023641943931579590e-01 -9.798302054405212402e-01 -6.289321184158325195e-02 1.307718634605407715e+00 6.212622299790382385e-02 -1.256598758697509766e+01
0.000000000000000000e+00 -5.177185311913490295e-02 5.368932615965604782e-03 7.443642020225524902e-01 5.368932615965604782e-03 -5.553010702133178711e-01 1.533980830572545528e-03 1.264000177383422852e+00 -7.669904152862727642e-04 1.622184664011001587e-01 1.258631229400634766e+00 9.012137055397033691e-01 -9.798302054405212402e-01 -6.250971555709838867e-02 1.306568145751953125e+00 6.250971555709838867e-02 -1.256598758697509766e+01
0.000000000000000000e+00 -5.292233824729919434e-02 4.601942375302314758e-03 7.443642020225524902e-01 5.368932615965604782e-03 -5.553010702133178711e-01 2.300971187651157379e-03 1.264383673667907715e+00 -1.533980830572545528e-03 1.618349701166152954e-01 1.258247733116149902e+00 9.019806981086730957e-01 -9.805971980094909668e-01 -6.250971555709838867e-02 1.306951642036437988e+00 6.212622299790382385e-02 -1.256598758697509766e+01
0.000000000000000000e+00 -5.292233824729919434e-02 5.368932615965604782e-03 7.443642020225524902e-01 5.368932615965604782e-03 -5.553010702133178711e-01 2.684466307982802391e-03 1.264383673667907715e+00 -3.834952076431363821e-04 1.618349701166152954e-01 1.257864236831665039e+00 9.019806981086730957e-01 -9.802137017250061035e-01 -6.289321184158325195e-02 1.306568145751953125e+00 6.212622299790382385e-02 -1.256598758697509766e+01
0.000000000000000000e+00 -5.292233824729919434e-02 4.985437728464603424e-03 7.443642020225524902e-01 5.752427969127893448e-03 -5.553010702133178711e-01 2.300971187651157379e-03 1.264000177383422852e+00 -7.669904152862727642e-04 1.618349701166152954e-01 1.256713747978210449e+00 9.023641943931579590e-01 -9.802137017250061035e-01 -6.289321184158325195e-02 1.306568145751953125e+00 6.212622299790382385e-02 -1.256598758697509766e+01
0.000000000000000000e+00 -5.292233824729919434e-02 5.368932615965604782e-03 7.443642020225524902e-01 5.368932615965604782e-03 -5.549175739288330078e-01 2.684466307982802391e-03 1.263616681098937988e+00 -7.669904152862727642e-04 1.618349701166152954e-01 1.257097244262695312e+00 9.027476906776428223e-01 -9.805971980094909668e-01 -6.250971555709838867e-02 1.307335138320922852e+00 6.174272671341896057e-02 -1.256598758697509766e+01
0.000000000000000000e+00 -5.177185311913490295e-02 4.985437728464603424e-03 7.435972094535827637e-01 5.368932615965604782e-03 -5.549175739288330078e-01 1.917475950904190540e-03 1.263233184814453125e+00 -7.669904152862727642e-04 1.622184664011001587e-01 1.256330251693725586e+00 9.015972018241882324e-01 -9.802137017250061035e-01 -6.289321184158325195e-02 1.307335138320922852e+00 6.212622299790382385e-02 -1.256598758697509766e+01
0.000000000000000000e+00 -5.253884196281433105e-02 4.601942375302314758e-03 7.435972094535827637e-01 5.368932615965604782e-03 -5.556845664978027344e-01 2.300971187651157379e-03 1.263616681098937988e+00 -7.669904152862727642e-04 1.606844812631607056e-01 1.255563259124755859e+00 9.019806981086730957e-01 -9.802137017250061035e-01 -6.289321184158325195e-02 1.306951642036437988e+00 6.135923042893409729e-02 -1.256598758697509766e+01
0.000000000000000000e+00 -5.253884196281433105e-02 4.985437728464603424e-03 7.447476983070373535e-01 4.985437728464603424e-03 -5.553010702133178711e-01 1.917475950904190540e-03 1.264383673667907715e+00 -7.669904152862727642e-04 1.614514738321304321e-01 1.254796266555786133e+00 9.012137055397033691e-01 -9.794467091560363770e-01 -6.327670812606811523e-02 1.307335138320922852e+00 6.212622299790382385e-02 -1.256598758697509766e+01
0.000000000000000000e+00 -5.292233824729919434e-02 4.985437728464603424e-03 7.435972094535827637e-01 5.368932615965604782e-03 -5.549175739288330078e-01 1.917475950904190540e-03 1.263616681098937988e+00 -3.834952076431363821e-04 1.610679775476455688e-01 1.254029273986816406e+00 9.019806981086730957e-01 -9.798302054405212402e-01 -6.327670812606811523e-02 1.307335138320922852e+00 6.289321184158325195e-02 -1.256598758697509766e+01
0.000000000000000000e+00 -5.253884196281433105e-02 4.985437728464603424e-03 7.443642020225524902e-01 4.985437728464603424e-03 -5.545340776443481445e-01 1.533980830572545528e-03 1.264000177383422852e+00 -3.834952076431363821e-04 1.614514738321304321e-01 1.253262281417846680e+00 9.015972018241882324e-01 -9.798302054405212402e-01 -6.250971555709838867e-02 1.307718634605407715e+00 6.174272671341896057e-02 -1.256598758697509766e+01
0.000000000000000000e+00 -5.292233824729919434e-02 4.218447022140026093e-03 7.451311945915222168e-01 5.368932615965604782e-03 -5.553010702133178711e-01 2.684466307982802391e-03 1.264767169952392578e+00 -3.834952076431363821e-04 1.610679775476455688e-01 1.252495288848876953e+00 9.004467129707336426e-01 -9.794467091560363770e-01 -6.289321184158325195e-02 1.306951642036437988e+00 6.174272671341896057e-02 -1.256598758697509766e+01
0.000000000000000000e+00 -5.292233824729919434e-02 4.218447022140026093e-03 7.443642020225524902e-01 5.752427969127893448e-03 -5.553010702133178711e-01 2.300971187651157379e-03 1.264000177383422852e+00 -7.669904152862727642e-04 1.614514738321304321e-01 1.251728296279907227e+00 9.000632166862487793e-01 -9.794467091560363770e-01 -6.212622299790382385e-02 1.307718634605407715e+00 6.212622299790382385e-02 -1.256598758697509766e+01
0.000000000000000000e+00 -5.292233824729919434e-02 4.985437728464603424e-03 7.435972094535827637e-01 5.368932615965604782e-03 -5.549175739288330078e-01 1.917475950904190540e-03 1.264000177383422852e+00 -3.834952076431363821e-04 1.606844812631607056e-01 1.251728296279907227e+00 9.000632166862487793e-01 -9.794467091560363770e-01 -6.250971555709838867e-02 1.306951642036437988e+00 6.212622299790382385e-02 -1.256598758697509766e+01
0.000000000000000000e+00 -5.253884196281433105e-02 4.601942375302314758e-03 7.447476983070373535e-01 5.368932615965604782e-03 -5.549175739288330078e-01 1.533980830572545528e-03 1.264000177383422852e+00 -3.834952076431363821e-04 1.606844812631607056e-01 1.250194311141967773e+00 8.996797204017639160e-01 -9.794467091560363770e-01 -6.289321184158325195e-02 1.308102130889892578e+00 6.250971555709838867e-02 -1.256598758697509766e+01
0.000000000000000000e+00 -5.292233824729919434e-02 4.218447022140026093e-03 7.447476983070373535e-01 4.985437728464603424e-03 -5.545340776443481445e-01 1.917475950904190540e-03 1.264000177383422852e+00 -1.150485593825578690e-03 1.614514738321304321e-01 1.249043822288513184e+00 8.996797204017639160e-01 -9.790632128715515137e-01 -6.327670812606811523e-02 1.307335138320922852e+00 6.174272671341896057e-02 -1.256598758697509766e+01
0.000000000000000000e+00 -5.253884196281433105e-02 4.601942375302314758e-03 7.447476983070373535e-01 5.368932615965604782e-03 -5.545340776443481445e-01 1.917475950904190540e-03 1.263616681098937988e+00 -3.834952076431363821e-04 1.606844812631607056e-01 1.248276829719543457e+00 8.992962241172790527e-01 -9.794467091560363770e-01 -6.212622299790382385e-02 1.307718634605407715e+00 6.212622299790382385e-02 -1.256598758697509766e+01
0.000000000000000000e+00 -5.292233824729919434e-02 5.368932615965604782e-03 7.435972094535827637e-01 4.985437728464603424e-03 -5.549175739288330078e-01 1.917475950904190540e-03 1.263616681098937988e+00 -1.150485593825578690e-03 1.606844812631607056e-01 1.247893333435058594e+00 8.985292315483093262e-01 -9.798302054405212402e-01 -6.289321184158325195e-02 1.307335138320922852e+00 6.212622299790382385e-02 -1.256598758697509766e+01
0.000000000000000000e+00 -5.253884196281433105e-02 4.985437728464603424e-03 7.443642020225524902e-01 5.368932615965604782e-03 -5.549175739288330078e-01 1.917475950904190540e-03 1.264000177383422852e+00 0.000000000000000000e+00 1.606844812631607056e-01 1.245208859443664551e+00 8.969952464103698730e-01 -9.794467091560363770e-01 -6.250971555709838867e-02 1.308102130889892578e+00 6.289321184158325195e-02 -1.256598758697509766e+01
0.000000000000000000e+00 -5.292233824729919434e-02 5.368932615965604782e-03 7.447476983070373535e-01 5.752427969127893448e-03 -5.556845664978027344e-01 2.300971187651157379e-03 1.263616681098937988e+00 -3.834952076431363821e-04 1.606844812631607056e-01 1.244825363159179688e+00 8.973787426948547363e-01 -9.794467091560363770e-01 -6.250971555709838867e-02 1.308485627174377441e+00 6.250971555709838867e-02 -1.256598758697509766e+01
0.000000000000000000e+00 -5.253884196281433105e-02 4.601942375302314758e-03 7.443642020225524902e-01 5.368932615965604782e-03 -5.553010702133178711e-01 1.533980830572545528e-03 1.263233184814453125e+00 -7.669904152862727642e-04 1.614514738321304321e-01 1.242140889167785645e+00 8.962282538414001465e-01 -9.794467091560363770e-01 -6.289321184158325195e-02 1.308102130889892578e+00 6.212622299790382385e-02 -1.256598758697509766e+01
0.000000000000000000e+00 -5.292233824729919434e-02 5.368932615965604782e-03 7.443642020225524902e-01 5.752427969127893448e-03 -5.549175739288330078e-01 2.300971187651157379e-03 1.264383673667907715e+00 -1.150485593825578690e-03 1.618349701166152954e-01 1.240990400314331055e+00 8.962282538414001465e-01 -9.798302054405212402e-01 -6.250971555709838867e-02 1.309252619743347168e+00 6.174272671341896057e-02 -1.256598758697509766e+01
0.000000000000000000e+00 -5.292233824729919434e-02 4.218447022140026093e-03 7.447476983070373535e-01 5.368932615965604782e-03 -5.549175739288330078e-01 1.533980830572545528e-03 1.264000177383422852e+00 -7.669904152862727642e-04 1.610679775476455688e-01 1.239456534385681152e+00 8.954612612724304199e-01 -9.794467091560363770e-01 -6.250971555709838867e-02 1.310019612312316895e+00 6.250971555709838867e-02 -1.256598758697509766e+01
0.000000000000000000e+00 -5.253884196281433105e-02 4.985437728464603424e-03 7.447476983070373535e-01 5.368932615965604782e-03 -5.549175739288330078e-01 2.300971187651157379e-03 1.264383673667907715e+00 0.000000000000000000e+00 1.618349701166152954e-01 1.237155556678771973e+00 8.939272761344909668e-01 -9.798302054405212402e-01 -6.289321184158325195e-02 1.310019612312316895e+00 6.250971555709838867e-02 -1.256598758697509766e+01
0.000000000000000000e+00 -5.292233824729919434e-02 4.218447022140026093e-03 7.447476983070373535e-01 5.368932615965604782e-03 -5.545340776443481445e-01 1.917475950904190540e-03 1.264000177383422852e+00 -1.150485593825578690e-03 1.610679775476455688e-01 1.236005067825317383e+00 8.943107724189758301e-01 -9.809806942939758301e-01 -6.250971555709838867e-02 1.310786604881286621e+00 6.174272671341896057e-02 -1.256598758697509766e+01
0.000000000000000000e+00 -5.253884196281433105e-02 4.601942375302314758e-03 7.447476983070373535e-01 5.368932615965604782e-03 -5.549175739288330078e-01 1.533980830572545528e-03 1.263616681098937988e+00 -3.834952076431363821e-04 1.610679775476455688e-01 1.233704090118408203e+00 8.931603431701660156e-01 -9.805971980094909668e-01 -6.327670812606811523e-02 1.311553597450256348e+00 6.135923042893409729e-02 -1.256598758697509766e+01
