0.000000000000000000e+00 -5.253884196281433105e-02 4.601942375302314758e-03 7.447476983070373535e-01 4.985437728464603424e-03 -5.553010702133178711e-01 2.684466307982802391e-03 1.265150666236877441e+00 -1.150485593825578690e-03 1.622184664011001587e-01 1.263233184814453125e+00 9.023641943931579590e-01 -9.759953022003173828e-01 -6.097573786973953247e-02 1.293145775794982910e+00 6.212622299790382385e-02 -1.256598758697509766e+01
0.000000000000000000e+00 -5.215534567832946777e-02 4.218447022140026093e-03 7.451311945915222168e-01 4.985437728464603424e-03 -5.541505813598632812e-01 1.917475950904190540e-03 1.264000177383422852e+00 -7.669904152862727642e-04 1.622184664011001587e-01 1.262849688529968262e+00 9.015972018241882324e-01 -9.759953022003173828e-01 -6.059224158525466919e-02 1.293145775794982910e+00 6.135923042893409729e-02 -1.256598758697509766e+01
0.000000000000000000e+00 -5.292233824729919434e-02 5.368932615965604782e-03 7.451311945915222168e-01 5.368932615965604782e-03 -5.545340776443481445e-01 1.917475950904190540e-03 1.264767169952392578e+00 -1.150485593825578690e-03 1.622184664011001587e-01 1.262466192245483398e+00 9.023641943931579590e-01 -9.767622947692871094e-01 -6.097573786973953247e-02 1.293145775794982910e+00 6.174272671341896057e-02 -1.256598758697509766e+01
0.000000000000000000e+00 -5.253884196281433105e-02 4.218447022140026093e-03 7.447476983070373535e-01 4.985437728464603424e-03 -5.545340776443481445e-01 2.300971187651157379e-03 1.264767169952392578e+00 -7.669904152862727642e-04 1.618349701166152954e-01 1.262849688529968262e+00 9.012137055397033691e-01 -9.756118059158325195e-01 -6.097573786973953247e-02 1.292762279510498047e+00 6.212622299790382385e-02 -1.256598758697509766e+01
0.000000000000000000e+00 -5.292233824729919434e-02 4.601942375302314758e-03 7.443642020225524902e-01 5.368932615965604782e-03 -5.545340776443481445e-01 2.684466307982802391e-03 1.264000177383422852e+00 7.669904152862727642e-04 1.626019626855850220e-01 1.262466192245483398e+00 9.023641943931579590e-01 -9.752283096313476562e-01 -6.097573786973953247e-02 1.293145775794982910e+00 6.135923042893409729e-02 -1.256598758697509766e+01
0.000000000000000000e+00 -5.292233824729919434e-02 4.985437728464603424e-03 7.447476983070373535e-01 5.368932615965604782e-03 -5.553010702133178711e-01 1.533980830572545528e-03 1.264000177383422852e+00 -7.669904152862727642e-04 1.618349701166152954e-01 1.262849688529968262e+00 9.015972018241882324e-01 -9.771457910537719727e-01 -6.174272671341896057e-02 1.293145775794982910e+00 6.174272671341896057e-02 -1.256598758697509766e+01
0.000000000000000000e+00 -5.253884196281433105e-02 5.368932615965604782e-03 7.451311945915222168e-01 4.985437728464603424e-03 -5.545340776443481445e-01 2.300971187651157379e-03 1.264383673667907715e+00 0.000000000000000000e+00 1.618349701166152954e-01 1.263233184814453125e+00 9.019806981086730957e-01 -9.763787984848022461e-01 -6.097573786973953247e-02 1.292762279510498047e+00 6.250971555709838867e-02 -1.256598758697509766e+01
0.000000000000000000e+00 -5.253884196281433105e-02 4.601942375302314758e-03 7.447476983070373535e-01 4.985437728464603424e-03 -5.545340776443481445e-01 1.533980830572545528e-03 1.264383673667907715e+00 -3.834952076431363821e-04 1.626019626855850220e-01 1.263233184814453125e+00 9.023641943931579590e-01 -9.763787984848022461e-01 -6.135923042893409729e-02 1.292378783226013184e+00 6.135923042893409729e-02 -1.256598758697509766e+01
0.000000000000000000e+00 -5.253884196281433105e-02 4.601942375302314758e-03 7.443642020225524902e-01 4.985437728464603424e-03 -5.549175739288330078e-01 1.917475950904190540e-03 1.264000177383422852e+00 -1.150485593825578690e-03 1.618349701166152954e-01 1.262849688529968262e+00 9.015972018241882324e-01 -9.756118059158325195e-01 -6.097573786973953247e-02 1.293145775794982910e+00 6.212622299790382385e-02 -1.256598758697509766e+01
0.000000000000000000e+00 -5.253884196281433105e-02 4.601942375302314758e-03 7.443642020225524902e-01 4.985437728464603424e-03 -5.549175739288330078e-01 2.300971187651157379e-03 1.264000177383422852e+00 -7.669904152862727642e-04 1.614514738321304321e-01 1.262466192245483398e+00 9.023641943931579590e-01 -9.763787984848022461e-01 -6.020874530076980591e-02 1.293145775794982910e+00 6.212622299790382385e-02 -1.256598758697509766e+01
0.000000000000000000e+00 -5.253884196281433105e-02 4.985437728464603424e-03 7.443642020225524902e-01 5.368932615965604782e-03 -5.549175739288330078e-01 2.300971187651157379e-03 1.264383673667907715e+00 -7.669904152862727642e-04 1.610679775476455688e-01 1.262082695960998535e+00 9.019806981086730957e-01 -9.767622947692871094e-01 -6.020874530076980591e-02 1.292762279510498047e+00 6.135923042893409729e-02 -1.256598758697509766e+01
0.000000000000000000e+00 -5.292233824729919434e-02 4.601942375302314758e-03 7.447476983070373535e-01 4.601942375302314758e-03 -5.553010702133178711e-01 1.917475950904190540e-03 1.264767169952392578e+00 -1.150485593825578690e-03 1.614514738321304321e-01 1.262466192245483398e+00 9.023641943931579590e-01 -9.763787984848022461e-01 -6.097573786973953247e-02 1.292762279510498047e+00 6.174272671341896057e-02 -1.256598758697509766e+01
0.000000000000000000e+00 -5.253884196281433105e-02 4.985437728464603424e-03 7.447476983070373535e-01 4.985437728464603424e-03 -5.553010702133178711e-01 2.300971187651157379e-03 1.264767169952392578e+00 -1.150485593825578690e-03 1.618349701166152954e-01 1.263233184814453125e+00 9.023641943931579590e-01 -9.763787984848022461e-01 -6.097573786973953247e-02 1.292378783226013184e+00 6.135923042893409729e-02 -1.256598758697509766e+01
0.000000000000000000e+00 -5.292233824729919434e-02 4.601942375302314758e-03 7.443642020225524902e-01 5.368932615965604782e-03 -5.553010702133178711e-01 2.300971187651157379e-03 1.264000177383422852e+00 -3.834952076431363821e-04 1.618349701166152954e-01 1.263616681098937988e+00 9.019806981086730957e-01 -9.759953022003173828e-01 -6.059224158525466919e-02 1.292762279510498047e+00 6.174272671341896057e-02 -1.256598758697509766e+01
0.000000000000000000e+00 -5.253884196281433105e-02 5.368932615965604782e-03 7.443642020225524902e-01 5.368932615965604782e-03 -5.549175739288330078e-01 2.300971187651157379e-03 1.264383673667907715e+00 -7.669904152862727642e-04 1.610679775476455688e-01 1.263233184814453125e+00 9.023641943931579590e-01 -9.759953022003173828e-01 -6.059224158525466919e-02 1.293529272079467773e+00 6.212622299790382385e-02 -1.256598758697509766e+01
0.000000000000000000e+00 -5.292233824729919434e-02 4.601942375302314758e-03 7.443642020225524902e-01 4.985437728464603424e-03 -5.545340776443481445e-01 2.300971187651157379e-03 1.264383673667907715e+00 -3.834952076431363821e-04 1.618349701166152954e-01 1.263616681098937988e+00 9.023641943931579590e-01 -9.756118059158325195e-01 -6.059224158525466919e-02 1.292762279510498047e+00 6.212622299790382385e-02 -1.256598758697509766e+01
0.000000000000000000e+00 -5.292233824729919434e-02 4.985437728464603424e-03 7.447476983070373535e-01 5.368932615965604782e-03 -5.549175739288330078e-01 2.300971187651157379e-03 1.264000177383422852e+00 -3.834952076431363821e-04 1.614514738321304321e-01 1.262849688529968262e+00 9.015972018241882324e-01 -9.756118059158325195e-01 -6.135923042893409729e-02 1.293145775794982910e+00 6.174272671341896057e-02 -1.256598758697509766e+01
0.000000000000000000e+00 -5.292233824729919434e-02 5.368932615965604782e-03 7.447476983070373535e-01 6.135923322290182114e-03 -5.556845664978027344e-01 1.917475950904190540e-03 1.265150666236877441e+00 -7.669904152862727642e-04 1.626019626855850220e-01 1.262849688529968262e+00 9.019806981086730957e-01 -9.759953022003173828e-01 -6.020874530076980591e-02 1.292762279510498047e+00 6.174272671341896057e-02 -1.256598758697509766e+01
0.000000000000000000e+00 -5.253884196281433105e-02 4.985437728464603424e-03 7.451311945915222168e-01 4.985437728464603424e-03 -5.545340776443481445e-01 2.300971187651157379e-03 1.264383673667907715e+00 -1.150485593825578690e-03 1.618349701166152954e-01 1.263616681098937988e+00 9.023641943931579590e-01 -9.759953022003173828e-01 -6.059224158525466919e-02 1.293145775794982910e+00 6.212622299790382385e-02 -1.256598758697509766e+01
0.000000000000000000e+00 -5.253884196281433105e-02 4.601942375302314758e-03 7.447476983070373535e-01 5.368932615965604782e-03 -5.553010702133178711e-01 2.300971187651157379e-03 1.264000177383422852e+00 -7.669904152862727642e-04 1.614514738321304321e-01 1.263233184814453125e+00 9.019806981086730957e-01 -9.759953022003173828e-01 -6.097573786973953247e-02 1.292762279510498047e+00 6.174272671341896057e-02 -1.256598758697509766e+01
0.000000000000000000e+00 -5.292233824729919434e-02 4.985437728464603424e-03 7.435972094535827637e-01 4.601942375302314758e-03 -5.556845664978027344e-01 2.300971187651157379e-03 1.263616681098937988e+00 0.000000000000000000e+00 1.610679775476455688e-01 1.262466192245483398e+00 9.019806981086730957e-01 -9.756118059158325195e-01 -6.059224158525466919e-02 1.293145775794982910e+00 6.250971555709838867e-02 -1.256598758697509766e+01
0.000000000000000000e+00 -5.292233824729919434e-02 4.985437728464603424e-03 7.447476983070373535e-01 5.368932615965604782e-03 -5.545340776443481445e-01 2.300971187651157379e-03 1.264000177383422852e+00 -7.669904152862727642e-04 1.614514738321304321e-01 1.263616681098937988e+00 9.023641943931579590e-01 -9.763787984848022461e-01 -6.097573786973953247e-02 1.292378783226013184e+00 6.212622299790382385e-02 -1.256598758697509766e+01
0.000000000000000000e+00 -5.215534567832946777e-02 5.368932615965604782e-03 7.451311945915222168e-01 5.752427969127893448e-03 -5.556845664978027344e-01 2.300971187651157379e-03 1.264000177383422852e+00 -1.150485593825578690e-03 1.626019626855850220e-01 1.262849688529968262e+00 9.019806981086730957e-01 -9.763787984848022461e-01 -6.059224158525466919e-02 1.292378783226013184e+00 6.135923042893409729e-02 -1.256598758697509766e+01
0.000000000000000000e+00 -5.253884196281433105e-02 4.601942375302314758e-03 7.451311945915222168e-01 4.985437728464603424e-03 -5.553010702133178711e-01 2.300971187651157379e-03 1.264383673667907715e+00 -7.669904152862727642e-04 1.626019626855850220e-01 1.262849688529968262e+00 9.015972018241882324e-01 -9.759953022003173828e-01 -6.097573786973953247e-02 1.292762279510498047e+00 6.174272671341896057e-02 -1.256598758697509766e+01
0.000000000000000000e+00 -5.253884196281433105e-02 4.218447022140026093e-03 7.447476983070373535e-01 5.368932615965604782e-03 -5.545340776443481445e-01 2.300971187651157379e-03 1.264000177383422852e+00 -3.834952076431363821e-04 1.618349701166152954e-01 1.263233184814453125e+00 9.023641943931579590e-01 -9.763787984848022461e-01 -6.097573786973953247e-02 1.292378783226013184e+00 6.135923042893409729e-02 -1.256598758697509766e+01
0.000000000000000000e+00 -5.292233824729919434e-02 4.601942375302314758e-03 7.447476983070373535e-01 5.752427969127893448e-03 -5.545340776443481445e-01 1.917475950904190540e-03 1.264383673667907715e+00 -7.669904152862727642e-04 1.622184664011001587e-01 1.263233184814453125e+00 9.019806981086730957e-01 -9.759953022003173828e-01 -6.097573786973953247e-02 1.293145775794982910e+00 6.174272671341896057e-02 -1.256598758697509766e+01
0.000000000000000000e+00 -5.330583080649375916e-02 4.601942375302314758e-03 7.447476983070373535e-01 5.752427969127893448e-03 -5.549175739288330078e-01 2.300971187651157379e-03 1.264383673667907715e+00 -7.669904152862727642e-04 1.610679775476455688e-01 1.262849688529968262e+00 9.019806981086730957e-01 -9.763787984848022461e-01 -6.059224158525466919e-02 1.293145775794982910e+00 6.212622299790382385e-02 -1.256598758697509766e+01
0.000000000000000000e+00 -5.292233824729919434e-02 4.601942375302314758e-03 7.443642020225524902e-01 4.985437728464603424e-03 -5.553010702133178711e-01 1.533980830572545528e-03 1.264767169952392578e+00 -1.150485593825578690e-03 1.614514738321304321e-01 1.264000177383422852e+00 9.023641943931579590e-01 -9.759953022003173828e-01 -6.059224158525466919e-02 1.292762279510498047e+00 6.174272671341896057e-02 -1.256598758697509766e+01
0.000000000000000000e+00 -5.253884196281433105e-02 4.601942375302314758e-03 7.443642020225524902e-01 5.368932615965604782e-03 -5.549175739288330078e-01 2.300971187651157379e-03 1.264000177383422852e+00 -1.150485593825578690e-03 1.622184664011001587e-01 1.263233184814453125e+00 9.027476906776428223e-01 -9.759953022003173828e-01 -6.059224158525466919e-02 1.293145775794982910e+00 6.135923042893409729e-02 -1.256598758697509766e+01
0.000000000000000000e+00 -5.253884196281433105e-02 4.985437728464603424e-03 7.443642020225524902e-01 5.368932615965604782e-03 -5.553010702133178711e-01 1.533980830572545528e-03 1.264767169952392578e+00 -3.834952076431363821e-04 1.618349701166152954e-01 1.262849688529968262e+00 9.019806981086730957e-01 -9.763787984848022461e-01 -6.097573786973953247e-02 1.292762279510498047e+00 6.174272671341896057e-02 -1.256598758697509766e+01
0.000000000000000000e+00 -5.215534567832946777e-02 4.601942375302314758e-03 7.447476983070373535e-01 4.601942375302314758e-03 -5.545340776443481445e-01 2.300971187651157379e-03 1.264383673667907715e+00 -3.834952076431363821e-04 1.622184664011001587e-01 1.262466192245483398e+00 9.027476906776428223e-01 -9.767622947692871094e-01 -6.097573786973953247e-02 1.292378783226013184e+00 6.289321184158325195e-02 -1.256598758697509766e+01
0.000000000000000000e+00 -5.253884196281433105e-02 4.985437728464603424e-03 7.443642020225524902e-01 4.601942375302314758e-03 -5.556845664978027344e-01 2.300971187651157379e-03 1.264000177383422852e+00 -3.834952076431363821e-04 1.622184664011001587e-01 1.263233184814453125e+00 9.015972018241882324e-01 -9.759953022003173828e-01 -6.135923042893409729e-02 1.293145775794982910e+00 6.174272671341896057e-02 -1.256598758697509766e+01
0.000000000000000000e+00 -5.292233824729919434e-02 5.368932615965604782e-03 7.447476983070373535e-01 4.985437728464603424e-03 -5.553010702133178711e-01 2.684466307982802391e-03 1.264383673667907715e+00 -1.150485593825578690e-03 1.618349701166152954e-01 1.263616681098937988e+00 9.019806981086730957e-01 -9.763787984848022461e-01 -6.097573786973953247e-02 1.292378783226013184e+00 6.135923042893409729e-02 -1.256598758697509766e+01
0.000000000000000000e+00 -5.292233824729919434e-02 4.601942375302314758e-03 7.447476983070373535e-01 5.752427969127893448e-03 -5.556845664978027344e-01 2.300971187651157379e-03 1.264000177383422852e+00 -1.150485593825578690e-03 1.618349701166152954e-01 1.263616681098937988e+00 9.023641943931579590e-01 -9.756118059158325195e-01 -6.135923042893409729e-02 1.292762279510498047e+00 6.212622299790382385e-02 -1.256598758697509766e+01
0.000000000000000000e+00 -5.292233824729919434e-02 4.601942375302314758e-03 7.447476983070373535e-01 5.368932615965604782e-03 -5.556845664978027344e-01 1.917475950904190540e-03 1.264000177383422852e+00 -7.669904152862727642e-04 1.614514738321304321e-01 1.263616681098937988e+00 9.019806981086730957e-01 -9.756118059158325195e-01 -6.097573786973953247e-02 1.293145775794982910e+00 6.174272671341896057e-02 -1.256598758697509766e+01
0.000000000000000000e+00 -5.292233824729919434e-02 4.601942375302314758e-03 7.447476983070373535e-01 4.985437728464603424e-03 -5.545340776443481445e-01 2.300971187651157379e-03 1.264383673667907715e+00 -3.834952076431363821e-04 1.614514738321304321e-01 1.262849688529968262e+00 9.027476906776428223e-01 -9.763787984848022461e-01 -6.059224158525466919e-02 1.293529272079467773e+00 6.135923042893409729e-02 -1.256598758697509766e+01
0.000000000000000000e+00 -5.253884196281433105e-02 4.601942375302314758e-03 7.443642020225524902e-01 4.985437728464603424e-03 -5.553010702133178711e-01 2.300971187651157379e-03 1.264000177383422852e+00 -3.834952076431363821e-04 1.614514738321304321e-01 1.263616681098937988e+00 9.015972018241882324e-01 -9.759953022003173828e-01 -6.097573786973953247e-02 1.293529272079467773e+00 6.174272671341896057e-02 -1.256598758697509766e+01
0.000000000000000000e+00 -5.253884196281433105e-02 5.368932615965604782e-03 7.451311945915222168e-01 4.985437728464603424e-03 -5.553010702133178711e-01 2.684466307982802391e-03 1.263616681098937988e+00 -7.669904152862727642e-04 1.618349701166152954e-01 1.263616681098937988e+00 9.019806981086730957e-01 -9.763787984848022461e-01 -6.135923042893409729e-02 1.293529272079467773e+00 6.174272671341896057e-02 -1.256598758697509766e+01
0.000000000000000000e+00 -5.292233824729919434e-02 5.368932615965604782e-03 7.451311945915222168e-01 5.368932615965604782e-03 -5.545340776443481445e-01 2.300971187651157379e-03 1.264000177383422852e+00 -1.150485593825578690e-03 1.618349701166152954e-01 1.262849688529968262e+00 9.019806981086730957e-01 -9.759953022003173828e-01 -6.059224158525466919e-02 1.293145775794982910e+00 6.174272671341896057e-02 -1.256598758697509766e+01
0.000000000000000000e+00 -5.253884196281433105e-02 5.368932615965604782e-03 7.443642020225524902e-01 5.752427969127893448e-03 -5.553010702133178711e-01 2.300971187651157379e-03 1.263616681098937988e+00 -7.669904152862727642e-04 1.618349701166152954e-01 1.263616681098937988e+00 9.019806981086730957e-01 -9.759953022003173828e-01 -6.135923042893409729e-02 1.293145775794982910e+00 6.135923042893409729e-02 -1.256598758697509766e+01
0.000000000000000000e+00 -5.253884196281433105e-02 4.601942375302314758e-03 7.447476983070373535e-01 5.368932615965604782e-03 -5.545340776443481445e-01 2.684466307982802391e-03 1.264383673667907715e+00 -3.834952076431363821e-04 1.622184664011001587e-01 1.262466192245483398e+00 9.019806981086730957e-01 -9.759953022003173828e-01 -6.097573786973953247e-02 1.292762279510498047e+00 6.174272671341896057e-02 -1.256598758697509766e+01
0.000000000000000000e+00 -5.253884196281433105e-02 5.368932615965604782e-03 7.447476983070373535e-01 4.985437728464603424e-03 -5.549175739288330078e-01 1.917475950904190540e-03 1.264383673667907715e+00 0.000000000000000000e+00 1.622184664011001587e-01 1.263233184814453125e+00 9.019806981086730957e-01 -9.759953022003173828e-01 -6.059224158525466919e-02 1.293145775794982910e+00 6.174272671341896057e-02 -1.256598758697509766e+01
0.000000000000000000e+00 -5.253884196281433105e-02 4.985437728464603424e-03 7.447476983070373535e-01 4.601942375302314758e-03 -5.549175739288330078e-01 1.917475950904190540e-03 1.264000177383422852e+00 -3.834952076431363821e-04 1.614514738321304321e-01 1.263233184814453125e+00 9.019806981086730957e-01 -9.759953022003173828e-01 -6.097573786973953247e-02 1.293145775794982910e+00 6.212622299790382385e-02 -1.256598758697509766e+01
0.000000000000000000e+00 -5.253884196281433105e-02 4.601942375302314758e-03 7.447476983070373535e-01 4.985437728464603424e-03 -5.549175739288330078e-01 1.533980830572545528e-03 1.264767169952392578e+00 -7.669904152862727642e-04 1.618349701166152954e-01 1.263616681098937988e+00 9.019806981086730957e-01 -9.756118059158325195e-01 -6.097573786973953247e-02 1.293145775794982910e+00 6.174272671341896057e-02 -1.256598758697509766e+01
0.000000000000000000e+00 -5.292233824729919434e-02 4.601942375302314758e-03 7.447476983070373535e-01 4.985437728464603424e-03 -5.541505813598632812e-01 2.300971187651157379e-03 1.264767169952392578e+00 -1.150485593825578690e-03 1.622184664011001587e-01 1.263616681098937988e+00 9.015972018241882324e-01 -9.767622947692871094e-01 -6.097573786973953247e-02 1.293529272079467773e+00 6.174272671341896057e-02 -1.256598758697509766e+01
0.000000000000000000e+00 -5.292233824729919434e-02 5.368932615965604782e-03 7.443642020225524902e-01 4.601942375302314758e-03 -5.545340776443481445e-01 2.300971187651157379e-03 1.264383673667907715e+00 -1.533980830572545528e-03 1.618349701166152954e-01 1.264000177383422852e+00 9.019806981086730957e-01 -9.756118059158325195e-01 -6.135923042893409729e-02 1.293145775794982910e+00 6.174272671341896057e-02 -1.256598758697509766e+01
0.000000000000000000e+00 -5.292233824729919434e-02 4.601942375302314758e-03 7.447476983070373535e-01 5.368932615965604782e-03 -5.545340776443481445e-01 2.300971187651157379e-03 1.264383673667907715e+00 -3.834952076431363821e-04 1.622184664011001587e-01 1.263233184814453125e+00 9.023641943931579590e-01 -9.763787984848022461e-01 -6.059224158525466919e-02 1.292762279510498047e+00 6.174272671341896057e-02 -1.256598758697509766e+01
0.000000000000000000e+00 -5.292233824729919434e-02 4.985437728464603424e-03 7.443642020225524902e-01 4.985437728464603424e-03 -5.541505813598632812e-01 1.917475950904190540e-03 1.264383673667907715e+00 0.000000000000000000e+00 1.622184664011001587e-01 1.263233184814453125e+00 9.012137055397033691e-01 -9.763787984848022461e-01 -6.097573786973953247e-02 1.292762279510498047e+00 6.174272671341896057e-02 -1.256598758697509766e+01
0.000000000000000000e+00 -5.292233824729919434e-02 4.218447022140026093e-03 7.435972094535827637e-01 5.368932615965604782e-03 -5.549175739288330078e-01 2.300971187651157379e-03 1.264383673667907715e+00 -3.834952076431363821e-04 1.614514738321304321e-01 1.263233184814453125e+00 9.023641943931579590e-01 -9.756118059158325195e-01 -6.135923042893409729e-02 1.293529272079467773e+00 6.212622299790382385e-02 -1.256598758697509766e+01
0.000000000000000000e+00 -5.292233824729919434e-02 5.368932615965604782e-03 7.447476983070373535e-01 5.368932615965604782e-03 -5.549175739288330078e-01 2.300971187651157379e-03 1.264767169952392578e+00 -7.669904152862727642e-04 1.626019626855850220e-01 1.263616681098937988e+00 9.023641943931579590e-01 -9.759953022003173828e-01 -6.059224158525466919e-02 1.293529272079467773e+00 6.174272671341896057e-02 -1.256598758697509766e+01
0.000000000000000000e+00 -5.292233824729919434e-02 4.218447022140026093e-03 7.451311945915222168e-01 5.368932615965604782e-03 -5.549175739288330078e-01 2.684466307982802391e-03 1.264383673667907715e+00 -7.669904152862727642e-04 1.610679775476455688e-01 1.263616681098937988e+00 9.015972018241882324e-01 -9.756118059158325195e-01 -6.059224158525466919e-02 1.294296264648437500e+00 6.174272671341896057e-02 -1.256598758697509766e+01
0.000000000000000000e+00 -5.292233824729919434e-02 4.985437728464603424e-03 7.443642020225524902e-01 5.752427969127893448e-03 -5.556845664978027344e-01 3.067961661145091057e-03 1.264383673667907715e+00 -1.150485593825578690e-03 1.622184664011001587e-01 1.263616681098937988e+00 9.019806981086730957e-01 -9.759953022003173828e-01 -6.059224158525466919e-02 1.293529272079467773e+00 6.135923042893409729e-02 -1.256598758697509766e+01
0.000000000000000000e+00 -5.253884196281433105e-02 4.985437728464603424e-03 7.447476983070373535e-01 5.752427969127893448e-03 -5.556845664978027344e-01 2.300971187651157379e-03 1.264383673667907715e+00 -3.834952076431363821e-04 1.614514738321304321e-01 1.262849688529968262e+00 9.019806981086730957e-01 -9.763787984848022461e-01 -6.097573786973953247e-02 1.293145775794982910e+00 6.135923042893409729e-02 -1.256598758697509766e+01
0.000000000000000000e+00 -5.292233824729919434e-02 4.985437728464603424e-03 7.435972094535827637e-01 5.752427969127893448e-03 -5.553010702133178711e-01 1.917475950904190540e-03 1.264000177383422852e+00 -3.834952076431363821e-04 1.614514738321304321e-01 1.264000177383422852e+00 9.023641943931579590e-01 -9.756118059158325195e-01 -6.059224158525466919e-02 1.292762279510498047e+00 6.174272671341896057e-02 -1.256598758697509766e+01
0.000000000000000000e+00 -5.253884196281433105e-02 4.985437728464603424e-03 7.443642020225524902e-01 5.368932615965604782e-03 -5.549175739288330078e-01 1.917475950904190540e-03 1.264767169952392578e+00 -3.834952076431363821e-04 1.618349701166152954e-01 1.263616681098937988e+00 9.019806981086730957e-01 -9.759953022003173828e-01 -6.097573786973953247e-02 1.292762279510498047e+00 6.174272671341896057e-02 -1.256598758697509766e+01
0.000000000000000000e+00 -5.292233824729919434e-02 4.601942375302314758e-03 7.435972094535827637e-01 4.985437728464603424e-03 -5.553010702133178711e-01 2.300971187651157379e-03 1.263616681098937988e+00 -1.150485593825578690e-03 1.618349701166152954e-01 1.262849688529968262e+00 9.019806981086730957e-01 -9.756118059158325195e-01 -6.097573786973953247e-02 1.293145775794982910e+00 6.212622299790382385e-02 -1.256598758697509766e+01
0.000000000000000000e+00 -5.215534567832946777e-02 4.601942375302314758e-03 7.451311945915222168e-01 4.985437728464603424e-03 -5.549175739288330078e-01 2.300971187651157379e-03 1.264383673667907715e+00 -1.150485593825578690e-03 1.614514738321304321e-01 1.262849688529968262e+00 9.023641943931579590e-01 -9.756118059158325195e-01 -6.059224158525466919e-02 1.293145775794982910e+00 6.174272671341896057e-02 -1.256598758697509766e+01
0.000000000000000000e+00 -5.292233824729919434e-02 4.601942375302314758e-03 7.447476983070373535e-01 5.752427969127893448e-03 -5.556845664978027344e-01 3.451456781476736069e-03 1.264000177383422852e+00 -1.150485593825578690e-03 1.618349701166152954e-01 1.264000177383422852e+00 9.019806981086730957e-01 -9.759953022003173828e-01 -6.174272671341896057e-02 1.292762279510498047e+00 6.135923042893409729e-02 -1.256598758697509766e+01
0.000000000000000000e+00 -5.330583080649375916e-02 4.601942375302314758e-03 7.447476983070373535e-01 4.985437728464603424e-03 -5.549175739288330078e-01 3.067961661145091057e-03 1.264767169952392578e+00 0.000000000000000000e+00 1.626019626855850220e-01 1.263233184814453125e+00 9.019806981086730957e-01 -9.756118059158325195e-01 -6.059224158525466919e-02 1.293145775794982910e+00 6.135923042893409729e-02 -1.256598758697509766e+01
0.000000000000000000e+00 -5.215534567832946777e-02 4.601942375302314758e-03 7.443642020225524902e-01 5.368932615965604782e-03 -5.553010702133178711e-01 2.300971187651157379e-03 1.264383673667907715e+00 0.000000000000000000e+00 1.610679775476455688e-01 1.262849688529968262e+00 9.015972018241882324e-01 -9.763787984848022461e-01 -6.059224158525466919e-02 1.292378783226013184e+00 6.250971555709838867e-02 -1.256598758697509766e+01
0.000000000000000000e+00 -5.292233824729919434e-02 4.985437728464603424e-03 7.451311945915222168e-01 5.752427969127893448e-03 -5.549175739288330078e-01 1.917475950904190540e-03 1.264383673667907715e+00 -1.150485593825578690e-03 1.622184664011001587e-01 1.263616681098937988e+00 9.023641943931579590e-01 -9.759953022003173828e-01 -6.059224158525466919e-02 1.293145775794982910e+00 6.212622299790382385e-02 -1.256598758697509766e+01
0.000000000000000000e+00 -5.253884196281433105e-02 4.985437728464603424e-03 7.443642020225524902e-01 4.985437728464603424e-03 -5.553010702133178711e-01 2.300971187651157379e-03 1.264000177383422852e+00 -3.834952076431363821e-04 1.622184664011001587e-01 1.263616681098937988e+00 9.019806981086730957e-01 -9.763787984848022461e-01 -6.135923042893409729e-02 1.292378783226013184e+00 6.212622299790382385e-02 -1.256598758697509766e+01
0.000000000000000000e+00 -5.253884196281433105e-02 4.601942375302314758e-03 7.443642020225524902e-01 4.601942375302314758e-03 -5.556845664978027344e-01 2.300971187651157379e-03 1.263616681098937988e+00 -3.834952076431363821e-04 1.622184664011001587e-01 1.262849688529968262e+00 9.027476906776428223e-01 -9.763787984848022461e-01 -6.059224158525466919e-02 1.293529272079467773e+00 6.135923042893409729e-02 -1.256598758697509766e+01
0.000000000000000000e+00 -5.292233824729919434e-02 3.834951901808381081e-03 7.443642020225524902e-01 5.368932615965604782e-03 -5.553010702133178711e-01 2.300971187651157379e-03 1.264000177383422852e+00 0.000000000000000000e+00 1.618349701166152954e-01 1.263233184814453125e+00 9.015972018241882324e-01 -9.759953022003173828e-01 -6.097573786973953247e-02 1.293145775794982910e+00 6.212622299790382385e-02 -1.256598758697509766e+01
0.000000000000000000e+00 -5.292233824729919434e-02 4.601942375302314758e-03 7.443642020225524902e-01 5.752427969127893448e-03 -5.556845664978027344e-01 2.684466307982802391e-03 1.264383673667907715e+00 -7.669904152862727642e-04 1.618349701166152954e-01 1.264383673667907715e+00 9.015972018241882324e-01 -9.759953022003173828e-01 -6.059224158525466919e-02 1.293145775794982910e+00 6.135923042893409729e-02 -1.256598758697509766e+01
0.000000000000000000e+00 -5.292233824729919434e-02 4.985437728464603424e-03 7.447476983070373535e-01 5.368932615965604782e-03 -5.553010702133178711e-01 2.300971187651157379e-03 1.264383673667907715e+00 -3.834952076431363821e-04 1.614514738321304321e-01 1.263233184814453125e+00 9.015972018241882324e-01 -9.759953022003173828e-01 -6.020874530076980591e-02 1.293529272079467773e+00 6.212622299790382385e-02 -1.256598758697509766e+01
0.000000000000000000e+00 -5.292233824729919434e-02 4.985437728464603424e-03 7.447476983070373535e-01 4.601942375302314758e-03 -5.545340776443481445e-01 1.917475950904190540e-03 1.263616681098937988e+00 -1.150485593825578690e-03 1.629854589700698853e-01 1.263616681098937988e+00 9.019806981086730957e-01 -9.759953022003173828e-01 -6.135923042893409729e-02 1.292762279510498047e+00 6.174272671341896057e-02 -1.256598758697509766e+01
0.000000000000000000e+00 -5.253884196281433105e-02 4.218447022140026093e-03 7.447476983070373535e-01 5.368932615965604782e-03 -5.553010702133178711e-01 2.300971187651157379e-03 1.264000177383422852e+00 -3.834952076431363821e-04 1.618349701166152954e-01 1.263233184814453125e+00 9.023641943931579590e-01 -9.763787984848022461e-01 -6.135923042893409729e-02 1.293145775794982910e+00 6.174272671341896057e-02 -1.256598758697509766e+01
0.000000000000000000e+00 -5.330583080649375916e-02 5.368932615965604782e-03 7.447476983070373535e-01 5.752427969127893448e-03 -5.553010702133178711e-01 2.300971187651157379e-03 1.263616681098937988e+00 -1.150485593825578690e-03 1.622184664011001587e-01 1.263233184814453125e+00 9.015972018241882324e-01 -9.759953022003173828e-01 -6.097573786973953247e-02 1.293145775794982910e+00 6.174272671341896057e-02 -1.256598758697509766e+01
0.000000000000000000e+00 -5.253884196281433105e-02 4.601942375302314758e-03 7.447476983070373535e-01 5.368932615965604782e-03 -5.553010702133178711e-01 1.917475950904190540e-03 1.264383673667907715e+00 -7.669904152862727642e-04 1.626019626855850220e-01 1.264000177383422852e+00 9.019806981086730957e-01 -9.759953022003173828e-01 -6.059224158525466919e-02 1.293529272079467773e+00 6.135923042893409729e-02 -1.256598758697509766e+01
0.000000000000000000e+00 -5.215534567832946777e-02 4.985437728464603424e-03 7.435972094535827637e-01 4.985437728464603424e-03 -5.541505813598632812e-01 2.300971187651157379e-03 1.264383673667907715e+00 -1.150485593825578690e-03 1.626019626855850220e-01 1.262849688529968262e+00 9.023641943931579590e-01 -9.759953022003173828e-01 -6.097573786973953247e-02 1.292762279510498047e+00 6.212622299790382385e-02 -1.256598758697509766e+01
0.000000000000000000e+00 -5.253884196281433105e-02 5.368932615965604782e-03 7.435972094535827637e-01 5.368932615965604782e-03 -5.545340776443481445e-01 2.300971187651157379e-03 1.264767169952392578e+00 -3.834952076431363821e-04 1.614514738321304321e-01 1.263616681098937988e+00 9.015972018241882324e-01 -9.759953022003173828e-01 -6.174272671341896057e-02 1.293145775794982910e+00 6.212622299790382385e-02 -1.256598758697509766e+01
0.000000000000000000e+00 -5.292233824729919434e-02 4.985437728464603424e-03 7.447476983070373535e-01 4.985437728464603424e-03 -5.549175739288330078e-01 2.300971187651157379e-03 1.264767169952392578e+00 -7.669904152862727642e-04 1.629854589700698853e-01 1.263616681098937988e+00 9.023641943931579590e-01 -9.763787984848022461e-01 -6.097573786973953247e-02 1.293145775794982910e+00 6.212622299790382385e-02 -1.256598758697509766e+01
0.000000000000000000e+00 -5.292233824729919434e-02 4.985437728464603424e-03 7.435972094535827637e-01 5.368932615965604782e-03 -5.553010702133178711e-01 2.684466307982802391e-03 1.264000177383422852e+00 -3.834952076431363821e-04 1.618349701166152954e-01 1.263233184814453125e+00 9.012137055397033691e-01 -9.763787984848022461e-01 -6.097573786973953247e-02 1.293912768363952637e+00 6.135923042893409729e-02 -1.256598758697509766e+01
0.000000000000000000e+00 -5.253884196281433105e-02 4.601942375302314758e-03 7.447476983070373535e-01 4.601942375302314758e-03 -5.549175739288330078e-01 2.300971187651157379e-03 1.264383673667907715e+00 -1.533980830572545528e-03 1.622184664011001587e-01 1.263616681098937988e+00 9.015972018241882324e-01 -9.767622947692871094e-01 -6.059224158525466919e-02 1.292762279510498047e+00 6.135923042893409729e-02 -1.256598758697509766e+01
0.000000000000000000e+00 -5.253884196281433105e-02 5.752427969127893448e-03 7.447476983070373535e-01 5.368932615965604782e-03 -5.545340776443481445e-01 2.300971187651157379e-03 1.264000177383422852e+00 -3.834952076431363821e-04 1.622184664011001587e-01 1.262849688529968262e+00 9.019806981086730957e-01 -9.759953022003173828e-01 -6.059224158525466919e-02 1.293145775794982910e+00 6.135923042893409729e-02 -1.256598758697509766e+01
0.000000000000000000e+00 -5.253884196281433105e-02 4.601942375302314758e-03 7.447476983070373535e-01 5.752427969127893448e-03 -5.549175739288330078e-01 2.684466307982802391e-03 1.264767169952392578e+00 -3.834952076431363821e-04 1.622184664011001587e-01 1.264000177383422852e+00 9.019806981086730957e-01 -9.763787984848022461e-01 -6.135923042893409729e-02 1.293145775794982910e+00 6.174272671341896057e-02 -1.256598758697509766e+01
0.000000000000000000e+00 -5.253884196281433105e-02 4.601942375302314758e-03 7.435972094535827637e-01 4.985437728464603424e-03 -5.549175739288330078e-01 2.684466307982802391e-03 1.264000177383422852e+00 -7.669904152862727642e-04 1.622184664011001587e-01 1.263233184814453125e+00 9.027476906776428223e-01 -9.759953022003173828e-01 -6.097573786973953247e-02 1.293145775794982910e+00 6.174272671341896057e-02 -1.256598758697509766e+01
0.000000000000000000e+00 -5.253884196281433105e-02 5.368932615965604782e-03 7.443642020225524902e-01 5.368932615965604782e-03 -5.541505813598632812e-01 2.300971187651157379e-03 1.264000177383422852e+00 0.000000000000000000e+00 1.622184664011001587e-01 1.264000177383422852e+00 9.019806981086730957e-01 -9.756118059158325195e-01 -6.059224158525466919e-02 1.293145775794982910e+00 6.174272671341896057e-02 -1.256598758697509766e+01
0.000000000000000000e+00 -5.253884196281433105e-02 5.368932615965604782e-03 7.443642020225524902e-01 5.368932615965604782e-03 -5.549175739288330078e-01 2.300971187651157379e-03 1.264383673667907715e+00 -7.669904152862727642e-04 1.626019626855850220e-01 1.263616681098937988e+00 9.019806981086730957e-01 -9.763787984848022461e-01 -6.097573786973953247e-02 1.293145775794982910e+00 6.250971555709838867e-02 -1.256598758697509766e+01
0.000000000000000000e+00 -5.253884196281433105e-02 4.218447022140026093e-03 7.447476983070373535e-01 4.601942375302314758e-03 -5.549175739288330078e-01 1.917475950904190540e-03 1.264000177383422852e+00 -7.669904152862727642e-04 1.622184664011001587e-01 1.262849688529968262e+00 9.019806981086730957e-01 -9.763787984848022461e-01 -6.097573786973953247e-02 1.292762279510498047e+00 6.174272671341896057e-02 -1.256598758697509766e+01
0.000000000000000000e+00 -5.253884196281433105e-02 4.218447022140026093e-03 7.451311945915222168e-01 4.985437728464603424e-03 -5.545340776443481445e-01 2.684466307982802391e-03 1.264383673667907715e+00 -7.669904152862727642e-04 1.626019626855850220e-01 1.264000177383422852e+00 9.008302092552185059e-01 -9.763787984848022461e-01 -6.135923042893409729e-02 1.292762279510498047e+00 6.174272671341896057e-02 -1.256598758697509766e+01
0.000000000000000000e+00 -5.215534567832946777e-02 4.601942375302314758e-03 7.447476983070373535e-01 5.368932615965604782e-03 -5.549175739288330078e-01 1.533980830572545528e-03 1.264000177383422852e+00 -7.669904152862727642e-04 1.618349701166152954e-01 1.264000177383422852e+00 9.019806981086730957e-01 -9.763787984848022461e-01 -6.135923042893409729e-02 1.292762279510498047e+00 6.212622299790382385e-02 -1.256598758697509766e+01
0.000000000000000000e+00 -5.253884196281433105e-02 4.218447022140026093e-03 7.447476983070373535e-01 5.752427969127893448e-03 -5.553010702133178711e-01 1.917475950904190540e-03 1.264383673667907715e+00 -3.834952076431363821e-04 1.622184664011001587e-01 1.263616681098937988e+00 9.015972018241882324e-01 -9.763787984848022461e-01 -6.097573786973953247e-02 1.293529272079467773e+00 6.174272671341896057e-02 -1.256598758697509766e+01
0.000000000000000000e+00 -5.253884196281433105e-02 4.985437728464603424e-03 7.447476983070373535e-01 4.985437728464603424e-03 -5.549175739288330078e-01 1.917475950904190540e-03 1.264000177383422852e+00 -3.834952076431363821e-04 1.622184664011001587e-01 1.263233184814453125e+00 9.023641943931579590e-01 -9.756118059158325195e-01 -6.020874530076980591e-02 1.293145775794982910e+00 6.289321184158325195e-02 -1.256598758697509766e+01
0.000000000000000000e+00 -5.253884196281433105e-02 4.985437728464603424e-03 7.443642020225524902e-01 4.601942375302314758e-03 -5.549175739288330078e-01 1.917475950904190540e-03 1.264000177383422852e+00 -3.834952076431363821e-04 1.618349701166152954e-01 1.263233184814453125e+00 9.019806981086730957e-01 -9.759953022003173828e-01 -6.059224158525466919e-02 1.293145775794982910e+00 6.212622299790382385e-02 -1.256598758697509766e+01
0.000000000000000000e+00 -5.253884196281433105e-02 5.368932615965604782e-03 7.447476983070373535e-01 4.985437728464603424e-03 -5.553010702133178711e-01 2.300971187651157379e-03 1.264383673667907715e+00 -7.669904152862727642e-04 1.622184664011001587e-01 1.263616681098937988e+00 9.023641943931579590e-01 -9.759953022003173828e-01 -6.059224158525466919e-02 1.293529272079467773e+00 6.250971555709838867e-02 -1.256598758697509766e+01
0.000000000000000000e+00 -5.292233824729919434e-02 4.601942375302314758e-03 7.451311945915222168e-01 4.985437728464603424e-03 -5.553010702133178711e-01 2.300971187651157379e-03 1.264000177383422852e+00 -3.834952076431363821e-04 1.618349701166152954e-01 1.263616681098937988e+00 9.015972018241882324e-01 -9.759953022003173828e-01 -6.135923042893409729e-02 1.293529272079467773e+00 6.135923042893409729e-02 -1.256598758697509766e+01
0.000000000000000000e+00 -5.253884196281433105e-02 4.601942375302314758e-03 7.447476983070373535e-01 4.985437728464603424e-03 -5.545340776443481445e-01 1.917475950904190540e-03 1.264000177383422852e+00 -3.834952076431363821e-04 1.622184664011001587e-01 1.264000177383422852e+00 9.023641943931579590e-01 -9.763787984848022461e-01 -6.059224158525466919e-02 1.292762279510498047e+00 6.174272671341896057e-02 -1.256598758697509766e+01
0.000000000000000000e+00 -5.292233824729919434e-02 4.985437728464603424e-03 7.447476983070373535e-01 4.985437728464603424e-03 -5.556845664978027344e-01 1.917475950904190540e-03 1.264000177383422852e+00 0.000000000000000000e+00 1.622184664011001587e-01 1.263233184814453125e+00 9.015972018241882324e-01 -9.759953022003173828e-01 -6.097573786973953247e-02 1.293529272079467773e+00 6.212622299790382385e-02 -1.256598758697509766e+01
0.000000000000000000e+00 -5.253884196281433105e-02 4.985437728464603424e-03 7.447476983070373535e-01 5.368932615965604782e-03 -5.549175739288330078e-01 2.684466307982802391e-03 1.264383673667907715e+00 -3.834952076431363821e-04 1.618349701166152954e-01 1.263233184814453125e+00 9.023641943931579590e-01 -9.759953022003173828e-01 -6.097573786973953247e-02 1.293912768363952637e+00 6.212622299790382385e-02 -1.256598758697509766e+01
0.000000000000000000e+00 -5.292233824729919434e-02 5.368932615965604782e-03 7.451311945915222168e-01 5.752427969127893448e-03 -5.553010702133178711e-01 1.917475950904190540e-03 1.264383673667907715e+00 -1.150485593825578690e-03 1.626019626855850220e-01 1.264000177383422852e+00 9.019806981086730957e-01 -9.759953022003173828e-01 -6.135923042893409729e-02 1.293145775794982910e+00 6.212622299790382385e-02 -1.256598758697509766e+01
0.000000000000000000e+00 -5.215534567832946777e-02 4.601942375302314758e-03 7.451311945915222168e-01 5.368932615965604782e-03 -5.549175739288330078e-01 2.300971187651157379e-03 1.264383673667907715e+00 -3.834952076431363821e-04 1.629854589700698853e-01 1.264000177383422852e+00 9.019806981086730957e-01 -9.759953022003173828e-01 -6.097573786973953247e-02 1.293529272079467773e+00 6.174272671341896057e-02 -1.256598758697509766e+01
0.000000000000000000e+00 -5.292233824729919434e-02 4.601942375302314758e-03 7.443642020225524902e-01 5.368932615965604782e-03 -5.541505813598632812e-01 2.300971187651157379e-03 1.264767169952392578e+00 -1.150485593825578690e-03 1.618349701166152954e-01 1.263616681098937988e+00 9.019806981086730957e-01 -9.759953022003173828e-01 -6.174272671341896057e-02 1.293145775794982910e+00 6.174272671341896057e-02 -1.256598758697509766e+01
0.000000000000000000e+00 -5.177185311913490295e-02 4.985437728464603424e-03 7.443642020225524902e-01 5.368932615965604782e-03 -5.553010702133178711e-01 2.300971187651157379e-03 1.264383673667907715e+00 -3.834952076431363821e-04 1.618349701166152954e-01 1.263616681098937988e+00 9.023641943931579590e-01 -9.767622947692871094e-01 -6.020874530076980591e-02 1.292762279510498047e+00 6.135923042893409729e-02 -1.256598758697509766e+01
0.000000000000000000e+00 -5.292233824729919434e-02 4.601942375302314758e-03 7.443642020225524902e-01 5.368932615965604782e-03 -5.549175739288330078e-01 1.917475950904190540e-03 1.264767169952392578e+00 -1.150485593825578690e-03 1.622184664011001587e-01 1.263233184814453125e+00 9.023641943931579590e-01 -9.759953022003173828e-01 -5.982524901628494263e-02 1.293145775794982910e+00 6.097573786973953247e-02 -1.256598758697509766e+01
0.000000000000000000e+00 -5.330583080649375916e-02 4.985437728464603424e-03 7.447476983070373535e-01 5.368932615965604782e-03 -5.549175739288330078e-01 1.917475950904190540e-03 1.264383673667907715e+00 -3.834952076431363821e-04 1.626019626855850220e-01 1.263233184814453125e+00 9.019806981086730957e-01 -9.759953022003173828e-01 -6.097573786973953247e-02 1.293145775794982910e+00 6.135923042893409729e-02 -1.256598758697509766e+01
0.000000000000000000e+00 -5.253884196281433105e-02 5.368932615965604782e-03 7.447476983070373535e-01 4.985437728464603424e-03 -5.549175739288330078e-01 1.917475950904190540e-03 1.264000177383422852e+00 -1.150485593825578690e-03 1.622184664011001587e-01 1.264000177383422852e+00 9.015972018241882324e-01 -9.759953022003173828e-01 -6.059224158525466919e-02 1.292762279510498047e+00 6.212622299790382385e-02 -1.256598758697509766e+01
0.000000000000000000e+00 -5.292233824729919434e-02 4.601942375302314758e-03 7.443642020225524902e-01 5.752427969127893448e-03 -5.549175739288330078e-01 2.300971187651157379e-03 1.264000177383422852e+00 -1.533980830572545528e-03 1.622184664011001587e-01 1.264383673667907715e+00 9.023641943931579590e-01 -9.759953022003173828e-01 -6.020874530076980591e-02 1.292378783226013184e+00 6.174272671341896057e-02 -1.256598758697509766e+01
0.000000000000000000e+00 -5.292233824729919434e-02 4.601942375302314758e-03 7.443642020225524902e-01 5.368932615965604782e-03 -5.556845664978027344e-01 1.533980830572545528e-03 1.264383673667907715e+00 -7.669904152862727642e-04 1.622184664011001587e-01 1.264383673667907715e+00 9.015972018241882324e-01 -9.763787984848022461e-01 -6.135923042893409729e-02 1.293145775794982910e+00 6.212622299790382385e-02 -1.256598758697509766e+01
0.000000000000000000e+00 -5.292233824729919434e-02 5.368932615965604782e-03 7.447476983070373535e-01 5.368932615965604782e-03 -5.549175739288330078e-01 2.300971187651157379e-03 1.264000177383422852e+00 -7.669904152862727642e-04 1.626019626855850220e-01 1.264767169952392578e+00 9.019806981086730957e-01 -9.763787984848022461e-01 -6.097573786973953247e-02 1.293912768363952637e+00 6.135923042893409729e-02 -1.256598758697509766e+01
0.000000000000000000e+00 -5.292233824729919434e-02 4.601942375302314758e-03 7.447476983070373535e-01 4.985437728464603424e-03 -5.553010702133178711e-01 2.300971187651157379e-03 1.264383673667907715e+00 -3.834952076431363821e-04 1.626019626855850220e-01 1.264000177383422852e+00 9.019806981086730957e-01 -9.767622947692871094e-01 -6.059224158525466919e-02 1.292762279510498047e+00 6.174272671341896057e-02 -1.256598758697509766e+01
0.000000000000000000e+00 -5.253884196281433105e-02 4.601942375302314758e-03 7.447476983070373535e-01 5.368932615965604782e-03 -5.549175739288330078e-01 2.300971187651157379e-03 1.264000177383422852e+00 -1.150485593825578690e-03 1.626019626855850220e-01 1.264383673667907715e+00 9.027476906776428223e-01 -9.759953022003173828e-01 -6.097573786973953247e-02 1.292762279510498047e+00 6.174272671341896057e-02 -1.256598758697509766e+01
0.000000000000000000e+00 -5.253884196281433105e-02 4.601942375302314758e-03 7.435972094535827637e-01 5.368932615965604782e-03 -5.545340776443481445e-01 2.684466307982802391e-03 1.264383673667907715e+00 -1.150485593825578690e-03 1.618349701166152954e-01 1.264767169952392578e+00 9.023641943931579590e-01 -9.759953022003173828e-01 -6.059224158525466919e-02 1.292378783226013184e+00 6.212622299790382385e-02 -1.256598758697509766e+01
0.000000000000000000e+00 -5.292233824729919434e-02 4.601942375302314758e-03 7.443642020225524902e-01 5.752427969127893448e-03 -5.549175739288330078e-01 2.684466307982802391e-03 1.264383673667907715e+00 -7.669904152862727642e-04 1.618349701166152954e-01 1.264767169952392578e+00 9.023641943931579590e-01 -9.759953022003173828e-01 -6.059224158525466919e-02 1.293145775794982910e+00 6.135923042893409729e-02 -1.256598758697509766e+01
0.000000000000000000e+00 -5.292233824729919434e-02 4.601942375302314758e-03 7.451311945915222168e-01 5.368932615965604782e-03 -5.553010702133178711e-01 2.300971187651157379e-03 1.264383673667907715e+00 -7.669904152862727642e-04 1.614514738321304321e-01 1.264767169952392578e+00 9.023641943931579590e-01 -9.763787984848022461e-01 -6.059224158525466919e-02 1.292762279510498047e+00 6.250971555709838867e-02 -1.256598758697509766e+01
0.000000000000000000e+00 -5.253884196281433105e-02 4.985437728464603424e-03 7.451311945915222168e-01 5.368932615965604782e-03 -5.549175739288330078e-01 2.300971187651157379e-03 1.264000177383422852e+00 0.000000000000000000e+00 1.606844812631607056e-01 1.264000177383422852e+00 9.019806981086730957e-01 -9.759953022003173828e-01 -6.097573786973953247e-02 1.293145775794982910e+00 6.212622299790382385e-02 -1.256598758697509766e+01
0.000000000000000000e+00 -5.292233824729919434e-02 4.601942375302314758e-03 7.443642020225524902e-01 5.752427969127893448e-03 -5.556845664978027344e-01 2.300971187651157379e-03 1.263616681098937988e+00 -3.834952076431363821e-04 1.626019626855850220e-01 1.264767169952392578e+00 9.023641943931579590e-01 -9.759953022003173828e-01 -6.097573786973953247e-02 1.293529272079467773e+00 6.212622299790382385e-02 -1.256598758697509766e+01
0.000000000000000000e+00 -5.292233824729919434e-02 4.985437728464603424e-03 7.435972094535827637e-01 4.985437728464603424e-03 -5.545340776443481445e-01 1.917475950904190540e-03 1.264000177383422852e+00 -7.669904152862727642e-04 1.622184664011001587e-01 1.264383673667907715e+00 9.023641943931579590e-01 -9.767622947692871094e-01 -6.059224158525466919e-02 1.293145775794982910e+00 6.174272671341896057e-02 -1.256598758697509766e+01
0.000000000000000000e+00 -5.253884196281433105e-02 4.601942375302314758e-03 7.443642020225524902e-01 5.368932615965604782e-03 -5.549175739288330078e-01 3.067961661145091057e-03 1.264383673667907715e+00 -7.669904152862727642e-04 1.618349701166152954e-01 1.265917658805847168e+00 9.023641943931579590e-01 -9.763787984848022461e-01 -6.135923042893409729e-02 1.293145775794982910e+00 6.212622299790382385e-02 -1.256598758697509766e+01
0.000000000000000000e+00 -5.253884196281433105e-02 4.985437728464603424e-03 7.432137131690979004e-01 4.985437728464603424e-03 -5.553010702133178711e-01 2.684466307982802391e-03 1.264000177383422852e+00 -3.834952076431363821e-04 1.626019626855850220e-01 1.265534162521362305e+00 9.019806981086730957e-01 -9.771457910537719727e-01 -6.097573786973953247e-02 1.292762279510498047e+00 6.212622299790382385e-02 -1.256598758697509766e+01
0.000000000000000000e+00 -5.292233824729919434e-02 4.601942375302314758e-03 7.443642020225524902e-01 5.368932615965604782e-03 -5.549175739288330078e-01 2.300971187651157379e-03 1.264383673667907715e+00 -7.669904152862727642e-04 1.618349701166152954e-01 1.264767169952392578e+00 9.023641943931579590e-01 -9.771457910537719727e-01 -6.135923042893409729e-02 1.292378783226013184e+00 6.174272671341896057e-02 -1.256598758697509766e+01
0.000000000000000000e+00 -5.292233824729919434e-02 4.985437728464603424e-03 7.447476983070373535e-01 4.985437728464603424e-03 -5.553010702133178711e-01 2.300971187651157379e-03 1.264000177383422852e+00 0.000000000000000000e+00 1.618349701166152954e-01 1.265150666236877441e+00 9.023641943931579590e-01 -9.775292277336120605e-01 -6.097573786973953247e-02 1.293145775794982910e+00 6.174272671341896057e-02 -1.256598758697509766e+01
0.000000000000000000e+00 -5.330583080649375916e-02 4.985437728464603424e-03 7.443642020225524902e-01 5.368932615965604782e-03 -5.553010702133178711e-01 1.917475950904190540e-03 1.264000177383422852e+00 -3.834952076431363821e-04 1.622184664011001587e-01 1.264767169952392578e+00 9.015972018241882324e-01 -9.775292277336120605e-01 -6.059224158525466919e-02 1.293529272079467773e+00 6.174272671341896057e-02 -1.256598758697509766e+01
0.000000000000000000e+00 -5.292233824729919434e-02 4.601942375302314758e-03 7.451311945915222168e-01 5.368932615965604782e-03 -5.549175739288330078e-01 2.300971187651157379e-03 1.264000177383422852e+00 -3.834952076431363821e-04 1.618349701166152954e-01 1.264767169952392578e+00 9.015972018241882324e-01 -9.779127240180969238e-01 -6.135923042893409729e-02 1.293145775794982910e+00 6.174272671341896057e-02 -1.256598758697509766e+01
0.000000000000000000e+00 -5.253884196281433105e-02 4.601942375302314758e-03 7.435972094535827637e-01 5.752427969127893448e-03 -5.549175739288330078e-01 2.300971187651157379e-03 1.264000177383422852e+00 -3.834952076431363821e-04 1.622184664011001587e-01 1.265534162521362305e+00 9.027476906776428223e-01 -9.782962203025817871e-01 -6.097573786973953247e-02 1.293145775794982910e+00 6.135923042893409729e-02 -1.256598758697509766e+01
0.000000000000000000e+00 -5.253884196281433105e-02 5.368932615965604782e-03 7.435972094535827637e-01 5.368932615965604782e-03 -5.545340776443481445e-01 2.684466307982802391e-03 1.264000177383422852e+00 -1.150485593825578690e-03 1.618349701166152954e-01 1.265534162521362305e+00 9.015972018241882324e-01 -9.786797165870666504e-01 -6.059224158525466919e-02 1.292378783226013184e+00 6.212622299790382385e-02 -1.256598758697509766e+01
0.000000000000000000e+00 -5.253884196281433105e-02 4.985437728464603424e-03 7.443642020225524902e-01 4.601942375302314758e-03 -5.549175739288330078e-01 2.300971187651157379e-03 1.264767169952392578e+00 -3.834952076431363821e-04 1.626019626855850220e-01 1.265534162521362305e+00 9.015972018241882324e-01 -9.786797165870666504e-01 -6.097573786973953247e-02 1.291995286941528320e+00 6.135923042893409729e-02 -1.256598758697509766e+01
0.000000000000000000e+00 -5.292233824729919434e-02 4.985437728464603424e-03 7.447476983070373535e-01 5.368932615965604782e-03 -5.545340776443481445e-01 2.300971187651157379e-03 1.264767169952392578e+00 -7.669904152862727642e-04 1.618349701166152954e-01 1.266301155090332031e+00 9.015972018241882324e-01 -9.794467091560363770e-01 -6.135923042893409729e-02 1.292378783226013184e+00 6.289321184158325195e-02 -1.256598758697509766e+01
0.000000000000000000e+00 -5.253884196281433105e-02 4.601942375302314758e-03 7.443642020225524902e-01 4.985437728464603424e-03 -5.549175739288330078e-01 1.533980830572545528e-03 1.264767169952392578e+00 -7.669904152862727642e-04 1.622184664011001587e-01 1.265917658805847168e+00 9.012137055397033691e-01 -9.802137017250061035e-01 -6.097573786973953247e-02 1.291995286941528320e+00 6.174272671341896057e-02 -1.256598758697509766e+01
0.000000000000000000e+00 -5.253884196281433105e-02 4.985437728464603424e-03 7.443642020225524902e-01 4.985437728464603424e-03 -5.545340776443481445e-01 2.300971187651157379e-03 1.264383673667907715e+00 -3.834952076431363821e-04 1.622184664011001587e-01 1.265534162521362305e+00 9.023641943931579590e-01 -9.794467091560363770e-01 -6.020874530076980591e-02 1.292762279510498047e+00 6.135923042893409729e-02 -1.256598758697509766e+01
0.000000000000000000e+00 -5.292233824729919434e-02 4.218447022140026093e-03 7.447476983070373535e-01 5.752427969127893448e-03 -5.549175739288330078e-01 2.684466307982802391e-03 1.264767169952392578e+00 -3.834952076431363821e-04 1.626019626855850220e-01 1.265917658805847168e+00 9.023641943931579590e-01 -9.798302054405212402e-01 -6.135923042893409729e-02 1.292762279510498047e+00 6.174272671341896057e-02 -1.256598758697509766e+01
0.000000000000000000e+00 -5.253884196281433105e-02 4.985437728464603424e-03 7.451311945915222168e-01 5.368932615965604782e-03 -5.549175739288330078e-01 2.684466307982802391e-03 1.264000177383422852e+00 -7.669904152862727642e-04 1.626019626855850220e-01 1.266301155090332031e+00 9.023641943931579590e-01 -9.805971980094909668e-01 -6.020874530076980591e-02 1.292378783226013184e+00 6.212622299790382385e-02 -1.256598758697509766e+01
0.000000000000000000e+00 -5.253884196281433105e-02 4.985437728464603424e-03 7.443642020225524902e-01 4.601942375302314758e-03 -5.545340776443481445e-01 1.917475950904190540e-03 1.263616681098937988e+00 -1.150485593825578690e-03 1.622184664011001587e-01 1.265917658805847168e+00 9.012137055397033691e-01 -9.813641905784606934e-01 -6.059224158525466919e-02 1.292762279510498047e+00 6.212622299790382385e-02 -1.256598758697509766e+01
0.000000000000000000e+00 -5.253884196281433105e-02 4.985437728464603424e-03 7.443642020225524902e-01 5.368932615965604782e-03 -5.549175739288330078e-01 2.300971187651157379e-03 1.264383673667907715e+00 -7.669904152862727642e-04 1.618349701166152954e-01 1.265150666236877441e+00 9.015972018241882324e-01 -9.805971980094909668e-01 -6.097573786973953247e-02 1.293145775794982910e+00 6.174272671341896057e-02 -1.256598758697509766e+01
0.000000000000000000e+00 -5.292233824729919434e-02 4.218447022140026093e-03 7.451311945915222168e-01 4.985437728464603424e-03 -5.549175739288330078e-01 2.300971187651157379e-03 1.264383673667907715e+00 -7.669904152862727642e-04 1.626019626855850220e-01 1.266301155090332031e+00 9.015972018241882324e-01 -9.813641905784606934e-01 -6.097573786973953247e-02 1.293145775794982910e+00 6.212622299790382385e-02 -1.256598758697509766e+01
0.000000000000000000e+00 -5.292233824729919434e-02 4.601942375302314758e-03 7.447476983070373535e-01 5.752427969127893448e-03 -5.549175739288330078e-01 1.533980830572545528e-03 1.264383673667907715e+00 -3.834952076431363821e-04 1.622184664011001587e-01 1.265150666236877441e+00 9.019806981086730957e-01 -9.809806942939758301e-01 -6.174272671341896057e-02 1.292378783226013184e+00 6.212622299790382385e-02 -1.256598758697509766e+01
0.000000000000000000e+00 -5.177185311913490295e-02 5.368932615965604782e-03 7.435972094535827637e-01 4.985437728464603424e-03 -5.549175739288330078e-01 2.300971187651157379e-03 1.264000177383422852e+00 -1.150485593825578690e-03 1.626019626855850220e-01 1.265917658805847168e+00 9.019806981086730957e-01 -9.813641905784606934e-01 -6.020874530076980591e-02 1.292378783226013184e+00 6.212622299790382385e-02 -1.256598758697509766e+01
0.000000000000000000e+00 -5.292233824729919434e-02 4.985437728464603424e-03 7.435972094535827637e-01 5.368932615965604782e-03 -5.553010702133178711e-01 2.684466307982802391e-03 1.264000177383422852e+00 -7.669904152862727642e-04 1.633689552545547485e-01 1.265534162521362305e+00 9.019806981086730957e-01 -9.813641905784606934e-01 -6.097573786973953247e-02 1.292378783226013184e+00 6.174272671341896057e-02 -1.256598758697509766e+01
0.000000000000000000e+00 -5.292233824729919434e-02 5.368932615965604782e-03 7.447476983070373535e-01 5.368932615965604782e-03 -5.545340776443481445e-01 2.684466307982802391e-03 1.264000177383422852e+00 -1.150485593825578690e-03 1.626019626855850220e-01 1.265150666236877441e+00 9.023641943931579590e-01 -9.813641905784606934e-01 -6.097573786973953247e-02 1.292378783226013184e+00 6.174272671341896057e-02 -1.256598758697509766e+01
0.000000000000000000e+00 -5.292233824729919434e-02 4.601942375302314758e-03 7.447476983070373535e-01 5.368932615965604782e-03 -5.545340776443481445e-01 2.300971187651157379e-03 1.263616681098937988e+00 -1.150485593825578690e-03 1.629854589700698853e-01 1.265534162521362305e+00 9.015972018241882324e-01 -9.821311831474304199e-01 -6.020874530076980591e-02 1.292762279510498047e+00 6.174272671341896057e-02 -1.256598758697509766e+01
0.000000000000000000e+00 -5.253884196281433105e-02 4.601942375302314758e-03 7.447476983070373535e-01 4.985437728464603424e-03 -5.549175739288330078e-01 2.684466307982802391e-03 1.264383673667907715e+00 -7.669904152862727642e-04 1.622184664011001587e-01 1.265917658805847168e+00 9.015972018241882324e-01 -9.817476868629455566e-01 -6.097573786973953247e-02 1.292378783226013184e+00 6.174272671341896057e-02 -1.256598758697509766e+01
0.000000000000000000e+00 -5.330583080649375916e-02 5.368932615965604782e-03 7.435972094535827637e-01 5.368932615965604782e-03 -5.549175739288330078e-01 2.300971187651157379e-03 1.264383673667907715e+00 -7.669904152862727642e-04 1.622184664011001587e-01 1.264767169952392578e+00 9.019806981086730957e-01 -9.813641905784606934e-01 -6.059224158525466919e-02 1.291995286941528320e+00 6.174272671341896057e-02 -1.256598758697509766e+01
0.000000000000000000e+00 -5.253884196281433105e-02 4.601942375302314758e-03 7.447476983070373535e-01 5.368932615965604782e-03 -5.549175739288330078e-01 1.917475950904190540e-03 1.264000177383422852e+00 -3.834952076431363821e-04 1.626019626855850220e-01 1.264767169952392578e+00 9.019806981086730957e-01 -9.813641905784606934e-01 -6.135923042893409729e-02 1.291611790657043457e+00 6.212622299790382385e-02 -1.256598758697509766e+01
0.000000000000000000e+00 -5.253884196281433105e-02 4.985437728464603424e-03 7.447476983070373535e-01 5.752427969127893448e-03 -5.549175739288330078e-01 2.300971187651157379e-03 1.264383673667907715e+00 -7.669904152862727642e-04 1.626019626855850220e-01 1.266301155090332031e+00 9.019806981086730957e-01 -9.821311831474304199e-01 -6.059224158525466919e-02 1.291228294372558594e+00 6.212622299790382385e-02 -1.256598758697509766e+01
0.000000000000000000e+00 -5.253884196281433105e-02 4.985437728464603424e-03 7.447476983070373535e-01 4.985437728464603424e-03 -5.556845664978027344e-01 2.300971187651157379e-03 1.264383673667907715e+00 -3.834952076431363821e-04 1.622184664011001587e-01 1.265917658805847168e+00 9.012137055397033691e-01 -9.813641905784606934e-01 -6.097573786973953247e-02 1.291228294372558594e+00 6.174272671341896057e-02 -1.256598758697509766e+01
0.000000000000000000e+00 -5.292233824729919434e-02 4.985437728464603424e-03 7.447476983070373535e-01 5.752427969127893448e-03 -5.549175739288330078e-01 2.300971187651157379e-03 1.264383673667907715e+00 -1.150485593825578690e-03 1.618349701166152954e-01 1.265534162521362305e+00 9.023641943931579590e-01 -9.813641905784606934e-01 -6.097573786973953247e-02 1.291995286941528320e+00 6.212622299790382385e-02 -1.256598758697509766e+01
0.000000000000000000e+00 -5.215534567832946777e-02 4.985437728464603424e-03 7.443642020225524902e-01 4.985437728464603424e-03 -5.553010702133178711e-01 1.917475950904190540e-03 1.264383673667907715e+00 -3.834952076431363821e-04 1.618349701166152954e-01 1.265917658805847168e+00 9.023641943931579590e-01 -9.813641905784606934e-01 -6.097573786973953247e-02 1.291228294372558594e+00 6.212622299790382385e-02 -1.256598758697509766e+01
0.000000000000000000e+00 -5.253884196281433105e-02 4.985437728464603424e-03 7.443642020225524902e-01 5.368932615965604782e-03 -5.545340776443481445e-01 1.917475950904190540e-03 1.264767169952392578e+00 -3.834952076431363821e-04 1.626019626855850220e-01 1.265534162521362305e+00 9.015972018241882324e-01 -9.805971980094909668e-01 -6.097573786973953247e-02 1.291228294372558594e+00 6.174272671341896057e-02 -1.256598758697509766e+01
0.000000000000000000e+00 -5.253884196281433105e-02 4.218447022140026093e-03 7.435972094535827637e-01 4.601942375302314758e-03 -5.549175739288330078e-01 2.300971187651157379e-03 1.264767169952392578e+00 -7.669904152862727642e-04 1.618349701166152954e-01 1.266684651374816895e+00 9.023641943931579590e-01 -9.809806942939758301e-01 -6.059224158525466919e-02 1.291228294372558594e+00 6.212622299790382385e-02 -1.256598758697509766e+01
0.000000000000000000e+00 -5.292233824729919434e-02 5.368932615965604782e-03 7.443642020225524902e-01 5.752427969127893448e-03 -5.553010702133178711e-01 2.684466307982802391e-03 1.264383673667907715e+00 -7.669904152862727642e-04 1.622184664011001587e-01 1.265534162521362305e+00 9.019806981086730957e-01 -9.805971980094909668e-01 -6.097573786973953247e-02 1.291228294372558594e+00 6.174272671341896057e-02 -1.256598758697509766e+01
0.000000000000000000e+00 -5.330583080649375916e-02 4.985437728464603424e-03 7.451311945915222168e-01 5.368932615965604782e-03 -5.549175739288330078e-01 2.684466307982802391e-03 1.263616681098937988e+00 -7.669904152862727642e-04 1.629854589700698853e-01 1.265917658805847168e+00 9.019806981086730957e-01 -9.802137017250061035e-01 -6.135923042893409729e-02 1.291611790657043457e+00 6.250971555709838867e-02 -1.256598758697509766e+01
0.000000000000000000e+00 -5.292233824729919434e-02 5.368932615965604782e-03 7.447476983070373535e-01 5.368932615965604782e-03 -5.549175739288330078e-01 2.684466307982802391e-03 1.264383673667907715e+00 -7.669904152862727642e-04 1.626019626855850220e-01 1.265917658805847168e+00 9.023641943931579590e-01 -9.798302054405212402e-01 -6.059224158525466919e-02 1.291228294372558594e+00 6.250971555709838867e-02 -1.256598758697509766e+01
0.000000000000000000e+00 -5.292233824729919434e-02 4.601942375302314758e-03 7.447476983070373535e-01 4.985437728464603424e-03 -5.549175739288330078e-01 3.067961661145091057e-03 1.264383673667907715e+00 -7.669904152862727642e-04 1.614514738321304321e-01 1.265534162521362305e+00 9.019806981086730957e-01 -9.805971980094909668e-01 -6.135923042893409729e-02 1.291611790657043457e+00 6.212622299790382385e-02 -1.256598758697509766e+01
0.000000000000000000e+00 -5.330583080649375916e-02 5.368932615965604782e-03 7.432137131690979004e-01 5.368932615965604782e-03 -5.553010702133178711e-01 2.684466307982802391e-03 1.263616681098937988e+00 -1.150485593825578690e-03 1.622184664011001587e-01 1.266301155090332031e+00 9.019806981086730957e-01 -9.809806942939758301e-01 -6.059224158525466919e-02 1.291611790657043457e+00 6.174272671341896057e-02 -1.256598758697509766e+01
0.000000000000000000e+00 -5.292233824729919434e-02 4.601942375302314758e-03 7.435972094535827637e-01 4.985437728464603424e-03 -5.549175739288330078e-01 2.684466307982802391e-03 1.263616681098937988e+00 -3.834952076431363821e-04 1.618349701166152954e-01 1.265534162521362305e+00 9.015972018241882324e-01 -9.802137017250061035e-01 -6.059224158525466919e-02 1.291611790657043457e+00 6.135923042893409729e-02 -1.256598758697509766e+01
0.000000000000000000e+00 -5.292233824729919434e-02 4.601942375302314758e-03 7.447476983070373535e-01 5.368932615965604782e-03 -5.553010702133178711e-01 2.684466307982802391e-03 1.263233184814453125e+00 -7.669904152862727642e-04 1.633689552545547485e-01 1.265917658805847168e+00 9.019806981086730957e-01 -9.798302054405212402e-01 -6.097573786973953247e-02 1.291228294372558594e+00 6.250971555709838867e-02 -1.256598758697509766e+01
0.000000000000000000e+00 -5.330583080649375916e-02 4.601942375302314758e-03 7.443642020225524902e-01 5.368932615965604782e-03 -5.545340776443481445e-01 1.917475950904190540e-03 1.264000177383422852e+00 -1.150485593825578690e-03 1.622184664011001587e-01 1.266684651374816895e+00 9.019806981086730957e-01 -9.805971980094909668e-01 -6.135923042893409729e-02 1.291611790657043457e+00 6.174272671341896057e-02 -1.256598758697509766e+01
0.000000000000000000e+00 -5.253884196281433105e-02 4.601942375302314758e-03 7.435972094535827637e-01 4.985437728464603424e-03 -5.553010702133178711e-01 2.300971187651157379e-03 1.264383673667907715e+00 -1.150485593825578690e-03 1.629854589700698853e-01 1.265917658805847168e+00 9.015972018241882324e-01 -9.798302054405212402e-01 -6.097573786973953247e-02 1.291611790657043457e+00 6.174272671341896057e-02 -1.256598758697509766e+01
0.000000000000000000e+00 -5.253884196281433105e-02 4.985437728464603424e-03 7.447476983070373535e-01 5.368932615965604782e-03 -5.553010702133178711e-01 1.917475950904190540e-03 1.264383673667907715e+00 -7.669904152862727642e-04 1.626019626855850220e-01 1.266301155090332031e+00 9.023641943931579590e-01 -9.794467091560363770e-01 -6.059224158525466919e-02 1.292378783226013184e+00 6.174272671341896057e-02 -1.256598758697509766e+01
0.000000000000000000e+00 -5.292233824729919434e-02 4.601942375302314758e-03 7.443642020225524902e-01 4.985437728464603424e-03 -5.553010702133178711e-01 1.917475950904190540e-03 1.264000177383422852e+00 -7.669904152862727642e-04 1.622184664011001587e-01 1.267068147659301758e+00 9.027476906776428223e-01 -9.798302054405212402e-01 -6.097573786973953247e-02 1.292378783226013184e+00 6.174272671341896057e-02 -1.256598758697509766e+01
0.000000000000000000e+00 -5.253884196281433105e-02 4.601942375302314758e-03 7.443642020225524902e-01 4.985437728464603424e-03 -5.549175739288330078e-01 2.300971187651157379e-03 1.264383673667907715e+00 -7.669904152862727642e-04 1.622184664011001587e-01 1.267068147659301758e+00 9.019806981086730957e-01 -9.802137017250061035e-01 -6.059224158525466919e-02 1.292378783226013184e+00 6.212622299790382385e-02 -1.256598758697509766e+01
0.000000000000000000e+00 -5.253884196281433105e-02 4.601942375302314758e-03 7.447476983070373535e-01 5.368932615965604782e-03 -5.553010702133178711e-01 2.300971187651157379e-03 1.264000177383422852e+00 -7.669904152862727642e-04 1.622184664011001587e-01 1.265917658805847168e+00 9.019806981086730957e-01 -9.798302054405212402e-01 -6.020874530076980591e-02 1.292378783226013184e+00 6.174272671341896057e-02 -1.256598758697509766e+01
0.000000000000000000e+00 -5.292233824729919434e-02 4.218447022140026093e-03 7.447476983070373535e-01 4.985437728464603424e-03 -5.553010702133178711e-01 1.917475950904190540e-03 1.264383673667907715e+00 -1.150485593825578690e-03 1.622184664011001587e-01 1.266301155090332031e+00 9.019806981086730957e-01 -9.794467091560363770e-01 -6.059224158525466919e-02 1.292378783226013184e+00 6.212622299790382385e-02 -1.256598758697509766e+01
0.000000000000000000e+00 -5.292233824729919434e-02 4.985437728464603424e-03 7.443642020225524902e-01 4.985437728464603424e-03 -5.553010702133178711e-01 2.300971187651157379e-03 1.264000177383422852e+00 -1.533980830572545528e-03 1.626019626855850220e-01 1.266684651374816895e+00 9.023641943931579590e-01 -9.802137017250061035e-01 -6.097573786973953247e-02 1.293529272079467773e+00 6.212622299790382385e-02 -1.256598758697509766e+01
0.000000000000000000e+00 -5.253884196281433105e-02 4.985437728464603424e-03 7.443642020225524902e-01 5.368932615965604782e-03 -5.556845664978027344e-01 2.300971187651157379e-03 1.264000177383422852e+00 -1.150485593825578690e-03 1.626019626855850220e-01 1.265150666236877441e+00 9.019806981086730957e-01 -9.798302054405212402e-01 -6.174272671341896057e-02 1.293529272079467773e+00 6.135923042893409729e-02 -1.256598758697509766e+01
0.000000000000000000e+00 -5.215534567832946777e-02 5.368932615965604782e-03 7.443642020225524902e-01 5.752427969127893448e-03 -5.556845664978027344e-01 2.300971187651157379e-03 1.264383673667907715e+00 -3.834952076431363821e-04 1.618349701166152954e-01 1.265917658805847168e+00 9.023641943931579590e-01 -9.798302054405212402e-01 -6.212622299790382385e-02 1.294296264648437500e+00 6.174272671341896057e-02 -1.256598758697509766e+01
0.000000000000000000e+00 -5.253884196281433105e-02 4.601942375302314758e-03 7.447476983070373535e-01 4.601942375302314758e-03 -5.553010702133178711e-01 1.917475950904190540e-03 1.264383673667907715e+00 -1.150485593825578690e-03 1.622184664011001587e-01 1.266684651374816895e+00 9.027476906776428223e-01 -9.802137017250061035e-01 -6.135923042893409729e-02 1.293912768363952637e+00 6.174272671341896057e-02 -1.256598758697509766e+01
0.000000000000000000e+00 -5.292233824729919434e-02 4.218447022140026093e-03 7.443642020225524902e-01 4.601942375302314758e-03 -5.549175739288330078e-01 2.300971187651157379e-03 1.264767169952392578e+00 -3.834952076431363821e-04 1.622184664011001587e-01 1.267068147659301758e+00 9.023641943931579590e-01 -9.798302054405212402e-01 -6.097573786973953247e-02 1.294679760932922363e+00 6.097573786973953247e-02 -1.256598758697509766e+01
0.000000000000000000e+00 -5.292233824729919434e-02 4.601942375302314758e-03 7.435972094535827637e-01 4.985437728464603424e-03 -5.545340776443481445e-01 2.300971187651157379e-03 1.263616681098937988e+00 -3.834952076431363821e-04 1.622184664011001587e-01 1.266684651374816895e+00 9.019806981086730957e-01 -9.805971980094909668e-01 -6.020874530076980591e-02 1.294296264648437500e+00 6.135923042893409729e-02 -1.256598758697509766e+01
0.000000000000000000e+00 -5.253884196281433105e-02 4.601942375302314758e-03 7.447476983070373535e-01 5.368932615965604782e-03 -5.553010702133178711e-01 2.684466307982802391e-03 1.263616681098937988e+00 -7.669904152862727642e-04 1.618349701166152954e-01 1.266684651374816895e+00 9.019806981086730957e-01 -9.805971980094909668e-01 -6.059224158525466919e-02 1.294296264648437500e+00 6.174272671341896057e-02 -1.256598758697509766e+01
0.000000000000000000e+00 -5.292233824729919434e-02 5.368932615965604782e-03 7.451311945915222168e-01 4.601942375302314758e-03 -5.549175739288330078e-01 2.300971187651157379e-03 1.264000177383422852e+00 -1.150485593825578690e-03 1.626019626855850220e-01 1.266301155090332031e+00 9.023641943931579590e-01 -9.805971980094909668e-01 -6.174272671341896057e-02 1.294296264648437500e+00 6.174272671341896057e-02 -1.256598758697509766e+01
0.000000000000000000e+00 -5.292233824729919434e-02 4.218447022140026093e-03 7.443642020225524902e-01 5.752427969127893448e-03 -5.545340776443481445e-01 2.684466307982802391e-03 1.264383673667907715e+00 -3.834952076431363821e-04 1.614514738321304321e-01 1.265534162521362305e+00 9.023641943931579590e-01 -9.805971980094909668e-01 -6.059224158525466919e-02 1.293912768363952637e+00 6.174272671341896057e-02 -1.256598758697509766e+01
0.000000000000000000e+00 -5.253884196281433105e-02 4.601942375302314758e-03 7.443642020225524902e-01 5.368932615965604782e-03 -5.553010702133178711e-01 2.300971187651157379e-03 1.264383673667907715e+00 -1.533980830572545528e-03 1.622184664011001587e-01 1.266301155090332031e+00 9.015972018241882324e-01 -9.805971980094909668e-01 -6.097573786973953247e-02 1.294296264648437500e+00 6.174272671341896057e-02 -1.256598758697509766e+01
0.000000000000000000e+00 -5.253884196281433105e-02 5.368932615965604782e-03 7.447476983070373535e-01 4.601942375302314758e-03 -5.549175739288330078e-01 1.917475950904190540e-03 1.264767169952392578e+00 -7.669904152862727642e-04 1.618349701166152954e-01 1.265917658805847168e+00 9.019806981086730957e-01 -9.809806942939758301e-01 -6.135923042893409729e-02 1.294296264648437500e+00 6.174272671341896057e-02 -1.256598758697509766e+01
0.000000000000000000e+00 -5.292233824729919434e-02 4.985437728464603424e-03 7.435972094535827637e-01 4.985437728464603424e-03 -5.549175739288330078e-01 2.300971187651157379e-03 1.264000177383422852e+00 -3.834952076431363821e-04 1.622184664011001587e-01 1.265150666236877441e+00 9.015972018241882324e-01 -9.813641905784606934e-01 -6.097573786973953247e-02 1.293912768363952637e+00 6.174272671341896057e-02 -1.256598758697509766e+01
0.000000000000000000e+00 -5.215534567832946777e-02 5.752427969127893448e-03 7.447476983070373535e-01 4.985437728464603424e-03 -5.553010702133178711e-01 2.684466307982802391e-03 1.264383673667907715e+00 -7.669904152862727642e-04 1.614514738321304321e-01 1.265534162521362305e+00 9.019806981086730957e-01 -9.805971980094909668e-01 -6.135923042893409729e-02 1.294296264648437500e+00 6.212622299790382385e-02 -1.256598758697509766e+01
0.000000000000000000e+00 -5.253884196281433105e-02 4.985437728464603424e-03 7.435972094535827637e-01 5.368932615965604782e-03 -5.545340776443481445e-01 2.300971187651157379e-03 1.264767169952392578e+00 7.669904152862727642e-04 1.618349701166152954e-01 1.265534162521362305e+00 9.012137055397033691e-01 -9.805971980094909668e-01 -6.212622299790382385e-02 1.294296264648437500e+00 6.174272671341896057e-02 -1.256598758697509766e+01
0.000000000000000000e+00 -5.292233824729919434e-02 4.985437728464603424e-03 7.447476983070373535e-01 5.752427969127893448e-03 -5.553010702133178711e-01 1.533980830572545528e-03 1.264000177383422852e+00 -1.150485593825578690e-03 1.622184664011001587e-01 1.265917658805847168e+00 9.015972018241882324e-01 -9.809806942939758301e-01 -6.097573786973953247e-02 1.293529272079467773e+00 6.135923042893409729e-02 -1.256598758697509766e+01
0.000000000000000000e+00 -5.253884196281433105e-02 5.368932615965604782e-03 7.447476983070373535e-01 4.985437728464603424e-03 -5.553010702133178711e-01 2.300971187651157379e-03 1.264383673667907715e+00 -3.834952076431363821e-04 1.629854589700698853e-01 1.265534162521362305e+00 9.019806981086730957e-01 -9.805971980094909668e-01 -6.059224158525466919e-02 1.294296264648437500e+00 6.212622299790382385e-02 -1.256598758697509766e+01
0.000000000000000000e+00 -5.253884196281433105e-02 4.985437728464603424e-03 7.443642020225524902e-01 4.985437728464603424e-03 -5.553010702133178711e-01 2.684466307982802391e-03 1.263616681098937988e+00 -3.834952076431363821e-04 1.622184664011001587e-01 1.265917658805847168e+00 9.027476906776428223e-01 -9.813641905784606934e-01 -6.097573786973953247e-02 1.294296264648437500e+00 6.212622299790382385e-02 -1.256598758697509766e+01
0.000000000000000000e+00 -5.215534567832946777e-02 4.601942375302314758e-03 7.443642020225524902e-01 4.985437728464603424e-03 -5.553010702133178711e-01 2.300971187651157379e-03 1.264383673667907715e+00 -7.669904152862727642e-04 1.618349701166152954e-01 1.265534162521362305e+00 9.023641943931579590e-01 -9.813641905784606934e-01 -6.135923042893409729e-02 1.293529272079467773e+00 6.174272671341896057e-02 -1.256598758697509766e+01
0.000000000000000000e+00 -5.292233824729919434e-02 5.368932615965604782e-03 7.451311945915222168e-01 4.985437728464603424e-03 -5.549175739288330078e-01 2.300971187651157379e-03 1.264000177383422852e+00 0.000000000000000000e+00 1.618349701166152954e-01 1.266301155090332031e+00 9.023641943931579590e-01 -9.809806942939758301e-01 -6.135923042893409729e-02 1.294296264648437500e+00 6.250971555709838867e-02 -1.256598758697509766e+01
0.000000000000000000e+00 -5.215534567832946777e-02 4.985437728464603424e-03 7.443642020225524902e-01 5.368932615965604782e-03 -5.549175739288330078e-01 1.917475950904190540e-03 1.264383673667907715e+00 -3.834952076431363821e-04 1.626019626855850220e-01 1.266301155090332031e+00 9.023641943931579590e-01 -9.809806942939758301e-01 -6.059224158525466919e-02 1.293145775794982910e+00 6.174272671341896057e-02 -1.256598758697509766e+01
0.000000000000000000e+00 -5.253884196281433105e-02 4.985437728464603424e-03 7.447476983070373535e-01 5.752427969127893448e-03 -5.545340776443481445e-01 1.533980830572545528e-03 1.264000177383422852e+00 -1.150485593825578690e-03 1.626019626855850220e-01 1.265917658805847168e+00 9.019806981086730957e-01 -9.802137017250061035e-01 -6.135923042893409729e-02 1.293529272079467773e+00 6.135923042893409729e-02 -1.256598758697509766e+01
0.000000000000000000e+00 -5.253884196281433105e-02 4.601942375302314758e-03 7.435972094535827637e-01 4.985437728464603424e-03 -5.549175739288330078e-01 1.917475950904190540e-03 1.263616681098937988e+00 -3.834952076431363821e-04 1.622184664011001587e-01 1.265917658805847168e+00 9.019806981086730957e-01 -9.805971980094909668e-01 -6.059224158525466919e-02 1.293912768363952637e+00 6.174272671341896057e-02 -1.256598758697509766e+01
0.000000000000000000e+00 -5.292233824729919434e-02 4.985437728464603424e-03 7.443642020225524902e-01 4.985437728464603424e-03 -5.549175739288330078e-01 2.300971187651157379e-03 1.264383673667907715e+00 -3.834952076431363821e-04 1.629854589700698853e-01 1.265534162521362305e+00 9.019806981086730957e-01 -9.805971980094909668e-01 -6.097573786973953247e-02 1.293912768363952637e+00 6.174272671341896057e-02 -1.256598758697509766e+01
0.000000000000000000e+00 -5.292233824729919434e-02 4.985437728464603424e-03 7.447476983070373535e-01 5.368932615965604782e-03 -5.553010702133178711e-01 2.684466307982802391e-03 1.264383673667907715e+00 -7.669904152862727642e-04 1.618349701166152954e-01 1.265917658805847168e+00 9.019806981086730957e-01 -9.802137017250061035e-01 -6.097573786973953247e-02 1.294296264648437500e+00 6.212622299790382385e-02 -1.256598758697509766e+01
0.000000000000000000e+00 -5.292233824729919434e-02 4.985437728464603424e-03 7.447476983070373535e-01 4.985437728464603424e-03 -5.553010702133178711e-01 2.300971187651157379e-03 1.264383673667907715e+00 -7.669904152862727642e-04 1.626019626855850220e-01 1.265917658805847168e+00 9.023641943931579590e-01 -9.802137017250061035e-01 -6.174272671341896057e-02 1.293912768363952637e+00 6.097573786973953247e-02 -1.256598758697509766e+01
0.000000000000000000e+00 -5.292233824729919434e-02 4.601942375302314758e-03 7.443642020225524902e-01 4.985437728464603424e-03 -5.553010702133178711e-01 2.684466307982802391e-03 1.264383673667907715e+00 -7.669904152862727642e-04 1.614514738321304321e-01 1.266684651374816895e+00 9.027476906776428223e-01 -9.805971980094909668e-01 -6.020874530076980591e-02 1.294296264648437500e+00 6.097573786973953247e-02 -1.256598758697509766e+01
0.000000000000000000e+00 -5.330583080649375916e-02 5.368932615965604782e-03 7.447476983070373535e-01 4.601942375302314758e-03 -5.553010702133178711e-01 1.917475950904190540e-03 1.264000177383422852e+00 -3.834952076431363821e-04 1.626019626855850220e-01 1.265534162521362305e+00 9.023641943931579590e-01 -9.794467091560363770e-01 -6.097573786973953247e-02 1.294296264648437500e+00 6.135923042893409729e-02 -1.256598758697509766e+01
0.000000000000000000e+00 -5.292233824729919434e-02 4.985437728464603424e-03 7.443642020225524902e-01 4.985437728464603424e-03 -5.549175739288330078e-01 2.300971187651157379e-03 1.263616681098937988e+00 0.000000000000000000e+00 1.626019626855850220e-01 1.265534162521362305e+00 9.023641943931579590e-01 -9.802137017250061035e-01 -5.982524901628494263e-02 1.293912768363952637e+00 6.212622299790382385e-02 -1.256598758697509766e+01
0.000000000000000000e+00 -5.292233824729919434e-02 5.752427969127893448e-03 7.443642020225524902e-01 4.985437728464603424e-03 -5.553010702133178711e-01 2.300971187651157379e-03 1.264000177383422852e+00 -7.669904152862727642e-04 1.618349701166152954e-01 1.266684651374816895e+00 9.023641943931579590e-01 -9.805971980094909668e-01 -6.097573786973953247e-02 1.293912768363952637e+00 6.174272671341896057e-02 -1.256598758697509766e+01
0.000000000000000000e+00 -5.253884196281433105e-02 5.368932615965604782e-03 7.447476983070373535e-01 4.985437728464603424e-03 -5.549175739288330078e-01 3.067961661145091057e-03 1.264383673667907715e+00 -7.669904152862727642e-04 1.629854589700698853e-01 1.267068147659301758e+00 9.019806981086730957e-01 -9.802137017250061035e-01 -6.020874530076980591e-02 1.294296264648437500e+00 6.174272671341896057e-02 -1.256598758697509766e+01
0.000000000000000000e+00 -5.253884196281433105e-02 5.368932615965604782e-03 7.447476983070373535e-01 5.752427969127893448e-03 -5.553010702133178711e-01 2.684466307982802391e-03 1.264383673667907715e+00 0.000000000000000000e+00 1.626019626855850220e-01 1.265534162521362305e+00 9.019806981086730957e-01 -9.798302054405212402e-01 -6.135923042893409729e-02 1.293912768363952637e+00 6.212622299790382385e-02 -1.256598758697509766e+01
0.000000000000000000e+00 -5.253884196281433105e-02 4.601942375302314758e-03 7.447476983070373535e-01 5.752427969127893448e-03 -5.553010702133178711e-01 2.300971187651157379e-03 1.263616681098937988e+00 -3.834952076431363821e-04 1.626019626855850220e-01 1.265917658805847168e+00 9.019806981086730957e-01 -9.802137017250061035e-01 -6.097573786973953247e-02 1.294296264648437500e+00 6.174272671341896057e-02 -1.256598758697509766e+01
0.000000000000000000e+00 -5.253884196281433105e-02 5.368932615965604782e-03 7.443642020225524902e-01 5.368932615965604782e-03 -5.553010702133178711e-01 2.300971187651157379e-03 1.264000177383422852e+00 -1.533980830572545528e-03 1.618349701166152954e-01 1.265917658805847168e+00 9.019806981086730957e-01 -9.809806942939758301e-01 -6.135923042893409729e-02 1.294296264648437500e+00 6.212622299790382385e-02 -1.256598758697509766e+01
0.000000000000000000e+00 -5.330583080649375916e-02 4.601942375302314758e-03 7.447476983070373535e-01 4.601942375302314758e-03 -5.549175739288330078e-01 1.917475950904190540e-03 1.264000177383422852e+00 -3.834952076431363821e-04 1.626019626855850220e-01 1.267068147659301758e+00 9.023641943931579590e-01 -9.805971980094909668e-01 -6.059224158525466919e-02 1.293529272079467773e+00 6.174272671341896057e-02 -1.256598758697509766e+01
0.000000000000000000e+00 -5.292233824729919434e-02 4.985437728464603424e-03 7.443642020225524902e-01 5.368932615965604782e-03 -5.549175739288330078e-01 2.300971187651157379e-03 1.264767169952392578e+00 -1.150485593825578690e-03 1.618349701166152954e-01 1.266684651374816895e+00 9.015972018241882324e-01 -9.805971980094909668e-01 -6.097573786973953247e-02 1.293912768363952637e+00 6.174272671341896057e-02 -1.256598758697509766e+01
0.000000000000000000e+00 -5.292233824729919434e-02 4.985437728464603424e-03 7.455146908760070801e-01 5.368932615965604782e-03 -5.545340776443481445e-01 2.300971187651157379e-03 1.264383673667907715e+00 -7.669904152862727642e-04 1.626019626855850220e-01 1.266684651374816895e+00 9.019806981086730957e-01 -9.802137017250061035e-01 -6.020874530076980591e-02 1.294296264648437500e+00 6.212622299790382385e-02 -1.256598758697509766e+01
0.000000000000000000e+00 -5.292233824729919434e-02 5.368932615965604782e-03 7.443642020225524902e-01 5.752427969127893448e-03 -5.553010702133178711e-01 2.300971187651157379e-03 1.264767169952392578e+00 7.669904152862727642e-04 1.622184664011001587e-01 1.267451643943786621e+00 9.015972018241882324e-01 -9.805971980094909668e-01 -6.135923042893409729e-02 1.294296264648437500e+00 6.135923042893409729e-02 -1.256598758697509766e+01
0.000000000000000000e+00 -5.292233824729919434e-02 4.218447022140026093e-03 7.451311945915222168e-01 5.368932615965604782e-03 -5.549175739288330078e-01 2.300971187651157379e-03 1.264000177383422852e+00 -3.834952076431363821e-04 1.626019626855850220e-01 1.265917658805847168e+00 9.023641943931579590e-01 -9.802137017250061035e-01 -6.097573786973953247e-02 1.294296264648437500e+00 6.135923042893409729e-02 -1.256598758697509766e+01
0.000000000000000000e+00 -5.253884196281433105e-02 5.368932615965604782e-03 7.435972094535827637e-01 5.368932615965604782e-03 -5.553010702133178711e-01 2.684466307982802391e-03 1.264383673667907715e+00 -7.669904152862727642e-04 1.629854589700698853e-01 1.265917658805847168e+00 9.019806981086730957e-01 -9.805971980094909668e-01 -6.097573786973953247e-02 1.294296264648437500e+00 6.174272671341896057e-02 -1.256598758697509766e+01
0.000000000000000000e+00 -5.253884196281433105e-02 4.985437728464603424e-03 7.435972094535827637e-01 4.985437728464603424e-03 -5.556845664978027344e-01 1.533980830572545528e-03 1.263616681098937988e+00 -1.533980830572545528e-03 1.626019626855850220e-01 1.265917658805847168e+00 9.015972018241882324e-01 -9.802137017250061035e-01 -6.097573786973953247e-02 1.294296264648437500e+00 6.174272671341896057e-02 -1.256598758697509766e+01
0.000000000000000000e+00 -5.253884196281433105e-02 4.601942375302314758e-03 7.447476983070373535e-01 5.368932615965604782e-03 -5.553010702133178711e-01 2.684466307982802391e-03 1.264383673667907715e+00 -7.669904152862727642e-04 1.622184664011001587e-01 1.265534162521362305e+00 9.023641943931579590e-01 -9.805971980094909668e-01 -6.097573786973953247e-02 1.294679760932922363e+00 6.212622299790382385e-02 -1.256598758697509766e+01
0.000000000000000000e+00 -5.292233824729919434e-02 4.601942375302314758e-03 7.435972094535827637e-01 4.985437728464603424e-03 -5.549175739288330078e-01 2.300971187651157379e-03 1.263616681098937988e+00 -3.834952076431363821e-04 1.618349701166152954e-01 1.266301155090332031e+00 9.019806981086730957e-01 -9.805971980094909668e-01 -6.020874530076980591e-02 1.293912768363952637e+00 6.174272671341896057e-02 -1.256598758697509766e+01
0.000000000000000000e+00 -5.253884196281433105e-02 5.368932615965604782e-03 7.447476983070373535e-01 5.368932615965604782e-03 -5.549175739288330078e-01 1.533980830572545528e-03 1.264767169952392578e+00 -7.669904152862727642e-04 1.622184664011001587e-01 1.266684651374816895e+00 9.012137055397033691e-01 -9.802137017250061035e-01 -6.059224158525466919e-02 1.293912768363952637e+00 6.250971555709838867e-02 -1.256598758697509766e+01
0.000000000000000000e+00 -5.253884196281433105e-02 5.368932615965604782e-03 7.447476983070373535e-01 4.985437728464603424e-03 -5.553010702133178711e-01 2.300971187651157379e-03 1.264383673667907715e+00 -1.150485593825578690e-03 1.618349701166152954e-01 1.266684651374816895e+00 9.015972018241882324e-01 -9.802137017250061035e-01 -6.212622299790382385e-02 1.293529272079467773e+00 6.212622299790382385e-02 -1.256598758697509766e+01
0.000000000000000000e+00 -5.253884196281433105e-02 4.985437728464603424e-03 7.451311945915222168e-01 5.752427969127893448e-03 -5.553010702133178711e-01 2.684466307982802391e-03 1.263616681098937988e+00 -3.834952076431363821e-04 1.629854589700698853e-01 1.266684651374816895e+00 9.027476906776428223e-01 -9.802137017250061035e-01 -6.097573786973953247e-02 1.293912768363952637e+00 6.174272671341896057e-02 -1.256598758697509766e+01
0.000000000000000000e+00 -5.292233824729919434e-02 5.368932615965604782e-03 7.435972094535827637e-01 5.752427969127893448e-03 -5.553010702133178711e-01 2.684466307982802391e-03 1.264000177383422852e+00 -7.669904152862727642e-04 1.622184664011001587e-01 1.265917658805847168e+00 9.015972018241882324e-01 -9.802137017250061035e-01 -6.020874530076980591e-02 1.294296264648437500e+00 6.135923042893409729e-02 -1.256598758697509766e+01
0.000000000000000000e+00 -5.292233824729919434e-02 5.752427969127893448e-03 7.443642020225524902e-01 4.985437728464603424e-03 -5.560680627822875977e-01 2.300971187651157379e-03 1.264383673667907715e+00 -7.669904152862727642e-04 1.622184664011001587e-01 1.267068147659301758e+00 9.023641943931579590e-01 -9.798302054405212402e-01 -6.097573786973953247e-02 1.294296264648437500e+00 6.174272671341896057e-02 -1.256598758697509766e+01
0.000000000000000000e+00 -5.215534567832946777e-02 4.601942375302314758e-03 7.447476983070373535e-01 4.985437728464603424e-03 -5.549175739288330078e-01 2.300971187651157379e-03 1.264000177383422852e+00 -1.150485593825578690e-03 1.629854589700698853e-01 1.266301155090332031e+00 9.019806981086730957e-01 -9.805971980094909668e-01 -6.059224158525466919e-02 1.294296264648437500e+00 6.174272671341896057e-02 -1.256598758697509766e+01
0.000000000000000000e+00 -5.253884196281433105e-02 5.368932615965604782e-03 7.447476983070373535e-01 5.368932615965604782e-03 -5.545340776443481445e-01 2.300971187651157379e-03 1.264000177383422852e+00 -1.150485593825578690e-03 1.622184664011001587e-01 1.267068147659301758e+00 9.023641943931579590e-01 -9.802137017250061035e-01 -6.135923042893409729e-02 1.294679760932922363e+00 6.135923042893409729e-02 -1.256598758697509766e+01
0.000000000000000000e+00 -5.253884196281433105e-02 4.985437728464603424e-03 7.443642020225524902e-01 5.368932615965604782e-03 -5.553010702133178711e-01 1.917475950904190540e-03 1.264383673667907715e+00 -7.669904152862727642e-04 1.622184664011001587e-01 1.266684651374816895e+00 9.019806981086730957e-01 -9.794467091560363770e-01 -6.059224158525466919e-02 1.293529272079467773e+00 6.212622299790382385e-02 -1.256598758697509766e+01
0.000000000000000000e+00 -5.292233824729919434e-02 4.985437728464603424e-03 7.443642020225524902e-01 5.368932615965604782e-03 -5.549175739288330078e-01 1.917475950904190540e-03 1.265150666236877441e+00 -7.669904152862727642e-04 1.614514738321304321e-01 1.265917658805847168e+00 9.015972018241882324e-01 -9.805971980094909668e-01 -6.097573786973953247e-02 1.293912768363952637e+00 6.135923042893409729e-02 -1.256598758697509766e+01
0.000000000000000000e+00 -5.253884196281433105e-02 4.601942375302314758e-03 7.451311945915222168e-01 4.985437728464603424e-03 -5.541505813598632812e-01 2.300971187651157379e-03 1.264767169952392578e+00 -7.669904152862727642e-04 1.618349701166152954e-01 1.266301155090332031e+00 9.023641943931579590e-01 -9.809806942939758301e-01 -6.097573786973953247e-02 1.293529272079467773e+00 6.174272671341896057e-02 -1.256598758697509766e+01
0.000000000000000000e+00 -5.253884196281433105e-02 5.752427969127893448e-03 7.447476983070373535e-01 5.368932615965604782e-03 -5.549175739288330078e-01 2.300971187651157379e-03 1.264383673667907715e+00 -1.150485593825578690e-03 1.622184664011001587e-01 1.265534162521362305e+00 9.019806981086730957e-01 -9.809806942939758301e-01 -6.135923042893409729e-02 1.294679760932922363e+00 6.212622299790382385e-02 -1.256598758697509766e+01
0.000000000000000000e+00 -5.292233824729919434e-02 4.985437728464603424e-03 7.443642020225524902e-01 4.985437728464603424e-03 -5.549175739288330078e-01 1.917475950904190540e-03 1.264383673667907715e+00 -1.150485593825578690e-03 1.618349701166152954e-01 1.266684651374816895e+00 9.023641943931579590e-01 -9.805971980094909668e-01 -6.097573786973953247e-02 1.294296264648437500e+00 6.250971555709838867e-02 -1.256598758697509766e+01
0.000000000000000000e+00 -5.253884196281433105e-02 4.601942375302314758e-03 7.447476983070373535e-01 5.368932615965604782e-03 -5.549175739288330078e-01 1.917475950904190540e-03 1.264000177383422852e+00 -7.669904152862727642e-04 1.622184664011001587e-01 1.266684651374816895e+00 9.012137055397033691e-01 -9.798302054405212402e-01 -6.135923042893409729e-02 1.294679760932922363e+00 6.289321184158325195e-02 -1.256598758697509766e+01
0.000000000000000000e+00 -5.292233824729919434e-02 4.985437728464603424e-03 7.443642020225524902e-01 4.985437728464603424e-03 -5.553010702133178711e-01 1.917475950904190540e-03 1.264383673667907715e+00 -1.917475950904190540e-03 1.622184664011001587e-01 1.266301155090332031e+00 9.019806981086730957e-01 -9.802137017250061035e-01 -6.059224158525466919e-02 1.294679760932922363e+00 6.174272671341896057e-02 -1.256598758697509766e+01
0.000000000000000000e+00 -5.330583080649375916e-02 4.601942375302314758e-03 7.443642020225524902e-01 4.601942375302314758e-03 -5.549175739288330078e-01 2.300971187651157379e-03 1.264383673667907715e+00 -1.150485593825578690e-03 1.622184664011001587e-01 1.267068147659301758e+00 9.019806981086730957e-01 -9.802137017250061035e-01 -6.097573786973953247e-02 1.293529272079467773e+00 6.135923042893409729e-02 -1.256598758697509766e+01
0.000000000000000000e+00 -5.330583080649375916e-02 5.368932615965604782e-03 7.443642020225524902e-01 4.985437728464603424e-03 -5.549175739288330078e-01 2.300971187651157379e-03 1.265150666236877441e+00 -7.669904152862727642e-04 1.618349701166152954e-01 1.266684651374816895e+00 9.015972018241882324e-01 -9.805971980094909668e-01 -6.135923042893409729e-02 1.294296264648437500e+00 6.174272671341896057e-02 -1.256598758697509766e+01
0.000000000000000000e+00 -5.253884196281433105e-02 4.985437728464603424e-03 7.435972094535827637e-01 4.985437728464603424e-03 -5.553010702133178711e-01 2.300971187651157379e-03 1.264383673667907715e+00 -3.834952076431363821e-04 1.626019626855850220e-01 1.266301155090332031e+00 9.023641943931579590e-01 -9.805971980094909668e-01 -6.174272671341896057e-02 1.293145775794982910e+00 6.250971555709838867e-02 -1.256598758697509766e+01
0.000000000000000000e+00 -5.292233824729919434e-02 4.218447022140026093e-03 7.435972094535827637e-01 5.368932615965604782e-03 -5.549175739288330078e-01 2.684466307982802391e-03 1.264383673667907715e+00 -7.669904152862727642e-04 1.626019626855850220e-01 1.267068147659301758e+00 9.023641943931579590e-01 -9.802137017250061035e-01 -6.097573786973953247e-02 1.294296264648437500e+00 6.212622299790382385e-02 -1.256598758697509766e+01
0.000000000000000000e+00 -5.253884196281433105e-02 4.985437728464603424e-03 7.443642020225524902e-01 5.368932615965604782e-03 -5.553010702133178711e-01 2.300971187651157379e-03 1.264383673667907715e+00 -3.834952076431363821e-04 1.614514738321304321e-01 1.266684651374816895e+00 9.015972018241882324e-01 -9.802137017250061035e-01 -6.059224158525466919e-02 1.294679760932922363e+00 6.250971555709838867e-02 -1.256598758697509766e+01
0.000000000000000000e+00 -5.215534567832946777e-02 4.985437728464603424e-03 7.435972094535827637e-01 5.752427969127893448e-03 -5.553010702133178711e-01 1.917475950904190540e-03 1.264383673667907715e+00 -3.834952076431363821e-04 1.626019626855850220e-01 1.265917658805847168e+00 9.012137055397033691e-01 -9.809806942939758301e-01 -6.135923042893409729e-02 1.294296264648437500e+00 6.212622299790382385e-02 -1.256598758697509766e+01
0.000000000000000000e+00 -5.330583080649375916e-02 4.985437728464603424e-03 7.447476983070373535e-01 4.985437728464603424e-03 -5.549175739288330078e-01 1.917475950904190540e-03 1.263616681098937988e+00 -7.669904152862727642e-04 1.622184664011001587e-01 1.266684651374816895e+00 9.023641943931579590e-01 -9.802137017250061035e-01 -6.059224158525466919e-02 1.294296264648437500e+00 6.212622299790382385e-02 -1.256598758697509766e+01
0.000000000000000000e+00 -5.253884196281433105e-02 4.601942375302314758e-03 7.447476983070373535e-01 4.985437728464603424e-03 -5.549175739288330078e-01 1.533980830572545528e-03 1.264383673667907715e+00 -1.150485593825578690e-03 1.622184664011001587e-01 1.266684651374816895e+00 9.023641943931579590e-01 -9.798302054405212402e-01 -6.059224158525466919e-02 1.294296264648437500e+00 6.174272671341896057e-02 -1.256598758697509766e+01
0.000000000000000000e+00 -5.292233824729919434e-02 4.218447022140026093e-03 7.451311945915222168e-01 4.218447022140026093e-03 -5.556845664978027344e-01 2.300971187651157379e-03 1.264000177383422852e+00 -3.834952076431363821e-04 1.626019626855850220e-01 1.265917658805847168e+00 9.023641943931579590e-01 -9.802137017250061035e-01 -6.020874530076980591e-02 1.293529272079467773e+00 6.174272671341896057e-02 -1.256598758697509766e+01
0.000000000000000000e+00 -5.292233824729919434e-02 5.368932615965604782e-03 7.447476983070373535e-01 5.752427969127893448e-03 -5.545340776443481445e-01 2.684466307982802391e-03 1.264000177383422852e+00 -7.669904152862727642e-04 1.618349701166152954e-01 1.265917658805847168e+00 9.012137055397033691e-01 -9.805971980094909668e-01 -6.020874530076980591e-02 1.293912768363952637e+00 6.135923042893409729e-02 -1.256598758697509766e+01
0.000000000000000000e+00 -5.330583080649375916e-02 4.601942375302314758e-03 7.447476983070373535e-01 5.752427969127893448e-03 -5.553010702133178711e-01 2.300971187651157379e-03 1.264000177383422852e+00 -1.150485593825578690e-03 1.618349701166152954e-01 1.266684651374816895e+00 9.015972018241882324e-01 -9.802137017250061035e-01 -6.097573786973953247e-02 1.294679760932922363e+00 6.212622299790382385e-02 -1.256598758697509766e+01
0.000000000000000000e+00 -5.292233824729919434e-02 4.985437728464603424e-03 7.451311945915222168e-01 4.985437728464603424e-03 -5.553010702133178711e-01 2.684466307982802391e-03 1.264767169952392578e+00 -7.669904152862727642e-04 1.622184664011001587e-01 1.267068147659301758e+00 9.019806981086730957e-01 -9.802137017250061035e-01 -6.135923042893409729e-02 1.293912768363952637e+00 6.212622299790382385e-02 -1.256598758697509766e+01
0.000000000000000000e+00 -5.215534567832946777e-02 5.368932615965604782e-03 7.443642020225524902e-01 5.368932615965604782e-03 -5.553010702133178711e-01 1.917475950904190540e-03 1.264383673667907715e+00 -3.834952076431363821e-04 1.626019626855850220e-01 1.266301155090332031e+00 9.023641943931579590e-01 -9.805971980094909668e-01 -6.059224158525466919e-02 1.294296264648437500e+00 6.212622299790382385e-02 -1.256598758697509766e+01
0.000000000000000000e+00 -5.253884196281433105e-02 5.368932615965604782e-03 7.443642020225524902e-01 4.985437728464603424e-03 -5.553010702133178711e-01 2.300971187651157379e-03 1.264383673667907715e+00 -3.834952076431363821e-04 1.614514738321304321e-01 1.265534162521362305e+00 9.023641943931579590e-01 -9.802137017250061035e-01 -6.020874530076980591e-02 1.293912768363952637e+00 6.135923042893409729e-02 -1.256598758697509766e+01
0.000000000000000000e+00 -5.253884196281433105e-02 4.985437728464603424e-03 7.447476983070373535e-01 4.601942375302314758e-03 -5.549175739288330078e-01 3.067961661145091057e-03 1.264000177383422852e+00 -1.150485593825578690e-03 1.622184664011001587e-01 1.266301155090332031e+00 9.023641943931579590e-01 -9.802137017250061035e-01 -6.097573786973953247e-02 1.294296264648437500e+00 6.174272671341896057e-02 -1.256598758697509766e+01
0.000000000000000000e+00 -5.253884196281433105e-02 4.601942375302314758e-03 7.443642020225524902e-01 4.985437728464603424e-03 -5.549175739288330078e-01 2.684466307982802391e-03 1.264383673667907715e+00 -7.669904152862727642e-04 1.618349701166152954e-01 1.266301155090332031e+00 9.019806981086730957e-01 -9.802137017250061035e-01 -6.097573786973953247e-02 1.294296264648437500e+00 6.135923042893409729e-02 -1.256598758697509766e+01
0.000000000000000000e+00 -5.292233824729919434e-02 4.218447022140026093e-03 7.435972094535827637e-01 5.368932615965604782e-03 -5.545340776443481445e-01 2.300971187651157379e-03 1.264000177383422852e+00 -3.834952076431363821e-04 1.626019626855850220e-01 1.265917658805847168e+00 9.019806981086730957e-01 -9.798302054405212402e-01 -6.097573786973953247e-02 1.293912768363952637e+00 6.250971555709838867e-02 -1.256598758697509766e+01
0.000000000000000000e+00 -5.253884196281433105e-02 4.985437728464603424e-03 7.435972094535827637e-01 5.368932615965604782e-03 -5.553010702133178711e-01 2.300971187651157379e-03 1.264000177383422852e+00 -3.834952076431363821e-04 1.622184664011001587e-01 1.265917658805847168e+00 9.019806981086730957e-01 -9.798302054405212402e-01 -6.097573786973953247e-02 1.294296264648437500e+00 6.174272671341896057e-02 -1.256598758697509766e+01
0.000000000000000000e+00 -5.253884196281433105e-02 5.368932615965604782e-03 7.443642020225524902e-01 5.368932615965604782e-03 -5.549175739288330078e-01 1.917475950904190540e-03 1.263616681098937988e+00 -1.150485593825578690e-03 1.626019626855850220e-01 1.266684651374816895e+00 9.019806981086730957e-01 -9.809806942939758301e-01 -6.097573786973953247e-02 1.294296264648437500e+00 6.174272671341896057e-02 -1.256598758697509766e+01
0.000000000000000000e+00 -5.292233824729919434e-02 4.985437728464603424e-03 7.443642020225524902e-01 5.368932615965604782e-03 -5.553010702133178711e-01 2.300971187651157379e-03 1.264000177383422852e+00 -7.669904152862727642e-04 1.622184664011001587e-01 1.266301155090332031e+00 9.019806981086730957e-01 -9.802137017250061035e-01 -6.174272671341896057e-02 1.294296264648437500e+00 6.212622299790382385e-02 -1.256598758697509766e+01
0.000000000000000000e+00 -5.253884196281433105e-02 4.985437728464603424e-03 7.447476983070373535e-01 4.985437728464603424e-03 -5.549175739288330078e-01 2.684466307982802391e-03 1.264000177383422852e+00 0.000000000000000000e+00 1.622184664011001587e-01 1.267068147659301758e+00 9.015972018241882324e-01 -9.798302054405212402e-01 -6.135923042893409729e-02 1.293912768363952637e+00 6.212622299790382385e-02 -1.256598758697509766e+01
0.000000000000000000e+00 -5.292233824729919434e-02 4.985437728464603424e-03 7.451311945915222168e-01 5.752427969127893448e-03 -5.549175739288330078e-01 2.300971187651157379e-03 1.264383673667907715e+00 -7.669904152862727642e-04 1.626019626855850220e-01 1.266684651374816895e+00 9.019806981086730957e-01 -9.805971980094909668e-01 -6.135923042893409729e-02 1.294679760932922363e+00 6.212622299790382385e-02 -1.256598758697509766e+01
0.000000000000000000e+00 -5.253884196281433105e-02 4.985437728464603424e-03 7.451311945915222168e-01 4.985437728464603424e-03 -5.556845664978027344e-01 2.300971187651157379e-03 1.264383673667907715e+00 0.000000000000000000e+00 1.622184664011001587e-01 1.266684651374816895e+00 9.015972018241882324e-01 -9.802137017250061035e-01 -6.097573786973953247e-02 1.293529272079467773e+00 6.135923042893409729e-02 -1.256598758697509766e+01
0.000000000000000000e+00 -5.253884196281433105e-02 4.985437728464603424e-03 7.447476983070373535e-01 4.985437728464603424e-03 -5.553010702133178711e-01 2.300971187651157379e-03 1.265150666236877441e+00 -7.669904152862727642e-04 1.622184664011001587e-01 1.265917658805847168e+00 9.023641943931579590e-01 -9.809806942939758301e-01 -6.097573786973953247e-02 1.294679760932922363e+00 6.212622299790382385e-02 -1.256598758697509766e+01
0.000000000000000000e+00 -5.215534567832946777e-02 5.368932615965604782e-03 7.447476983070373535e-01 4.601942375302314758e-03 -5.553010702133178711e-01 2.300971187651157379e-03 1.264767169952392578e+00 -7.669904152862727642e-04 1.622184664011001587e-01 1.265917658805847168e+00 9.019806981086730957e-01 -9.802137017250061035e-01 -6.097573786973953247e-02 1.294296264648437500e+00 6.174272671341896057e-02 -1.256598758697509766e+01
0.000000000000000000e+00 -5.292233824729919434e-02 4.985437728464603424e-03 7.443642020225524902e-01 5.368932615965604782e-03 -5.560680627822875977e-01 1.150485593825578690e-03 1.264383673667907715e+00 -3.834952076431363821e-04 1.622184664011001587e-01 1.266684651374816895e+00 9.015972018241882324e-01 -9.802137017250061035e-01 -6.020874530076980591e-02 1.294679760932922363e+00 6.174272671341896057e-02 -1.256598758697509766e+01
0.000000000000000000e+00 -5.253884196281433105e-02 4.218447022140026093e-03 7.451311945915222168e-01 4.985437728464603424e-03 -5.564515590667724609e-01 2.300971187651157379e-03 1.264383673667907715e+00 -3.834952076431363821e-04 1.618349701166152954e-01 1.266301155090332031e+00 9.023641943931579590e-01 -9.802137017250061035e-01 -6.212622299790382385e-02 1.294679760932922363e+00 6.212622299790382385e-02 -1.256598758697509766e+01
0.000000000000000000e+00 -5.253884196281433105e-02 4.985437728464603424e-03 7.447476983070373535e-01 4.985437728464603424e-03 -5.560680627822875977e-01 2.300971187651157379e-03 1.264383673667907715e+00 -3.834952076431363821e-04 1.622184664011001587e-01 1.265917658805847168e+00 9.019806981086730957e-01 -9.809806942939758301e-01 -6.097573786973953247e-02 1.293912768363952637e+00 6.135923042893409729e-02 -1.256598758697509766e+01
0.000000000000000000e+00 -5.253884196281433105e-02 4.985437728464603424e-03 7.451311945915222168e-01 4.985437728464603424e-03 -5.568350553512573242e-01 2.684466307982802391e-03 1.264383673667907715e+00 -7.669904152862727642e-04 1.618349701166152954e-01 1.266684651374816895e+00 9.023641943931579590e-01 -9.802137017250061035e-01 -6.135923042893409729e-02 1.294296264648437500e+00 6.250971555709838867e-02 -1.256598758697509766e+01
0.000000000000000000e+00 -5.330583080649375916e-02 4.985437728464603424e-03 7.447476983070373535e-01 4.985437728464603424e-03 -5.568350553512573242e-01 2.300971187651157379e-03 1.264383673667907715e+00 -1.150485593825578690e-03 1.618349701166152954e-01 1.266301155090332031e+00 9.015972018241882324e-01 -9.798302054405212402e-01 -6.059224158525466919e-02 1.293912768363952637e+00 6.135923042893409729e-02 -1.256598758697509766e+01
0.000000000000000000e+00 -5.215534567832946777e-02 4.601942375302314758e-03 7.435972094535827637e-01 5.368932615965604782e-03 -5.560680627822875977e-01 2.300971187651157379e-03 1.264383673667907715e+00 0.000000000000000000e+00 1.626019626855850220e-01 1.266301155090332031e+00 9.012137055397033691e-01 -9.802137017250061035e-01 -6.020874530076980591e-02 1.294296264648437500e+00 6.174272671341896057e-02 -1.256598758697509766e+01
0.000000000000000000e+00 -5.253884196281433105e-02 4.985437728464603424e-03 7.447476983070373535e-01 4.601942375302314758e-03 -5.568350553512573242e-01 1.533980830572545528e-03 1.264383673667907715e+00 -7.669904152862727642e-04 1.626019626855850220e-01 1.265534162521362305e+00 9.012137055397033691e-01 -9.798302054405212402e-01 -6.059224158525466919e-02 1.293912768363952637e+00 6.174272671341896057e-02 -1.256598758697509766e+01
0.000000000000000000e+00 -5.253884196281433105e-02 4.218447022140026093e-03 7.451311945915222168e-01 5.752427969127893448e-03 -5.568350553512573242e-01 2.300971187651157379e-03 1.263616681098937988e+00 0.000000000000000000e+00 1.629854589700698853e-01 1.265917658805847168e+00 9.012137055397033691e-01 -9.802137017250061035e-01 -6.097573786973953247e-02 1.294296264648437500e+00 6.135923042893409729e-02 -1.256598758697509766e+01
0.000000000000000000e+00 -5.292233824729919434e-02 5.368932615965604782e-03 7.443642020225524902e-01 5.752427969127893448e-03 -5.579854846000671387e-01 2.300971187651157379e-03 1.264000177383422852e+00 -7.669904152862727642e-04 1.618349701166152954e-01 1.267451643943786621e+00 9.015972018241882324e-01 -9.802137017250061035e-01 -6.135923042893409729e-02 1.293912768363952637e+00 6.250971555709838867e-02 -1.256598758697509766e+01
0.000000000000000000e+00 -5.253884196281433105e-02 5.368932615965604782e-03 7.447476983070373535e-01 4.601942375302314758e-03 -5.576019883155822754e-01 1.917475950904190540e-03 1.264767169952392578e+00 0.000000000000000000e+00 1.614514738321304321e-01 1.265917658805847168e+00 9.015972018241882324e-01 -9.798302054405212402e-01 -6.059224158525466919e-02 1.294679760932922363e+00 6.212622299790382385e-02 -1.256598758697509766e+01
0.000000000000000000e+00 -5.253884196281433105e-02 5.368932615965604782e-03 7.447476983070373535e-01 4.985437728464603424e-03 -5.576019883155822754e-01 2.684466307982802391e-03 1.264383673667907715e+00 -1.150485593825578690e-03 1.618349701166152954e-01 1.266301155090332031e+00 9.023641943931579590e-01 -9.805971980094909668e-01 -6.097573786973953247e-02 1.293529272079467773e+00 6.174272671341896057e-02 -1.256598758697509766e+01
0.000000000000000000e+00 -5.292233824729919434e-02 4.985437728464603424e-03 7.435972094535827637e-01 5.368932615965604782e-03 -5.568350553512573242e-01 2.684466307982802391e-03 1.264383673667907715e+00 -7.669904152862727642e-04 1.622184664011001587e-01 1.267068147659301758e+00 9.023641943931579590e-01 -9.794467091560363770e-01 -6.097573786973953247e-02 1.294296264648437500e+00 6.174272671341896057e-02 -1.256598758697509766e+01
0.000000000000000000e+00 -5.292233824729919434e-02 4.985437728464603424e-03 7.443642020225524902e-01 4.601942375302314758e-03 -5.576019883155822754e-01 1.917475950904190540e-03 1.264383673667907715e+00 -7.669904152862727642e-04 1.618349701166152954e-01 1.267068147659301758e+00 9.023641943931579590e-01 -9.805971980094909668e-01 -6.097573786973953247e-02 1.293529272079467773e+00 6.212622299790382385e-02 -1.256598758697509766e+01
0.000000000000000000e+00 -5.292233824729919434e-02 4.601942375302314758e-03 7.443642020225524902e-01 5.368932615965604782e-03 -5.576019883155822754e-01 1.917475950904190540e-03 1.264383673667907715e+00 -7.669904152862727642e-04 1.622184664011001587e-01 1.265917658805847168e+00 9.019806981086730957e-01 -9.794467091560363770e-01 -6.059224158525466919e-02 1.293529272079467773e+00 6.135923042893409729e-02 -1.256598758697509766e+01
0.000000000000000000e+00 -5.253884196281433105e-02 3.834951901808381081e-03 7.447476983070373535e-01 5.368932615965604782e-03 -5.579854846000671387e-01 2.300971187651157379e-03 1.263616681098937988e+00 -7.669904152862727642e-04 1.618349701166152954e-01 1.266301155090332031e+00 9.023641943931579590e-01 -9.802137017250061035e-01 -6.097573786973953247e-02 1.293912768363952637e+00 6.135923042893409729e-02 -1.256598758697509766e+01
0.000000000000000000e+00 -5.292233824729919434e-02 4.985437728464603424e-03 7.432137131690979004e-01 4.985437728464603424e-03 -5.579854846000671387e-01 1.533980830572545528e-03 1.264000177383422852e+00 -3.834952076431363821e-04 1.626019626855850220e-01 1.266301155090332031e+00 9.012137055397033691e-01 -9.798302054405212402e-01 -6.059224158525466919e-02 1.294296264648437500e+00 6.250971555709838867e-02 -1.256598758697509766e+01
0.000000000000000000e+00 -5.292233824729919434e-02 4.601942375302314758e-03 7.443642020225524902e-01 5.368932615965604782e-03 -5.576019883155822754e-01 2.300971187651157379e-03 1.264000177383422852e+00 -7.669904152862727642e-04 1.626019626855850220e-01 1.267068147659301758e+00 9.015972018241882324e-01 -9.802137017250061035e-01 -6.097573786973953247e-02 1.294679760932922363e+00 6.135923042893409729e-02 -1.256598758697509766e+01
0.000000000000000000e+00 -5.253884196281433105e-02 4.985437728464603424e-03 7.443642020225524902e-01 5.368932615965604782e-03 -5.576019883155822754e-01 2.300971187651157379e-03 1.264000177383422852e+00 -3.834952076431363821e-04 1.622184664011001587e-01 1.266301155090332031e+00 9.015972018241882324e-01 -9.794467091560363770e-01 -6.212622299790382385e-02 1.295063257217407227e+00 6.174272671341896057e-02 -1.256598758697509766e+01
0.000000000000000000e+00 -5.253884196281433105e-02 4.985437728464603424e-03 7.443642020225524902e-01 5.368932615965604782e-03 -5.583689808845520020e-01 2.684466307982802391e-03 1.263616681098937988e+00 -1.150485593825578690e-03 1.618349701166152954e-01 1.266301155090332031e+00 9.019806981086730957e-01 -9.802137017250061035e-01 -6.020874530076980591e-02 1.294296264648437500e+00 6.250971555709838867e-02 -1.256598758697509766e+01
0.000000000000000000e+00 -5.253884196281433105e-02 4.985437728464603424e-03 7.443642020225524902e-01 5.368932615965604782e-03 -5.576019883155822754e-01 2.300971187651157379e-03 1.264383673667907715e+00 -7.669904152862727642e-04 1.622184664011001587e-01 1.265917658805847168e+00 9.015972018241882324e-01 -9.798302054405212402e-01 -6.059224158525466919e-02 1.294296264648437500e+00 6.174272671341896057e-02 -1.256598758697509766e+01
0.000000000000000000e+00 -5.215534567832946777e-02 4.985437728464603424e-03 7.432137131690979004e-01 5.368932615965604782e-03 -5.576019883155822754e-01 2.300971187651157379e-03 1.264383673667907715e+00 -7.669904152862727642e-04 1.614514738321304321e-01 1.266301155090332031e+00 9.023641943931579590e-01 -9.802137017250061035e-01 -6.097573786973953247e-02 1.294679760932922363e+00 6.174272671341896057e-02 -1.256598758697509766e+01
0.000000000000000000e+00 -5.292233824729919434e-02 4.601942375302314758e-03 7.435972094535827637e-01 4.985437728464603424e-03 -5.579854846000671387e-01 2.300971187651157379e-03 1.264383673667907715e+00 -3.834952076431363821e-04 1.622184664011001587e-01 1.266301155090332031e+00 9.019806981086730957e-01 -9.802137017250061035e-01 -6.135923042893409729e-02 1.294296264648437500e+00 6.135923042893409729e-02 -1.256598758697509766e+01
0.000000000000000000e+00 -5.215534567832946777e-02 4.601942375302314758e-03 7.443642020225524902e-01 5.368932615965604782e-03 -5.576019883155822754e-01 2.684466307982802391e-03 1.264383673667907715e+00 -7.669904152862727642e-04 1.618349701166152954e-01 1.266301155090332031e+00 9.015972018241882324e-01 -9.802137017250061035e-01 -6.097573786973953247e-02 1.293912768363952637e+00 6.174272671341896057e-02 -1.256598758697509766e+01
0.000000000000000000e+00 -5.292233824729919434e-02 5.368932615965604782e-03 7.443642020225524902e-01 5.368932615965604782e-03 -5.572184920310974121e-01 2.684466307982802391e-03 1.264000177383422852e+00 -1.533980830572545528e-03 1.622184664011001587e-01 1.266301155090332031e+00 9.023641943931579590e-01 -9.805971980094909668e-01 -6.097573786973953247e-02 1.293529272079467773e+00 6.174272671341896057e-02 -1.256598758697509766e+01
0.000000000000000000e+00 -5.215534567832946777e-02 4.601942375302314758e-03 7.443642020225524902e-01 4.985437728464603424e-03 -5.576019883155822754e-01 2.300971187651157379e-03 1.264000177383422852e+00 -7.669904152862727642e-04 1.626019626855850220e-01 1.266301155090332031e+00 9.019806981086730957e-01 -9.805971980094909668e-01 -6.059224158525466919e-02 1.293912768363952637e+00 6.174272671341896057e-02 -1.256598758697509766e+01
0.000000000000000000e+00 -5.253884196281433105e-02 4.218447022140026093e-03 7.443642020225524902e-01 4.985437728464603424e-03 -5.576019883155822754e-01 1.917475950904190540e-03 1.264383673667907715e+00 -7.669904152862727642e-04 1.626019626855850220e-01 1.265150666236877441e+00 9.019806981086730957e-01 -9.802137017250061035e-01 -6.097573786973953247e-02 1.293912768363952637e+00 6.135923042893409729e-02 -1.256598758697509766e+01
0.000000000000000000e+00 -5.292233824729919434e-02 4.601942375302314758e-03 7.443642020225524902e-01 4.985437728464603424e-03 -5.579854846000671387e-01 2.300971187651157379e-03 1.264767169952392578e+00 -7.669904152862727642e-04 1.622184664011001587e-01 1.265917658805847168e+00 9.015972018241882324e-01 -9.805971980094909668e-01 -6.135923042893409729e-02 1.294679760932922363e+00 6.212622299790382385e-02 -1.256598758697509766e+01
0.000000000000000000e+00 -5.215534567832946777e-02 4.985437728464603424e-03 7.435972094535827637e-01 4.985437728464603424e-03 -5.572184920310974121e-01 2.300971187651157379e-03 1.264000177383422852e+00 -1.150485593825578690e-03 1.622184664011001587e-01 1.266684651374816895e+00 9.027476906776428223e-01 -9.805971980094909668e-01 -6.174272671341896057e-02 1.293912768363952637e+00 6.212622299790382385e-02 -1.256598758697509766e+01
0.000000000000000000e+00 -5.292233824729919434e-02 5.752427969127893448e-03 7.432137131690979004e-01 4.985437728464603424e-03 -5.564515590667724609e-01 1.917475950904190540e-03 1.263616681098937988e+00 -7.669904152862727642e-04 1.614514738321304321e-01 1.266684651374816895e+00 9.023641943931579590e-01 -9.798302054405212402e-01 -6.097573786973953247e-02 1.294679760932922363e+00 6.250971555709838867e-02 -1.256598758697509766e+01
0.000000000000000000e+00 -5.330583080649375916e-02 4.985437728464603424e-03 7.443642020225524902e-01 5.368932615965604782e-03 -5.579854846000671387e-01 3.067961661145091057e-03 1.264383673667907715e+00 -3.834952076431363821e-04 1.618349701166152954e-01 1.266301155090332031e+00 9.019806981086730957e-01 -9.805971980094909668e-01 -6.097573786973953247e-02 1.294679760932922363e+00 6.135923042893409729e-02 -1.256598758697509766e+01
0.000000000000000000e+00 -5.292233824729919434e-02 4.985437728464603424e-03 7.447476983070373535e-01 5.368932615965604782e-03 -5.568350553512573242e-01 2.300971187651157379e-03 1.264000177383422852e+00 -1.150485593825578690e-03 1.626019626855850220e-01 1.267068147659301758e+00 9.019806981086730957e-01 -9.805971980094909668e-01 -6.135923042893409729e-02 1.294296264648437500e+00 6.212622299790382385e-02 -1.256598758697509766e+01
0.000000000000000000e+00 -5.253884196281433105e-02 3.834951901808381081e-03 7.451311945915222168e-01 5.368932615965604782e-03 -5.572184920310974121e-01 2.300971187651157379e-03 1.264383673667907715e+00 -7.669904152862727642e-04 1.618349701166152954e-01 1.265917658805847168e+00 9.023641943931579590e-01 -9.805971980094909668e-01 -6.059224158525466919e-02 1.294679760932922363e+00 6.174272671341896057e-02 -1.256598758697509766e+01
0.000000000000000000e+00 -5.253884196281433105e-02 5.752427969127893448e-03 7.447476983070373535e-01 4.985437728464603424e-03 -5.564515590667724609e-01 2.300971187651157379e-03 1.264383673667907715e+00 -7.669904152862727642e-04 1.626019626855850220e-01 1.265534162521362305e+00 9.023641943931579590e-01 -9.805971980094909668e-01 -6.097573786973953247e-02 1.294296264648437500e+00 6.212622299790382385e-02 -1.256598758697509766e+01
0.000000000000000000e+00 -5.253884196281433105e-02 4.985437728464603424e-03 7.447476983070373535e-01 4.985437728464603424e-03 -5.568350553512573242e-01 2.300971187651157379e-03 1.264767169952392578e+00 -3.834952076431363821e-04 1.622184664011001587e-01 1.266684651374816895e+00 9.023641943931579590e-01 -9.802137017250061035e-01 -6.135923042893409729e-02 1.293529272079467773e+00 6.135923042893409729e-02 -1.256598758697509766e+01
0.000000000000000000e+00 -5.292233824729919434e-02 4.985437728464603424e-03 7.447476983070373535e-01 5.368932615965604782e-03 -5.568350553512573242e-01 1.533980830572545528e-03 1.264383673667907715e+00 -7.669904152862727642e-04 1.614514738321304321e-01 1.265917658805847168e+00 9.019806981086730957e-01 -9.802137017250061035e-01 -6.212622299790382385e-02 1.294296264648437500e+00 6.097573786973953247e-02 -1.256598758697509766e+01
0.000000000000000000e+00 -5.292233824729919434e-02 4.601942375302314758e-03 7.443642020225524902e-01 5.368932615965604782e-03 -5.576019883155822754e-01 1.917475950904190540e-03 1.264383673667907715e+00 -7.669904152862727642e-04 1.622184664011001587e-01 1.265917658805847168e+00 9.019806981086730957e-01 -9.802137017250061035e-01 -6.097573786973953247e-02 1.293912768363952637e+00 6.135923042893409729e-02 -1.256598758697509766e+01
0.000000000000000000e+00 -5.215534567832946777e-02 4.985437728464603424e-03 7.447476983070373535e-01 4.601942375302314758e-03 -5.564515590667724609e-01 1.917475950904190540e-03 1.264383673667907715e+00 -3.834952076431363821e-04 1.622184664011001587e-01 1.266684651374816895e+00 9.023641943931579590e-01 -9.798302054405212402e-01 -6.059224158525466919e-02 1.294296264648437500e+00 6.212622299790382385e-02 -1.256598758697509766e+01
0.000000000000000000e+00 -5.253884196281433105e-02 4.601942375302314758e-03 7.443642020225524902e-01 5.368932615965604782e-03 -5.564515590667724609e-01 2.300971187651157379e-03 1.264000177383422852e+00 -7.669904152862727642e-04 1.618349701166152954e-01 1.265534162521362305e+00 9.019806981086730957e-01 -9.798302054405212402e-01 -6.059224158525466919e-02 1.294296264648437500e+00 6.174272671341896057e-02 -1.256598758697509766e+01
0.000000000000000000e+00 -5.292233824729919434e-02 4.601942375302314758e-03 7.443642020225524902e-01 4.985437728464603424e-03 -5.564515590667724609e-01 2.300971187651157379e-03 1.264000177383422852e+00 -3.834952076431363821e-04 1.622184664011001587e-01 1.266301155090332031e+00 9.012137055397033691e-01 -9.802137017250061035e-01 -6.097573786973953247e-02 1.294296264648437500e+00 6.174272671341896057e-02 -1.256598758697509766e+01
0.000000000000000000e+00 -5.253884196281433105e-02 4.985437728464603424e-03 7.435972094535827637e-01 5.368932615965604782e-03 -5.568350553512573242e-01 2.300971187651157379e-03 1.263616681098937988e+00 -7.669904152862727642e-04 1.614514738321304321e-01 1.266301155090332031e+00 9.027476906776428223e-01 -9.802137017250061035e-01 -6.135923042893409729e-02 1.294296264648437500e+00 6.212622299790382385e-02 -1.256598758697509766e+01
0.000000000000000000e+00 -5.292233824729919434e-02 4.601942375302314758e-03 7.443642020225524902e-01 5.368932615965604782e-03 -5.564515590667724609e-01 2.300971187651157379e-03 1.264000177383422852e+00 -7.669904152862727642e-04 1.618349701166152954e-01 1.266684651374816895e+00 9.019806981086730957e-01 -9.798302054405212402e-01 -6.059224158525466919e-02 1.293912768363952637e+00 6.212622299790382385e-02 -1.256598758697509766e+01
0.000000000000000000e+00 -5.253884196281433105e-02 5.368932615965604782e-03 7.435972094535827637e-01 4.985437728464603424e-03 -5.568350553512573242e-01 2.300971187651157379e-03 1.264000177383422852e+00 -3.834952076431363821e-04 1.618349701166152954e-01 1.265534162521362305e+00 9.019806981086730957e-01 -9.794467091560363770e-01 -6.020874530076980591e-02 1.294679760932922363e+00 6.212622299790382385e-02 -1.256598758697509766e+01
0.000000000000000000e+00 -5.292233824729919434e-02 4.601942375302314758e-03 7.447476983070373535e-01 4.985437728464603424e-03 -5.572184920310974121e-01 1.917475950904190540e-03 1.264000177383422852e+00 -3.834952076431363821e-04 1.618349701166152954e-01 1.265917658805847168e+00 9.015972018241882324e-01 -9.802137017250061035e-01 -6.097573786973953247e-02 1.293912768363952637e+00 6.212622299790382385e-02 -1.256598758697509766e+01
