0.000000000000000000e+00 -5.292233824729919434e-02 4.601942375302314758e-03 7.443642020225524902e-01 5.368932615965604782e-03 -5.545340776443481445e-01 2.300971187651157379e-03 1.264383673667907715e+00 -1.533980830572545528e-03 1.626019626855850220e-01 1.263233184814453125e+00 9.015972018241882324e-01 -9.805971980094909668e-01 -6.212622299790382385e-02 1.295063257217407227e+00 6.212622299790382385e-02 -1.256598758697509766e+01
0.000000000000000000e+00 -5.253884196281433105e-02 4.985437728464603424e-03 7.447476983070373535e-01 5.752427969127893448e-03 -5.553010702133178711e-01 1.917475950904190540e-03 1.264000177383422852e+00 -7.669904152862727642e-04 1.626019626855850220e-01 1.263616681098937988e+00 9.023641943931579590e-01 -9.805971980094909668e-01 -6.250971555709838867e-02 1.294296264648437500e+00 6.212622299790382385e-02 -1.256598758697509766e+01
0.000000000000000000e+00 -5.292233824729919434e-02 4.985437728464603424e-03 7.447476983070373535e-01 4.985437728464603424e-03 -5.545340776443481445e-01 2.684466307982802391e-03 1.264000177383422852e+00 -7.669904152862727642e-04 1.629854589700698853e-01 1.263233184814453125e+00 9.019806981086730957e-01 -9.809806942939758301e-01 -6.250971555709838867e-02 1.295063257217407227e+00 6.174272671341896057e-02 -1.256598758697509766e+01
0.000000000000000000e+00 -5.253884196281433105e-02 4.601942375302314758e-03 7.443642020225524902e-01 4.985437728464603424e-03 -5.553010702133178711e-01 1.533980830572545528e-03 1.264383673667907715e+00 -7.669904152862727642e-04 1.629854589700698853e-01 1.263616681098937988e+00 9.023641943931579590e-01 -9.809806942939758301e-01 -6.250971555709838867e-02 1.295446753501892090e+00 6.250971555709838867e-02 -1.256598758697509766e+01
0.000000000000000000e+00 -5.253884196281433105e-02 4.985437728464603424e-03 7.443642020225524902e-01 5.752427969127893448e-03 -5.549175739288330078e-01 1.150485593825578690e-03 1.264000177383422852e+00 -7.669904152862727642e-04 1.622184664011001587e-01 1.263616681098937988e+00 9.019806981086730957e-01 -9.805971980094909668e-01 -6.212622299790382385e-02 1.295063257217407227e+00 6.212622299790382385e-02 -1.256598758697509766e+01
0.000000000000000000e+00 -5.177185311913490295e-02 5.368932615965604782e-03 7.451311945915222168e-01 5.368932615965604782e-03 -5.549175739288330078e-01 2.684466307982802391e-03 1.264383673667907715e+00 -7.669904152862727642e-04 1.633689552545547485e-01 1.264383673667907715e+00 9.019806981086730957e-01 -9.805971980094909668e-01 -6.212622299790382385e-02 1.295446753501892090e+00 6.212622299790382385e-02 -1.256598758697509766e+01
0.000000000000000000e+00 -5.292233824729919434e-02 4.218447022140026093e-03 7.443642020225524902e-01 5.752427969127893448e-03 -5.545340776443481445e-01 2.684466307982802391e-03 1.264000177383422852e+00 -1.533980830572545528e-03 1.626019626855850220e-01 1.264000177383422852e+00 9.019806981086730957e-01 -9.805971980094909668e-01 -6.250971555709838867e-02 1.295063257217407227e+00 6.212622299790382385e-02 -1.256598758697509766e+01
0.000000000000000000e+00 -5.253884196281433105e-02 4.985437728464603424e-03 7.443642020225524902e-01 5.368932615965604782e-03 -5.556845664978027344e-01 2.300971187651157379e-03 1.264383673667907715e+00 -1.150485593825578690e-03 1.626019626855850220e-01 1.263616681098937988e+00 9.019806981086730957e-01 -9.805971980094909668e-01 -6.212622299790382385e-02 1.294679760932922363e+00 6.212622299790382385e-02 -1.256598758697509766e+01
0.000000000000000000e+00 -5.292233824729919434e-02 4.985437728464603424e-03 7.447476983070373535e-01 5.752427969127893448e-03 -5.553010702133178711e-01 1.917475950904190540e-03 1.263616681098937988e+00 -3.834952076431363821e-04 1.629854589700698853e-01 1.264383673667907715e+00 9.015972018241882324e-01 -9.805971980094909668e-01 -6.212622299790382385e-02 1.295063257217407227e+00 6.174272671341896057e-02 -1.256598758697509766e+01
0.000000000000000000e+00 -5.292233824729919434e-02 4.985437728464603424e-03 7.447476983070373535e-01 4.985437728464603424e-03 -5.549175739288330078e-01 2.684466307982802391e-03 1.264383673667907715e+00 -3.834952076431363821e-04 1.626019626855850220e-01 1.264767169952392578e+00 9.019806981086730957e-01 -9.809806942939758301e-01 -6.212622299790382385e-02 1.295063257217407227e+00 6.174272671341896057e-02 -1.256598758697509766e+01
0.000000000000000000e+00 -5.253884196281433105e-02 5.368932615965604782e-03 7.451311945915222168e-01 5.368932615965604782e-03 -5.549175739288330078e-01 2.300971187651157379e-03 1.264000177383422852e+00 -7.669904152862727642e-04 1.622184664011001587e-01 1.263616681098937988e+00 9.015972018241882324e-01 -9.809806942939758301e-01 -6.250971555709838867e-02 1.295063257217407227e+00 6.174272671341896057e-02 -1.256598758697509766e+01
0.000000000000000000e+00 -5.253884196281433105e-02 4.218447022140026093e-03 7.443642020225524902e-01 5.368932615965604782e-03 -5.545340776443481445e-01 2.300971187651157379e-03 1.264383673667907715e+00 -7.669904152862727642e-04 1.626019626855850220e-01 1.264767169952392578e+00 9.027476906776428223e-01 -9.798302054405212402e-01 -6.212622299790382385e-02 1.294296264648437500e+00 6.174272671341896057e-02 -1.256598758697509766e+01
0.000000000000000000e+00 -5.330583080649375916e-02 4.985437728464603424e-03 7.447476983070373535e-01 5.752427969127893448e-03 -5.553010702133178711e-01 1.917475950904190540e-03 1.263616681098937988e+00 -3.834952076431363821e-04 1.626019626855850220e-01 1.264000177383422852e+00 9.019806981086730957e-01 -9.802137017250061035e-01 -6.250971555709838867e-02 1.294296264648437500e+00 6.212622299790382385e-02 -1.256598758697509766e+01
0.000000000000000000e+00 -5.215534567832946777e-02 3.834951901808381081e-03 7.451311945915222168e-01 5.368932615965604782e-03 -5.545340776443481445e-01 2.684466307982802391e-03 1.264000177383422852e+00 -7.669904152862727642e-04 1.633689552545547485e-01 1.263616681098937988e+00 9.019806981086730957e-01 -9.805971980094909668e-01 -6.212622299790382385e-02 1.293912768363952637e+00 6.212622299790382385e-02 -1.256598758697509766e+01
0.000000000000000000e+00 -5.253884196281433105e-02 4.985437728464603424e-03 7.443642020225524902e-01 4.985437728464603424e-03 -5.553010702133178711e-01 1.917475950904190540e-03 1.264000177383422852e+00 -3.834952076431363821e-04 1.629854589700698853e-01 1.264383673667907715e+00 9.023641943931579590e-01 -9.798302054405212402e-01 -6.212622299790382385e-02 1.293912768363952637e+00 6.250971555709838867e-02 -1.256598758697509766e+01
0.000000000000000000e+00 -5.292233824729919434e-02 4.601942375302314758e-03 7.443642020225524902e-01 5.752427969127893448e-03 -5.549175739288330078e-01 2.300971187651157379e-03 1.264383673667907715e+00 -7.669904152862727642e-04 1.629854589700698853e-01 1.263616681098937988e+00 9.012137055397033691e-01 -9.802137017250061035e-01 -6.174272671341896057e-02 1.294679760932922363e+00 6.174272671341896057e-02 -1.256598758697509766e+01
0.000000000000000000e+00 -5.215534567832946777e-02 4.601942375302314758e-03 7.447476983070373535e-01 4.985437728464603424e-03 -5.549175739288330078e-01 1.533980830572545528e-03 1.263616681098937988e+00 -7.669904152862727642e-04 1.622184664011001587e-01 1.264383673667907715e+00 9.027476906776428223e-01 -9.802137017250061035e-01 -6.212622299790382385e-02 1.294679760932922363e+00 6.212622299790382385e-02 -1.256598758697509766e+01
0.000000000000000000e+00 -5.292233824729919434e-02 5.368932615965604782e-03 7.447476983070373535e-01 5.752427969127893448e-03 -5.549175739288330078e-01 2.300971187651157379e-03 1.264383673667907715e+00 -7.669904152862727642e-04 1.622184664011001587e-01 1.264000177383422852e+00 9.015972018241882324e-01 -9.805971980094909668e-01 -6.250971555709838867e-02 1.295830249786376953e+00 6.174272671341896057e-02 -1.256598758697509766e+01
0.000000000000000000e+00 -5.292233824729919434e-02 4.985437728464603424e-03 7.451311945915222168e-01 4.985437728464603424e-03 -5.549175739288330078e-01 2.684466307982802391e-03 1.264000177383422852e+00 -3.834952076431363821e-04 1.633689552545547485e-01 1.264000177383422852e+00 9.015972018241882324e-01 -9.802137017250061035e-01 -6.212622299790382385e-02 1.295446753501892090e+00 6.212622299790382385e-02 -1.256598758697509766e+01
0.000000000000000000e+00 -5.292233824729919434e-02 4.601942375302314758e-03 7.443642020225524902e-01 4.985437728464603424e-03 -5.556845664978027344e-01 1.150485593825578690e-03 1.264000177383422852e+00 -7.669904152862727642e-04 1.626019626855850220e-01 1.264000177383422852e+00 9.023641943931579590e-01 -9.802137017250061035e-01 -6.174272671341896057e-02 1.295830249786376953e+00 6.250971555709838867e-02 -1.256598758697509766e+01
0.000000000000000000e+00 -5.292233824729919434e-02 4.601942375302314758e-03 7.447476983070373535e-01 5.368932615965604782e-03 -5.553010702133178711e-01 1.917475950904190540e-03 1.264767169952392578e+00 -7.669904152862727642e-04 1.626019626855850220e-01 1.264383673667907715e+00 9.012137055397033691e-01 -9.805971980094909668e-01 -6.174272671341896057e-02 1.295446753501892090e+00 6.174272671341896057e-02 -1.256598758697509766e+01
0.000000000000000000e+00 -5.215534567832946777e-02 4.985437728464603424e-03 7.443642020225524902e-01 5.368932615965604782e-03 -5.553010702133178711e-01 1.917475950904190540e-03 1.263616681098937988e+00 -3.834952076431363821e-04 1.622184664011001587e-01 1.263233184814453125e+00 9.019806981086730957e-01 -9.809806942939758301e-01 -6.212622299790382385e-02 1.295830249786376953e+00 6.250971555709838867e-02 -1.256598758697509766e+01
0.000000000000000000e+00 -5.330583080649375916e-02 4.985437728464603424e-03 7.451311945915222168e-01 5.368932615965604782e-03 -5.545340776443481445e-01 2.300971187651157379e-03 1.264000177383422852e+00 -1.150485593825578690e-03 1.622184664011001587e-01 1.264383673667907715e+00 9.023641943931579590e-01 -9.798302054405212402e-01 -6.212622299790382385e-02 1.294679760932922363e+00 6.250971555709838867e-02 -1.256598758697509766e+01
0.000000000000000000e+00 -5.292233824729919434e-02 4.601942375302314758e-03 7.443642020225524902e-01 4.218447022140026093e-03 -5.553010702133178711e-01 2.300971187651157379e-03 1.264000177383422852e+00 -3.834952076431363821e-04 1.622184664011001587e-01 1.263616681098937988e+00 9.015972018241882324e-01 -9.802137017250061035e-01 -6.212622299790382385e-02 1.294679760932922363e+00 6.212622299790382385e-02 -1.256598758697509766e+01
0.000000000000000000e+00 -5.253884196281433105e-02 4.601942375302314758e-03 7.435972094535827637e-01 4.985437728464603424e-03 -5.549175739288330078e-01 1.150485593825578690e-03 1.264000177383422852e+00 -7.669904152862727642e-04 1.626019626855850220e-01 1.263616681098937988e+00 9.019806981086730957e-01 -9.805971980094909668e-01 -6.174272671341896057e-02 1.294679760932922363e+00 6.212622299790382385e-02 -1.256598758697509766e+01
0.000000000000000000e+00 -5.292233824729919434e-02 4.985437728464603424e-03 7.447476983070373535e-01 5.368932615965604782e-03 -5.553010702133178711e-01 7.669904152862727642e-04 1.264767169952392578e+00 -3.834952076431363821e-04 1.622184664011001587e-01 1.264000177383422852e+00 9.015972018241882324e-01 -9.802137017250061035e-01 -6.212622299790382385e-02 1.295063257217407227e+00 6.135923042893409729e-02 -1.256598758697509766e+01
0.000000000000000000e+00 -5.215534567832946777e-02 4.985437728464603424e-03 7.447476983070373535e-01 5.368932615965604782e-03 -5.545340776443481445e-01 1.917475950904190540e-03 1.264383673667907715e+00 -7.669904152862727642e-04 1.626019626855850220e-01 1.264000177383422852e+00 9.019806981086730957e-01 -9.809806942939758301e-01 -6.250971555709838867e-02 1.294679760932922363e+00 6.212622299790382385e-02 -1.256598758697509766e+01
0.000000000000000000e+00 -5.330583080649375916e-02 4.985437728464603424e-03 7.443642020225524902e-01 5.368932615965604782e-03 -5.549175739288330078e-01 1.533980830572545528e-03 1.263616681098937988e+00 -3.834952076431363821e-04 1.626019626855850220e-01 1.264000177383422852e+00 9.027476906776428223e-01 -9.805971980094909668e-01 -6.250971555709838867e-02 1.294679760932922363e+00 6.212622299790382385e-02 -1.256598758697509766e+01
0.000000000000000000e+00 -5.253884196281433105e-02 4.601942375302314758e-03 7.443642020225524902e-01 5.752427969127893448e-03 -5.549175739288330078e-01 1.917475950904190540e-03 1.264383673667907715e+00 -1.150485593825578690e-03 1.626019626855850220e-01 1.264000177383422852e+00 9.019806981086730957e-01 -9.805971980094909668e-01 -6.212622299790382385e-02 1.294296264648437500e+00 6.212622299790382385e-02 -1.256598758697509766e+01
0.000000000000000000e+00 -5.292233824729919434e-02 4.985437728464603424e-03 7.443642020225524902e-01 5.368932615965604782e-03 -5.549175739288330078e-01 1.917475950904190540e-03 1.263616681098937988e+00 -7.669904152862727642e-04 1.629854589700698853e-01 1.264383673667907715e+00 9.023641943931579590e-01 -9.805971980094909668e-01 -6.212622299790382385e-02 1.295446753501892090e+00 6.212622299790382385e-02 -1.256598758697509766e+01
0.000000000000000000e+00 -5.253884196281433105e-02 4.985437728464603424e-03 7.451311945915222168e-01 4.985437728464603424e-03 -5.549175739288330078e-01 1.917475950904190540e-03 1.263616681098937988e+00 -1.150485593825578690e-03 1.626019626855850220e-01 1.263233184814453125e+00 9.019806981086730957e-01 -9.802137017250061035e-01 -6.135923042893409729e-02 1.295063257217407227e+00 6.212622299790382385e-02 -1.256598758697509766e+01
0.000000000000000000e+00 -5.292233824729919434e-02 4.218447022140026093e-03 7.443642020225524902e-01 5.752427969127893448e-03 -5.541505813598632812e-01 2.684466307982802391e-03 1.264000177383422852e+00 -7.669904152862727642e-04 1.629854589700698853e-01 1.264383673667907715e+00 9.023641943931579590e-01 -9.809806942939758301e-01 -6.250971555709838867e-02 1.295063257217407227e+00 6.174272671341896057e-02 -1.256598758697509766e+01
0.000000000000000000e+00 -5.292233824729919434e-02 4.218447022140026093e-03 7.451311945915222168e-01 4.985437728464603424e-03 -5.553010702133178711e-01 2.300971187651157379e-03 1.264383673667907715e+00 -7.669904152862727642e-04 1.629854589700698853e-01 1.263233184814453125e+00 9.012137055397033691e-01 -9.805971980094909668e-01 -6.212622299790382385e-02 1.294296264648437500e+00 6.174272671341896057e-02 -1.256598758697509766e+01
0.000000000000000000e+00 -5.215534567832946777e-02 4.218447022140026093e-03 7.447476983070373535e-01 4.985437728464603424e-03 -5.553010702133178711e-01 1.533980830572545528e-03 1.264383673667907715e+00 -7.669904152862727642e-04 1.626019626855850220e-01 1.264000177383422852e+00 9.019806981086730957e-01 -9.802137017250061035e-01 -6.212622299790382385e-02 1.293912768363952637e+00 6.212622299790382385e-02 -1.256598758697509766e+01
0.000000000000000000e+00 -5.253884196281433105e-02 4.985437728464603424e-03 7.443642020225524902e-01 5.368932615965604782e-03 -5.545340776443481445e-01 1.917475950904190540e-03 1.264000177383422852e+00 -7.669904152862727642e-04 1.626019626855850220e-01 1.264000177383422852e+00 9.027476906776428223e-01 -9.805971980094909668e-01 -6.250971555709838867e-02 1.294679760932922363e+00 6.212622299790382385e-02 -1.256598758697509766e+01
0.000000000000000000e+00 -5.292233824729919434e-02 4.601942375302314758e-03 7.443642020225524902e-01 5.368932615965604782e-03 -5.549175739288330078e-01 2.300971187651157379e-03 1.264000177383422852e+00 -3.834952076431363821e-04 1.622184664011001587e-01 1.263616681098937988e+00 9.027476906776428223e-01 -9.805971980094909668e-01 -6.135923042893409729e-02 1.294679760932922363e+00 6.212622299790382385e-02 -1.256598758697509766e+01
0.000000000000000000e+00 -5.292233824729919434e-02 4.601942375302314758e-03 7.451311945915222168e-01 4.601942375302314758e-03 -5.553010702133178711e-01 1.917475950904190540e-03 1.264000177383422852e+00 -7.669904152862727642e-04 1.622184664011001587e-01 1.263616681098937988e+00 9.008302092552185059e-01 -9.809806942939758301e-01 -6.212622299790382385e-02 1.295446753501892090e+00 6.212622299790382385e-02 -1.256598758697509766e+01
0.000000000000000000e+00 -5.253884196281433105e-02 4.218447022140026093e-03 7.451311945915222168e-01 4.601942375302314758e-03 -5.556845664978027344e-01 1.917475950904190540e-03 1.264000177383422852e+00 -1.150485593825578690e-03 1.626019626855850220e-01 1.263616681098937988e+00 9.023641943931579590e-01 -9.805971980094909668e-01 -6.212622299790382385e-02 1.294679760932922363e+00 6.212622299790382385e-02 -1.256598758697509766e+01
0.000000000000000000e+00 -5.253884196281433105e-02 4.218447022140026093e-03 7.447476983070373535e-01 5.368932615965604782e-03 -5.553010702133178711e-01 1.533980830572545528e-03 1.264000177383422852e+00 -7.669904152862727642e-04 1.622184664011001587e-01 1.264000177383422852e+00 9.019806981086730957e-01 -9.805971980094909668e-01 -6.212622299790382385e-02 1.295446753501892090e+00 6.174272671341896057e-02 -1.256598758697509766e+01
0.000000000000000000e+00 -5.253884196281433105e-02 4.985437728464603424e-03 7.447476983070373535e-01 5.368932615965604782e-03 -5.549175739288330078e-01 2.300971187651157379e-03 1.264383673667907715e+00 -7.669904152862727642e-04 1.622184664011001587e-01 1.263233184814453125e+00 9.019806981086730957e-01 -9.813641905784606934e-01 -6.250971555709838867e-02 1.295446753501892090e+00 6.174272671341896057e-02 -1.256598758697509766e+01
0.000000000000000000e+00 -5.253884196281433105e-02 4.218447022140026093e-03 7.451311945915222168e-01 5.752427969127893448e-03 -5.553010702133178711e-01 2.300971187651157379e-03 1.264000177383422852e+00 -1.533980830572545528e-03 1.637524515390396118e-01 1.264000177383422852e+00 9.027476906776428223e-01 -9.809806942939758301e-01 -6.289321184158325195e-02 1.294679760932922363e+00 6.212622299790382385e-02 -1.256598758697509766e+01
0.000000000000000000e+00 -5.253884196281433105e-02 4.601942375302314758e-03 7.451311945915222168e-01 5.368932615965604782e-03 -5.545340776443481445e-01 1.917475950904190540e-03 1.264383673667907715e+00 -7.669904152862727642e-04 1.633689552545547485e-01 1.263616681098937988e+00 9.019806981086730957e-01 -9.802137017250061035e-01 -6.212622299790382385e-02 1.294679760932922363e+00 6.174272671341896057e-02 -1.256598758697509766e+01
0.000000000000000000e+00 -5.215534567832946777e-02 5.368932615965604782e-03 7.435972094535827637e-01 4.985437728464603424e-03 -5.545340776443481445e-01 2.684466307982802391e-03 1.264383673667907715e+00 -3.834952076431363821e-04 1.626019626855850220e-01 1.264383673667907715e+00 9.019806981086730957e-01 -9.805971980094909668e-01 -6.250971555709838867e-02 1.294679760932922363e+00 6.174272671341896057e-02 -1.256598758697509766e+01
0.000000000000000000e+00 -5.215534567832946777e-02 5.368932615965604782e-03 7.443642020225524902e-01 4.601942375302314758e-03 -5.549175739288330078e-01 1.533980830572545528e-03 1.263616681098937988e+00 -1.150485593825578690e-03 1.626019626855850220e-01 1.263616681098937988e+00 9.015972018241882324e-01 -9.805971980094909668e-01 -6.212622299790382385e-02 1.294296264648437500e+00 6.212622299790382385e-02 -1.256598758697509766e+01
0.000000000000000000e+00 -5.253884196281433105e-02 4.985437728464603424e-03 7.443642020225524902e-01 4.601942375302314758e-03 -5.553010702133178711e-01 1.917475950904190540e-03 1.264000177383422852e+00 -3.834952076431363821e-04 1.618349701166152954e-01 1.264000177383422852e+00 9.019806981086730957e-01 -9.805971980094909668e-01 -6.212622299790382385e-02 1.294679760932922363e+00 6.174272671341896057e-02 -1.256598758697509766e+01
0.000000000000000000e+00 -5.253884196281433105e-02 4.601942375302314758e-03 7.435972094535827637e-01 5.368932615965604782e-03 -5.549175739288330078e-01 1.150485593825578690e-03 1.263233184814453125e+00 -3.834952076431363821e-04 1.622184664011001587e-01 1.264000177383422852e+00 9.023641943931579590e-01 -9.802137017250061035e-01 -6.212622299790382385e-02 1.294679760932922363e+00 6.212622299790382385e-02 -1.256598758697509766e+01
0.000000000000000000e+00 -5.292233824729919434e-02 4.218447022140026093e-03 7.447476983070373535e-01 5.752427969127893448e-03 -5.541505813598632812e-01 2.300971187651157379e-03 1.264383673667907715e+00 -3.834952076431363821e-04 1.626019626855850220e-01 1.262849688529968262e+00 9.023641943931579590e-01 -9.805971980094909668e-01 -6.135923042893409729e-02 1.294296264648437500e+00 6.174272671341896057e-02 -1.256598758697509766e+01
0.000000000000000000e+00 -5.292233824729919434e-02 4.601942375302314758e-03 7.443642020225524902e-01 5.368932615965604782e-03 -5.553010702133178711e-01 2.300971187651157379e-03 1.263616681098937988e+00 -3.834952076431363821e-04 1.626019626855850220e-01 1.263233184814453125e+00 9.027476906776428223e-01 -9.802137017250061035e-01 -6.250971555709838867e-02 1.294679760932922363e+00 6.174272671341896057e-02 -1.256598758697509766e+01
0.000000000000000000e+00 -5.292233824729919434e-02 5.368932615965604782e-03 7.451311945915222168e-01 5.752427969127893448e-03 -5.545340776443481445e-01 2.300971187651157379e-03 1.264383673667907715e+00 -7.669904152862727642e-04 1.622184664011001587e-01 1.263233184814453125e+00 9.019806981086730957e-01 -9.805971980094909668e-01 -6.212622299790382385e-02 1.294679760932922363e+00 6.212622299790382385e-02 -1.256598758697509766e+01
0.000000000000000000e+00 -5.292233824729919434e-02 4.218447022140026093e-03 7.443642020225524902e-01 5.368932615965604782e-03 -5.541505813598632812e-01 2.300971187651157379e-03 1.264383673667907715e+00 -3.834952076431363821e-04 1.626019626855850220e-01 1.264000177383422852e+00 9.023641943931579590e-01 -9.805971980094909668e-01 -6.135923042893409729e-02 1.294679760932922363e+00 6.174272671341896057e-02 -1.256598758697509766e+01
0.000000000000000000e+00 -5.292233824729919434e-02 4.985437728464603424e-03 7.443642020225524902e-01 5.368932615965604782e-03 -5.553010702133178711e-01 1.917475950904190540e-03 1.264383673667907715e+00 -3.834952076431363821e-04 1.629854589700698853e-01 1.263616681098937988e+00 9.015972018241882324e-01 -9.809806942939758301e-01 -6.212622299790382385e-02 1.294296264648437500e+00 6.135923042893409729e-02 -1.256598758697509766e+01
0.000000000000000000e+00 -5.253884196281433105e-02 4.985437728464603424e-03 7.447476983070373535e-01 5.368932615965604782e-03 -5.549175739288330078e-01 1.917475950904190540e-03 1.264383673667907715e+00 -1.150485593825578690e-03 1.629854589700698853e-01 1.264000177383422852e+00 9.015972018241882324e-01 -9.802137017250061035e-01 -6.250971555709838867e-02 1.294296264648437500e+00 6.250971555709838867e-02 -1.256598758697509766e+01
0.000000000000000000e+00 -5.253884196281433105e-02 4.985437728464603424e-03 7.451311945915222168e-01 5.368932615965604782e-03 -5.549175739288330078e-01 1.533980830572545528e-03 1.264000177383422852e+00 -7.669904152862727642e-04 1.622184664011001587e-01 1.264000177383422852e+00 9.019806981086730957e-01 -9.802137017250061035e-01 -6.250971555709838867e-02 1.295063257217407227e+00 6.174272671341896057e-02 -1.256598758697509766e+01
0.000000000000000000e+00 -5.215534567832946777e-02 4.601942375302314758e-03 7.447476983070373535e-01 5.368932615965604782e-03 -5.553010702133178711e-01 1.917475950904190540e-03 1.263616681098937988e+00 -1.150485593825578690e-03 1.626019626855850220e-01 1.263233184814453125e+00 9.019806981086730957e-01 -9.802137017250061035e-01 -6.212622299790382385e-02 1.294296264648437500e+00 6.174272671341896057e-02 -1.256598758697509766e+01
0.000000000000000000e+00 -5.292233824729919434e-02 4.601942375302314758e-03 7.447476983070373535e-01 4.985437728464603424e-03 -5.553010702133178711e-01 1.917475950904190540e-03 1.263616681098937988e+00 -1.533980830572545528e-03 1.626019626855850220e-01 1.264383673667907715e+00 9.015972018241882324e-01 -9.805971980094909668e-01 -6.250971555709838867e-02 1.294679760932922363e+00 6.174272671341896057e-02 -1.256598758697509766e+01
0.000000000000000000e+00 -5.292233824729919434e-02 4.601942375302314758e-03 7.447476983070373535e-01 5.368932615965604782e-03 -5.549175739288330078e-01 1.917475950904190540e-03 1.264000177383422852e+00 -3.834952076431363821e-04 1.629854589700698853e-01 1.264000177383422852e+00 9.015972018241882324e-01 -9.809806942939758301e-01 -6.212622299790382385e-02 1.295063257217407227e+00 6.174272671341896057e-02 -1.256598758697509766e+01
0.000000000000000000e+00 -5.253884196281433105e-02 4.601942375302314758e-03 7.435972094535827637e-01 4.985437728464603424e-03 -5.549175739288330078e-01 1.533980830572545528e-03 1.264383673667907715e+00 -1.150485593825578690e-03 1.618349701166152954e-01 1.263616681098937988e+00 9.015972018241882324e-01 -9.805971980094909668e-01 -6.212622299790382385e-02 1.295063257217407227e+00 6.212622299790382385e-02 -1.256598758697509766e+01
0.000000000000000000e+00 -5.253884196281433105e-02 4.601942375302314758e-03 7.447476983070373535e-01 5.752427969127893448e-03 -5.553010702133178711e-01 2.300971187651157379e-03 1.264000177383422852e+00 -1.150485593825578690e-03 1.633689552545547485e-01 1.264383673667907715e+00 9.019806981086730957e-01 -9.805971980094909668e-01 -6.212622299790382385e-02 1.295063257217407227e+00 6.174272671341896057e-02 -1.256598758697509766e+01
0.000000000000000000e+00 -5.215534567832946777e-02 4.601942375302314758e-03 7.443642020225524902e-01 5.368932615965604782e-03 -5.549175739288330078e-01 1.917475950904190540e-03 1.263616681098937988e+00 -7.669904152862727642e-04 1.626019626855850220e-01 1.263616681098937988e+00 9.019806981086730957e-01 -9.805971980094909668e-01 -6.135923042893409729e-02 1.294679760932922363e+00 6.250971555709838867e-02 -1.256598758697509766e+01
0.000000000000000000e+00 -5.253884196281433105e-02 4.985437728464603424e-03 7.447476983070373535e-01 5.368932615965604782e-03 -5.549175739288330078e-01 1.533980830572545528e-03 1.264000177383422852e+00 -7.669904152862727642e-04 1.629854589700698853e-01 1.264383673667907715e+00 9.019806981086730957e-01 -9.809806942939758301e-01 -6.174272671341896057e-02 1.295446753501892090e+00 6.250971555709838867e-02 -1.256598758697509766e+01
0.000000000000000000e+00 -5.292233824729919434e-02 4.601942375302314758e-03 7.443642020225524902e-01 5.752427969127893448e-03 -5.549175739288330078e-01 1.917475950904190540e-03 1.264383673667907715e+00 -3.834952076431363821e-04 1.629854589700698853e-01 1.262849688529968262e+00 9.023641943931579590e-01 -9.805971980094909668e-01 -6.212622299790382385e-02 1.294679760932922363e+00 6.174272671341896057e-02 -1.256598758697509766e+01
0.000000000000000000e+00 -5.253884196281433105e-02 4.985437728464603424e-03 7.435972094535827637e-01 5.752427969127893448e-03 -5.556845664978027344e-01 1.917475950904190540e-03 1.264000177383422852e+00 -7.669904152862727642e-04 1.626019626855850220e-01 1.264000177383422852e+00 9.023641943931579590e-01 -9.805971980094909668e-01 -6.212622299790382385e-02 1.295446753501892090e+00 6.174272671341896057e-02 -1.256598758697509766e+01
0.000000000000000000e+00 -5.253884196281433105e-02 4.601942375302314758e-03 7.443642020225524902e-01 5.752427969127893448e-03 -5.549175739288330078e-01 1.533980830572545528e-03 1.264000177383422852e+00 -1.150485593825578690e-03 1.629854589700698853e-01 1.264383673667907715e+00 9.012137055397033691e-01 -9.802137017250061035e-01 -6.174272671341896057e-02 1.294679760932922363e+00 6.212622299790382385e-02 -1.256598758697509766e+01
0.000000000000000000e+00 -5.253884196281433105e-02 4.601942375302314758e-03 7.447476983070373535e-01 5.752427969127893448e-03 -5.549175739288330078e-01 1.917475950904190540e-03 1.264383673667907715e+00 -3.834952076431363821e-04 1.629854589700698853e-01 1.264000177383422852e+00 9.019806981086730957e-01 -9.802137017250061035e-01 -6.250971555709838867e-02 1.294679760932922363e+00 6.174272671341896057e-02 -1.256598758697509766e+01
0.000000000000000000e+00 -5.215534567832946777e-02 4.985437728464603424e-03 7.443642020225524902e-01 5.752427969127893448e-03 -5.549175739288330078e-01 2.300971187651157379e-03 1.264383673667907715e+00 -7.669904152862727642e-04 1.618349701166152954e-01 1.264000177383422852e+00 9.023641943931579590e-01 -9.802137017250061035e-01 -6.250971555709838867e-02 1.293912768363952637e+00 6.174272671341896057e-02 -1.256598758697509766e+01
0.000000000000000000e+00 -5.292233824729919434e-02 4.985437728464603424e-03 7.443642020225524902e-01 5.752427969127893448e-03 -5.549175739288330078e-01 2.300971187651157379e-03 1.264383673667907715e+00 -3.834952076431363821e-04 1.629854589700698853e-01 1.264383673667907715e+00 9.012137055397033691e-01 -9.805971980094909668e-01 -6.212622299790382385e-02 1.294679760932922363e+00 6.135923042893409729e-02 -1.256598758697509766e+01
0.000000000000000000e+00 -5.253884196281433105e-02 4.218447022140026093e-03 7.447476983070373535e-01 5.368932615965604782e-03 -5.545340776443481445e-01 1.917475950904190540e-03 1.264000177383422852e+00 -3.834952076431363821e-04 1.629854589700698853e-01 1.263616681098937988e+00 9.015972018241882324e-01 -9.802137017250061035e-01 -6.212622299790382385e-02 1.295063257217407227e+00 6.250971555709838867e-02 -1.256598758697509766e+01
0.000000000000000000e+00 -5.292233824729919434e-02 4.601942375302314758e-03 7.447476983070373535e-01 5.368932615965604782e-03 -5.549175739288330078e-01 2.300971187651157379e-03 1.264000177383422852e+00 -1.150485593825578690e-03 1.622184664011001587e-01 1.264383673667907715e+00 9.027476906776428223e-01 -9.798302054405212402e-01 -6.212622299790382385e-02 1.294296264648437500e+00 6.174272671341896057e-02 -1.256598758697509766e+01
0.000000000000000000e+00 -5.253884196281433105e-02 4.218447022140026093e-03 7.443642020225524902e-01 5.368932615965604782e-03 -5.545340776443481445e-01 1.533980830572545528e-03 1.264000177383422852e+00 -1.150485593825578690e-03 1.633689552545547485e-01 1.263616681098937988e+00 9.019806981086730957e-01 -9.802137017250061035e-01 -6.250971555709838867e-02 1.295063257217407227e+00 6.174272671341896057e-02 -1.256598758697509766e+01
0.000000000000000000e+00 -5.292233824729919434e-02 4.218447022140026093e-03 7.447476983070373535e-01 5.368932615965604782e-03 -5.553010702133178711e-01 1.917475950904190540e-03 1.264767169952392578e+00 0.000000000000000000e+00 1.629854589700698853e-01 1.263616681098937988e+00 9.019806981086730957e-01 -9.809806942939758301e-01 -6.174272671341896057e-02 1.294679760932922363e+00 6.250971555709838867e-02 -1.256598758697509766e+01
0.000000000000000000e+00 -5.292233824729919434e-02 4.985437728464603424e-03 7.451311945915222168e-01 4.601942375302314758e-03 -5.545340776443481445e-01 1.533980830572545528e-03 1.264383673667907715e+00 -3.834952076431363821e-04 1.633689552545547485e-01 1.263233184814453125e+00 9.023641943931579590e-01 -9.805971980094909668e-01 -6.212622299790382385e-02 1.294679760932922363e+00 6.212622299790382385e-02 -1.256598758697509766e+01
0.000000000000000000e+00 -5.215534567832946777e-02 4.985437728464603424e-03 7.447476983070373535e-01 5.752427969127893448e-03 -5.553010702133178711e-01 1.917475950904190540e-03 1.264000177383422852e+00 -7.669904152862727642e-04 1.622184664011001587e-01 1.264000177383422852e+00 9.023641943931579590e-01 -9.805971980094909668e-01 -6.212622299790382385e-02 1.294296264648437500e+00 6.250971555709838867e-02 -1.256598758697509766e+01
0.000000000000000000e+00 -5.253884196281433105e-02 4.218447022140026093e-03 7.443642020225524902e-01 5.752427969127893448e-03 -5.553010702133178711e-01 2.300971187651157379e-03 1.264000177383422852e+00 -7.669904152862727642e-04 1.622184664011001587e-01 1.263616681098937988e+00 9.019806981086730957e-01 -9.805971980094909668e-01 -6.250971555709838867e-02 1.294679760932922363e+00 6.212622299790382385e-02 -1.256598758697509766e+01
0.000000000000000000e+00 -5.292233824729919434e-02 4.601942375302314758e-03 7.451311945915222168e-01 4.985437728464603424e-03 -5.549175739288330078e-01 2.300971187651157379e-03 1.264000177383422852e+00 -1.150485593825578690e-03 1.626019626855850220e-01 1.264000177383422852e+00 9.027476906776428223e-01 -9.813641905784606934e-01 -6.212622299790382385e-02 1.293529272079467773e+00 6.174272671341896057e-02 -1.256598758697509766e+01
0.000000000000000000e+00 -5.292233824729919434e-02 4.601942375302314758e-03 7.443642020225524902e-01 5.752427969127893448e-03 -5.556845664978027344e-01 1.917475950904190540e-03 1.264767169952392578e+00 7.669904152862727642e-04 1.618349701166152954e-01 1.263616681098937988e+00 9.019806981086730957e-01 -9.802137017250061035e-01 -6.250971555709838867e-02 1.295063257217407227e+00 6.135923042893409729e-02 -1.256598758697509766e+01
0.000000000000000000e+00 -5.253884196281433105e-02 4.218447022140026093e-03 7.447476983070373535e-01 4.985437728464603424e-03 -5.545340776443481445e-01 2.300971187651157379e-03 1.264000177383422852e+00 -7.669904152862727642e-04 1.622184664011001587e-01 1.264000177383422852e+00 9.019806981086730957e-01 -9.802137017250061035e-01 -6.212622299790382385e-02 1.294679760932922363e+00 6.174272671341896057e-02 -1.256598758697509766e+01
0.000000000000000000e+00 -5.330583080649375916e-02 4.985437728464603424e-03 7.443642020225524902e-01 5.368932615965604782e-03 -5.545340776443481445e-01 1.533980830572545528e-03 1.264000177383422852e+00 -1.150485593825578690e-03 1.626019626855850220e-01 1.263616681098937988e+00 9.015972018241882324e-01 -9.809806942939758301e-01 -6.174272671341896057e-02 1.294296264648437500e+00 6.212622299790382385e-02 -1.256598758697509766e+01
0.000000000000000000e+00 -5.253884196281433105e-02 4.985437728464603424e-03 7.443642020225524902e-01 4.985437728464603424e-03 -5.545340776443481445e-01 1.917475950904190540e-03 1.263616681098937988e+00 0.000000000000000000e+00 1.629854589700698853e-01 1.264000177383422852e+00 9.023641943931579590e-01 -9.798302054405212402e-01 -6.212622299790382385e-02 1.294679760932922363e+00 6.212622299790382385e-02 -1.256598758697509766e+01
0.000000000000000000e+00 -5.253884196281433105e-02 4.218447022140026093e-03 7.447476983070373535e-01 5.368932615965604782e-03 -5.549175739288330078e-01 2.300971187651157379e-03 1.264767169952392578e+00 -3.834952076431363821e-04 1.633689552545547485e-01 1.264000177383422852e+00 9.019806981086730957e-01 -9.802137017250061035e-01 -6.250971555709838867e-02 1.294296264648437500e+00 6.135923042893409729e-02 -1.256598758697509766e+01
0.000000000000000000e+00 -5.330583080649375916e-02 4.985437728464603424e-03 7.443642020225524902e-01 5.368932615965604782e-03 -5.545340776443481445e-01 2.300971187651157379e-03 1.264000177383422852e+00 -3.834952076431363821e-04 1.629854589700698853e-01 1.263616681098937988e+00 9.008302092552185059e-01 -9.805971980094909668e-01 -6.212622299790382385e-02 1.294679760932922363e+00 6.212622299790382385e-02 -1.256598758697509766e+01
0.000000000000000000e+00 -5.253884196281433105e-02 4.601942375302314758e-03 7.435972094535827637e-01 4.985437728464603424e-03 -5.549175739288330078e-01 2.300971187651157379e-03 1.264000177383422852e+00 0.000000000000000000e+00 1.626019626855850220e-01 1.264767169952392578e+00 9.015972018241882324e-01 -9.805971980094909668e-01 -6.174272671341896057e-02 1.294679760932922363e+00 6.174272671341896057e-02 -1.256598758697509766e+01
0.000000000000000000e+00 -5.253884196281433105e-02 4.601942375302314758e-03 7.443642020225524902e-01 5.368932615965604782e-03 -5.553010702133178711e-01 2.300971187651157379e-03 1.263616681098937988e+00 -1.150485593825578690e-03 1.622184664011001587e-01 1.264767169952392578e+00 9.019806981086730957e-01 -9.802137017250061035e-01 -6.174272671341896057e-02 1.293912768363952637e+00 6.174272671341896057e-02 -1.256598758697509766e+01
0.000000000000000000e+00 -5.253884196281433105e-02 4.985437728464603424e-03 7.447476983070373535e-01 5.368932615965604782e-03 -5.549175739288330078e-01 1.917475950904190540e-03 1.264383673667907715e+00 -7.669904152862727642e-04 1.629854589700698853e-01 1.264000177383422852e+00 9.015972018241882324e-01 -9.802137017250061035e-01 -6.212622299790382385e-02 1.294296264648437500e+00 6.212622299790382385e-02 -1.256598758697509766e+01
0.000000000000000000e+00 -5.253884196281433105e-02 4.601942375302314758e-03 7.447476983070373535e-01 5.368932615965604782e-03 -5.553010702133178711e-01 2.684466307982802391e-03 1.264383673667907715e+00 -3.834952076431363821e-04 1.622184664011001587e-01 1.264767169952392578e+00 9.019806981086730957e-01 -9.802137017250061035e-01 -6.135923042893409729e-02 1.294296264648437500e+00 6.135923042893409729e-02 -1.256598758697509766e+01
0.000000000000000000e+00 -5.292233824729919434e-02 4.985437728464603424e-03 7.447476983070373535e-01 5.368932615965604782e-03 -5.549175739288330078e-01 1.533980830572545528e-03 1.264383673667907715e+00 -1.150485593825578690e-03 1.629854589700698853e-01 1.264383673667907715e+00 9.015972018241882324e-01 -9.802137017250061035e-01 -6.250971555709838867e-02 1.294296264648437500e+00 6.212622299790382385e-02 -1.256598758697509766e+01
0.000000000000000000e+00 -5.292233824729919434e-02 5.368932615965604782e-03 7.435972094535827637e-01 5.368932615965604782e-03 -5.549175739288330078e-01 1.917475950904190540e-03 1.264767169952392578e+00 0.000000000000000000e+00 1.629854589700698853e-01 1.264000177383422852e+00 9.019806981086730957e-01 -9.805971980094909668e-01 -6.289321184158325195e-02 1.295063257217407227e+00 6.212622299790382385e-02 -1.256598758697509766e+01
0.000000000000000000e+00 -5.292233824729919434e-02 4.985437728464603424e-03 7.443642020225524902e-01 5.368932615965604782e-03 -5.553010702133178711e-01 1.917475950904190540e-03 1.263616681098937988e+00 -7.669904152862727642e-04 1.622184664011001587e-01 1.264000177383422852e+00 9.015972018241882324e-01 -9.802137017250061035e-01 -6.366020441055297852e-02 1.294296264648437500e+00 6.289321184158325195e-02 -1.256598758697509766e+01
0.000000000000000000e+00 -5.330583080649375916e-02 4.601942375302314758e-03 7.435972094535827637e-01 4.985437728464603424e-03 -5.553010702133178711e-01 2.300971187651157379e-03 1.264000177383422852e+00 -7.669904152862727642e-04 1.629854589700698853e-01 1.264000177383422852e+00 9.023641943931579590e-01 -9.802137017250061035e-01 -6.174272671341896057e-02 1.294679760932922363e+00 6.212622299790382385e-02 -1.256598758697509766e+01
0.000000000000000000e+00 -5.292233824729919434e-02 4.985437728464603424e-03 7.443642020225524902e-01 4.985437728464603424e-03 -5.553010702133178711e-01 1.917475950904190540e-03 1.264383673667907715e+00 -3.834952076431363821e-04 1.622184664011001587e-01 1.264383673667907715e+00 9.023641943931579590e-01 -9.805971980094909668e-01 -6.212622299790382385e-02 1.294296264648437500e+00 6.212622299790382385e-02 -1.256598758697509766e+01
0.000000000000000000e+00 -5.253884196281433105e-02 4.601942375302314758e-03 7.443642020225524902e-01 4.601942375302314758e-03 -5.549175739288330078e-01 1.917475950904190540e-03 1.264383673667907715e+00 -7.669904152862727642e-04 1.633689552545547485e-01 1.263616681098937988e+00 9.019806981086730957e-01 -9.809806942939758301e-01 -6.250971555709838867e-02 1.294679760932922363e+00 6.212622299790382385e-02 -1.256598758697509766e+01
0.000000000000000000e+00 -5.292233824729919434e-02 4.601942375302314758e-03 7.432137131690979004e-01 5.752427969127893448e-03 -5.553010702133178711e-01 2.300971187651157379e-03 1.263616681098937988e+00 -7.669904152862727642e-04 1.622184664011001587e-01 1.263616681098937988e+00 9.015972018241882324e-01 -9.805971980094909668e-01 -6.174272671341896057e-02 1.294296264648437500e+00 6.174272671341896057e-02 -1.256598758697509766e+01
0.000000000000000000e+00 -5.253884196281433105e-02 4.985437728464603424e-03 7.447476983070373535e-01 5.752427969127893448e-03 -5.545340776443481445e-01 2.300971187651157379e-03 1.264000177383422852e+00 -1.150485593825578690e-03 1.629854589700698853e-01 1.263233184814453125e+00 9.019806981086730957e-01 -9.809806942939758301e-01 -6.250971555709838867e-02 1.295063257217407227e+00 6.135923042893409729e-02 -1.256598758697509766e+01
0.000000000000000000e+00 -5.253884196281433105e-02 4.985437728464603424e-03 7.432137131690979004e-01 5.752427969127893448e-03 -5.541505813598632812e-01 2.300971187651157379e-03 1.263616681098937988e+00 -1.533980830572545528e-03 1.626019626855850220e-01 1.264383673667907715e+00 9.023641943931579590e-01 -9.809806942939758301e-01 -6.250971555709838867e-02 1.294296264648437500e+00 6.212622299790382385e-02 -1.256598758697509766e+01
0.000000000000000000e+00 -5.215534567832946777e-02 4.601942375302314758e-03 7.447476983070373535e-01 5.752427969127893448e-03 -5.549175739288330078e-01 2.300971187651157379e-03 1.263616681098937988e+00 -7.669904152862727642e-04 1.626019626855850220e-01 1.263616681098937988e+00 9.027476906776428223e-01 -9.809806942939758301e-01 -6.212622299790382385e-02 1.295063257217407227e+00 6.174272671341896057e-02 -1.256598758697509766e+01
0.000000000000000000e+00 -5.253884196281433105e-02 4.985437728464603424e-03 7.443642020225524902e-01 5.368932615965604782e-03 -5.553010702133178711e-01 1.917475950904190540e-03 1.264383673667907715e+00 -1.150485593825578690e-03 1.626019626855850220e-01 1.263616681098937988e+00 9.015972018241882324e-01 -9.802137017250061035e-01 -6.212622299790382385e-02 1.294296264648437500e+00 6.174272671341896057e-02 -1.256598758697509766e+01
0.000000000000000000e+00 -5.253884196281433105e-02 4.601942375302314758e-03 7.447476983070373535e-01 4.985437728464603424e-03 -5.553010702133178711e-01 2.300971187651157379e-03 1.264000177383422852e+00 0.000000000000000000e+00 1.626019626855850220e-01 1.264000177383422852e+00 9.023641943931579590e-01 -9.809806942939758301e-01 -6.135923042893409729e-02 1.294679760932922363e+00 6.174272671341896057e-02 -1.256598758697509766e+01
0.000000000000000000e+00 -5.292233824729919434e-02 4.985437728464603424e-03 7.435972094535827637e-01 4.218447022140026093e-03 -5.549175739288330078e-01 1.917475950904190540e-03 1.264383673667907715e+00 7.669904152862727642e-04 1.626019626855850220e-01 1.264000177383422852e+00 9.019806981086730957e-01 -9.802137017250061035e-01 -6.212622299790382385e-02 1.294296264648437500e+00 6.212622299790382385e-02 -1.256598758697509766e+01
0.000000000000000000e+00 -5.292233824729919434e-02 4.601942375302314758e-03 7.455146908760070801e-01 5.368932615965604782e-03 -5.549175739288330078e-01 2.300971187651157379e-03 1.263616681098937988e+00 -7.669904152862727642e-04 1.626019626855850220e-01 1.264383673667907715e+00 9.015972018241882324e-01 -9.809806942939758301e-01 -6.250971555709838867e-02 1.294679760932922363e+00 6.174272671341896057e-02 -1.256598758697509766e+01
0.000000000000000000e+00 -5.292233824729919434e-02 4.218447022140026093e-03 7.455146908760070801e-01 4.985437728464603424e-03 -5.545340776443481445e-01 2.300971187651157379e-03 1.264000177383422852e+00 -1.533980830572545528e-03 1.629854589700698853e-01 1.263616681098937988e+00 9.012137055397033691e-01 -9.805971980094909668e-01 -6.212622299790382385e-02 1.294296264648437500e+00 6.250971555709838867e-02 -1.256598758697509766e+01
0.000000000000000000e+00 -5.292233824729919434e-02 4.985437728464603424e-03 7.447476983070373535e-01 4.985437728464603424e-03 -5.553010702133178711e-01 1.533980830572545528e-03 1.263616681098937988e+00 -3.834952076431363821e-04 1.629854589700698853e-01 1.265150666236877441e+00 9.023641943931579590e-01 -9.802137017250061035e-01 -6.174272671341896057e-02 1.294296264648437500e+00 6.174272671341896057e-02 -1.256598758697509766e+01
0.000000000000000000e+00 -5.292233824729919434e-02 4.218447022140026093e-03 7.443642020225524902e-01 5.752427969127893448e-03 -5.549175739288330078e-01 2.684466307982802391e-03 1.264000177383422852e+00 -7.669904152862727642e-04 1.622184664011001587e-01 1.263233184814453125e+00 9.027476906776428223e-01 -9.805971980094909668e-01 -6.174272671341896057e-02 1.293912768363952637e+00 6.212622299790382385e-02 -1.256598758697509766e+01
0.000000000000000000e+00 -5.292233824729919434e-02 4.601942375302314758e-03 7.435972094535827637e-01 5.368932615965604782e-03 -5.549175739288330078e-01 2.300971187651157379e-03 1.264000177383422852e+00 -3.834952076431363821e-04 1.626019626855850220e-01 1.264767169952392578e+00 9.023641943931579590e-01 -9.805971980094909668e-01 -6.174272671341896057e-02 1.294296264648437500e+00 6.135923042893409729e-02 -1.256598758697509766e+01
0.000000000000000000e+00 -5.292233824729919434e-02 4.985437728464603424e-03 7.447476983070373535e-01 4.985437728464603424e-03 -5.549175739288330078e-01 1.917475950904190540e-03 1.263616681098937988e+00 -7.669904152862727642e-04 1.618349701166152954e-01 1.264000177383422852e+00 9.023641943931579590e-01 -9.805971980094909668e-01 -6.250971555709838867e-02 1.294679760932922363e+00 6.212622299790382385e-02 -1.256598758697509766e+01
0.000000000000000000e+00 -5.292233824729919434e-02 4.985437728464603424e-03 7.447476983070373535e-01 5.752427969127893448e-03 -5.556845664978027344e-01 1.917475950904190540e-03 1.264000177383422852e+00 -7.669904152862727642e-04 1.626019626855850220e-01 1.264000177383422852e+00 9.015972018241882324e-01 -9.802137017250061035e-01 -6.212622299790382385e-02 1.294679760932922363e+00 6.174272671341896057e-02 -1.256598758697509766e+01
0.000000000000000000e+00 -5.253884196281433105e-02 4.985437728464603424e-03 7.447476983070373535e-01 5.368932615965604782e-03 -5.549175739288330078e-01 1.533980830572545528e-03 1.264000177383422852e+00 -3.834952076431363821e-04 1.622184664011001587e-01 1.264383673667907715e+00 9.019806981086730957e-01 -9.802137017250061035e-01 -6.366020441055297852e-02 1.294296264648437500e+00 6.250971555709838867e-02 -1.256598758697509766e+01
0.000000000000000000e+00 -5.253884196281433105e-02 4.218447022140026093e-03 7.443642020225524902e-01 5.368932615965604782e-03 -5.545340776443481445e-01 2.300971187651157379e-03 1.263616681098937988e+00 -3.834952076431363821e-04 1.626019626855850220e-01 1.264767169952392578e+00 9.027476906776428223e-01 -9.805971980094909668e-01 -6.212622299790382385e-02 1.294296264648437500e+00 6.174272671341896057e-02 -1.256598758697509766e+01
0.000000000000000000e+00 -5.253884196281433105e-02 4.601942375302314758e-03 7.447476983070373535e-01 4.985437728464603424e-03 -5.541505813598632812e-01 1.917475950904190540e-03 1.264000177383422852e+00 -3.834952076431363821e-04 1.626019626855850220e-01 1.263616681098937988e+00 9.019806981086730957e-01 -9.802137017250061035e-01 -6.250971555709838867e-02 1.294679760932922363e+00 6.289321184158325195e-02 -1.256598758697509766e+01
0.000000000000000000e+00 -5.253884196281433105e-02 4.601942375302314758e-03 7.447476983070373535e-01 5.752427969127893448e-03 -5.549175739288330078e-01 1.917475950904190540e-03 1.263616681098937988e+00 -7.669904152862727642e-04 1.626019626855850220e-01 1.263616681098937988e+00 9.023641943931579590e-01 -9.805971980094909668e-01 -6.212622299790382385e-02 1.293912768363952637e+00 6.250971555709838867e-02 -1.256598758697509766e+01
0.000000000000000000e+00 -5.292233824729919434e-02 4.985437728464603424e-03 7.435972094535827637e-01 4.985437728464603424e-03 -5.549175739288330078e-01 1.917475950904190540e-03 1.263616681098937988e+00 -7.669904152862727642e-04 1.629854589700698853e-01 1.264767169952392578e+00 9.015972018241882324e-01 -9.802137017250061035e-01 -6.212622299790382385e-02 1.294296264648437500e+00 6.250971555709838867e-02 -1.256598758697509766e+01
0.000000000000000000e+00 -5.253884196281433105e-02 4.601942375302314758e-03 7.447476983070373535e-01 5.368932615965604782e-03 -5.553010702133178711e-01 2.300971187651157379e-03 1.264383673667907715e+00 -7.669904152862727642e-04 1.633689552545547485e-01 1.264767169952392578e+00 9.019806981086730957e-01 -9.802137017250061035e-01 -6.174272671341896057e-02 1.295063257217407227e+00 6.174272671341896057e-02 -1.256598758697509766e+01
0.000000000000000000e+00 -5.253884196281433105e-02 4.601942375302314758e-03 7.443642020225524902e-01 5.368932615965604782e-03 -5.549175739288330078e-01 1.533980830572545528e-03 1.263616681098937988e+00 -7.669904152862727642e-04 1.629854589700698853e-01 1.264383673667907715e+00 9.019806981086730957e-01 -9.802137017250061035e-01 -6.212622299790382385e-02 1.293912768363952637e+00 6.174272671341896057e-02 -1.256598758697509766e+01
0.000000000000000000e+00 -5.292233824729919434e-02 4.601942375302314758e-03 7.451311945915222168e-01 4.985437728464603424e-03 -5.553010702133178711e-01 2.300971187651157379e-03 1.264000177383422852e+00 -3.834952076431363821e-04 1.629854589700698853e-01 1.264383673667907715e+00 9.019806981086730957e-01 -9.805971980094909668e-01 -6.250971555709838867e-02 1.294679760932922363e+00 6.212622299790382385e-02 -1.256598758697509766e+01
0.000000000000000000e+00 -5.253884196281433105e-02 4.985437728464603424e-03 7.443642020225524902e-01 5.368932615965604782e-03 -5.556845664978027344e-01 1.917475950904190540e-03 1.264000177383422852e+00 -3.834952076431363821e-04 1.629854589700698853e-01 1.264383673667907715e+00 9.015972018241882324e-01 -9.805971980094909668e-01 -6.174272671341896057e-02 1.293912768363952637e+00 6.250971555709838867e-02 -1.256598758697509766e+01
0.000000000000000000e+00 -5.292233824729919434e-02 4.601942375302314758e-03 7.443642020225524902e-01 4.985437728464603424e-03 -5.549175739288330078e-01 2.300971187651157379e-03 1.263616681098937988e+00 -7.669904152862727642e-04 1.626019626855850220e-01 1.264000177383422852e+00 9.023641943931579590e-01 -9.802137017250061035e-01 -6.212622299790382385e-02 1.294296264648437500e+00 6.212622299790382385e-02 -1.256598758697509766e+01
0.000000000000000000e+00 -5.215534567832946777e-02 5.368932615965604782e-03 7.443642020225524902e-01 5.368932615965604782e-03 -5.549175739288330078e-01 1.917475950904190540e-03 1.264383673667907715e+00 -7.669904152862727642e-04 1.622184664011001587e-01 1.265150666236877441e+00 9.023641943931579590e-01 -9.809806942939758301e-01 -6.135923042893409729e-02 1.295063257217407227e+00 6.250971555709838867e-02 -1.256598758697509766e+01
0.000000000000000000e+00 -5.253884196281433105e-02 4.601942375302314758e-03 7.447476983070373535e-01 4.985437728464603424e-03 -5.541505813598632812e-01 1.917475950904190540e-03 1.264000177383422852e+00 -1.150485593825578690e-03 1.629854589700698853e-01 1.263616681098937988e+00 9.023641943931579590e-01 -9.802137017250061035e-01 -6.174272671341896057e-02 1.294679760932922363e+00 6.174272671341896057e-02 -1.256598758697509766e+01
0.000000000000000000e+00 -5.253884196281433105e-02 4.601942375302314758e-03 7.435972094535827637e-01 5.368932615965604782e-03 -5.553010702133178711e-01 1.917475950904190540e-03 1.264000177383422852e+00 -7.669904152862727642e-04 1.629854589700698853e-01 1.264383673667907715e+00 9.019806981086730957e-01 -9.805971980094909668e-01 -6.212622299790382385e-02 1.294679760932922363e+00 6.212622299790382385e-02 -1.256598758697509766e+01
0.000000000000000000e+00 -5.292233824729919434e-02 4.601942375302314758e-03 7.443642020225524902e-01 5.368932615965604782e-03 -5.545340776443481445e-01 2.684466307982802391e-03 1.264383673667907715e+00 -1.150485593825578690e-03 1.626019626855850220e-01 1.264000177383422852e+00 9.023641943931579590e-01 -9.802137017250061035e-01 -6.212622299790382385e-02 1.294679760932922363e+00 6.174272671341896057e-02 -1.256598758697509766e+01
0.000000000000000000e+00 -5.253884196281433105e-02 4.601942375302314758e-03 7.443642020225524902e-01 5.368932615965604782e-03 -5.553010702133178711e-01 1.917475950904190540e-03 1.264000177383422852e+00 -1.150485593825578690e-03 1.626019626855850220e-01 1.264767169952392578e+00 9.023641943931579590e-01 -9.809806942939758301e-01 -6.212622299790382385e-02 1.294679760932922363e+00 6.212622299790382385e-02 -1.256598758697509766e+01
0.000000000000000000e+00 -5.292233824729919434e-02 4.985437728464603424e-03 7.443642020225524902e-01 5.368932615965604782e-03 -5.553010702133178711e-01 1.917475950904190540e-03 1.264383673667907715e+00 -7.669904152862727642e-04 1.622184664011001587e-01 1.265150666236877441e+00 9.015972018241882324e-01 -9.805971980094909668e-01 -6.289321184158325195e-02 1.295446753501892090e+00 6.174272671341896057e-02 -1.256598758697509766e+01
0.000000000000000000e+00 -5.292233824729919434e-02 4.218447022140026093e-03 7.443642020225524902e-01 4.985437728464603424e-03 -5.545340776443481445e-01 1.917475950904190540e-03 1.263616681098937988e+00 -1.150485593825578690e-03 1.626019626855850220e-01 1.264767169952392578e+00 9.012137055397033691e-01 -9.809806942939758301e-01 -6.174272671341896057e-02 1.294679760932922363e+00 6.212622299790382385e-02 -1.256598758697509766e+01
0.000000000000000000e+00 -5.292233824729919434e-02 4.985437728464603424e-03 7.447476983070373535e-01 5.368932615965604782e-03 -5.545340776443481445e-01 2.300971187651157379e-03 1.264383673667907715e+00 -1.150485593825578690e-03 1.626019626855850220e-01 1.264383673667907715e+00 9.023641943931579590e-01 -9.805971980094909668e-01 -6.212622299790382385e-02 1.295063257217407227e+00 6.174272671341896057e-02 -1.256598758697509766e+01
0.000000000000000000e+00 -5.253884196281433105e-02 4.601942375302314758e-03 7.447476983070373535e-01 5.368932615965604782e-03 -5.549175739288330078e-01 1.533980830572545528e-03 1.264000177383422852e+00 -1.150485593825578690e-03 1.626019626855850220e-01 1.263616681098937988e+00 9.023641943931579590e-01 -9.809806942939758301e-01 -6.174272671341896057e-02 1.295446753501892090e+00 6.212622299790382385e-02 -1.256598758697509766e+01
0.000000000000000000e+00 -5.253884196281433105e-02 4.601942375302314758e-03 7.443642020225524902e-01 5.368932615965604782e-03 -5.549175739288330078e-01 1.533980830572545528e-03 1.263233184814453125e+00 -3.834952076431363821e-04 1.622184664011001587e-01 1.264383673667907715e+00 9.023641943931579590e-01 -9.809806942939758301e-01 -6.212622299790382385e-02 1.294679760932922363e+00 6.174272671341896057e-02 -1.256598758697509766e+01
0.000000000000000000e+00 -5.253884196281433105e-02 4.985437728464603424e-03 7.443642020225524902e-01 5.368932615965604782e-03 -5.541505813598632812e-01 2.300971187651157379e-03 1.264000177383422852e+00 -3.834952076431363821e-04 1.626019626855850220e-01 1.265150666236877441e+00 9.023641943931579590e-01 -9.805971980094909668e-01 -6.212622299790382385e-02 1.295063257217407227e+00 6.174272671341896057e-02 -1.256598758697509766e+01
0.000000000000000000e+00 -5.292233824729919434e-02 4.985437728464603424e-03 7.447476983070373535e-01 5.368932615965604782e-03 -5.545340776443481445e-01 1.917475950904190540e-03 1.264383673667907715e+00 -7.669904152862727642e-04 1.629854589700698853e-01 1.264383673667907715e+00 9.019806981086730957e-01 -9.809806942939758301e-01 -6.212622299790382385e-02 1.294679760932922363e+00 6.212622299790382385e-02 -1.256598758697509766e+01
0.000000000000000000e+00 -5.292233824729919434e-02 4.601942375302314758e-03 7.447476983070373535e-01 5.368932615965604782e-03 -5.541505813598632812e-01 1.533980830572545528e-03 1.264000177383422852e+00 -1.150485593825578690e-03 1.629854589700698853e-01 1.264000177383422852e+00 9.023641943931579590e-01 -9.802137017250061035e-01 -6.212622299790382385e-02 1.294679760932922363e+00 6.135923042893409729e-02 -1.256598758697509766e+01
0.000000000000000000e+00 -5.253884196281433105e-02 4.985437728464603424e-03 7.435972094535827637e-01 5.752427969127893448e-03 -5.545340776443481445e-01 2.300971187651157379e-03 1.264000177383422852e+00 -3.834952076431363821e-04 1.626019626855850220e-01 1.264000177383422852e+00 9.015972018241882324e-01 -9.802137017250061035e-01 -6.250971555709838867e-02 1.294679760932922363e+00 6.174272671341896057e-02 -1.256598758697509766e+01
0.000000000000000000e+00 -5.253884196281433105e-02 4.601942375302314758e-03 7.443642020225524902e-01 5.368932615965604782e-03 -5.549175739288330078e-01 2.300971187651157379e-03 1.264000177383422852e+00 -7.669904152862727642e-04 1.629854589700698853e-01 1.264383673667907715e+00 9.019806981086730957e-01 -9.805971980094909668e-01 -6.212622299790382385e-02 1.294679760932922363e+00 6.212622299790382385e-02 -1.256598758697509766e+01
0.000000000000000000e+00 -5.253884196281433105e-02 5.368932615965604782e-03 7.447476983070373535e-01 5.368932615965604782e-03 -5.541505813598632812e-01 1.917475950904190540e-03 1.264000177383422852e+00 -3.834952076431363821e-04 1.626019626855850220e-01 1.264000177383422852e+00 9.019806981086730957e-01 -9.802137017250061035e-01 -6.174272671341896057e-02 1.295446753501892090e+00 6.250971555709838867e-02 -1.256598758697509766e+01
0.000000000000000000e+00 -5.253884196281433105e-02 4.601942375302314758e-03 7.447476983070373535e-01 5.368932615965604782e-03 -5.553010702133178711e-01 1.917475950904190540e-03 1.264383673667907715e+00 -3.834952076431363821e-04 1.626019626855850220e-01 1.264383673667907715e+00 9.015972018241882324e-01 -9.798302054405212402e-01 -6.250971555709838867e-02 1.294679760932922363e+00 6.174272671341896057e-02 -1.256598758697509766e+01
0.000000000000000000e+00 -5.292233824729919434e-02 5.368932615965604782e-03 7.451311945915222168e-01 4.985437728464603424e-03 -5.545340776443481445e-01 1.917475950904190540e-03 1.264383673667907715e+00 -3.834952076431363821e-04 1.622184664011001587e-01 1.265150666236877441e+00 9.023641943931579590e-01 -9.802137017250061035e-01 -6.174272671341896057e-02 1.294679760932922363e+00 6.289321184158325195e-02 -1.256598758697509766e+01
0.000000000000000000e+00 -5.253884196281433105e-02 5.368932615965604782e-03 7.435972094535827637e-01 5.368932615965604782e-03 -5.545340776443481445e-01 2.684466307982802391e-03 1.264383673667907715e+00 -1.150485593825578690e-03 1.626019626855850220e-01 1.264767169952392578e+00 9.019806981086730957e-01 -9.798302054405212402e-01 -6.212622299790382385e-02 1.294296264648437500e+00 6.250971555709838867e-02 -1.256598758697509766e+01
0.000000000000000000e+00 -5.292233824729919434e-02 5.368932615965604782e-03 7.435972094535827637e-01 4.985437728464603424e-03 -5.545340776443481445e-01 1.917475950904190540e-03 1.264000177383422852e+00 -1.150485593825578690e-03 1.629854589700698853e-01 1.264000177383422852e+00 9.023641943931579590e-01 -9.809806942939758301e-01 -6.289321184158325195e-02 1.294679760932922363e+00 6.250971555709838867e-02 -1.256598758697509766e+01
0.000000000000000000e+00 -5.292233824729919434e-02 4.985437728464603424e-03 7.447476983070373535e-01 4.985437728464603424e-03 -5.549175739288330078e-01 1.917475950904190540e-03 1.264000177383422852e+00 -7.669904152862727642e-04 1.618349701166152954e-01 1.264383673667907715e+00 9.023641943931579590e-01 -9.805971980094909668e-01 -6.250971555709838867e-02 1.294296264648437500e+00 6.174272671341896057e-02 -1.256598758697509766e+01
0.000000000000000000e+00 -5.292233824729919434e-02 5.368932615965604782e-03 7.435972094535827637e-01 5.368932615965604782e-03 -5.549175739288330078e-01 1.917475950904190540e-03 1.264000177383422852e+00 -3.834952076431363821e-04 1.626019626855850220e-01 1.264000177383422852e+00 9.023641943931579590e-01 -9.805971980094909668e-01 -6.250971555709838867e-02 1.294679760932922363e+00 6.212622299790382385e-02 -1.256598758697509766e+01
0.000000000000000000e+00 -5.330583080649375916e-02 4.218447022140026093e-03 7.447476983070373535e-01 4.985437728464603424e-03 -5.545340776443481445e-01 1.917475950904190540e-03 1.264000177383422852e+00 -3.834952076431363821e-04 1.633689552545547485e-01 1.265150666236877441e+00 9.019806981086730957e-01 -9.805971980094909668e-01 -6.250971555709838867e-02 1.294296264648437500e+00 6.212622299790382385e-02 -1.256598758697509766e+01
0.000000000000000000e+00 -5.253884196281433105e-02 5.368932615965604782e-03 7.443642020225524902e-01 5.368932615965604782e-03 -5.549175739288330078e-01 1.533980830572545528e-03 1.264000177383422852e+00 -7.669904152862727642e-04 1.626019626855850220e-01 1.264767169952392578e+00 9.023641943931579590e-01 -9.802137017250061035e-01 -6.250971555709838867e-02 1.295446753501892090e+00 6.174272671341896057e-02 -1.256598758697509766e+01
0.000000000000000000e+00 -5.253884196281433105e-02 5.368932615965604782e-03 7.447476983070373535e-01 5.368932615965604782e-03 -5.553010702133178711e-01 2.300971187651157379e-03 1.263616681098937988e+00 -3.834952076431363821e-04 1.622184664011001587e-01 1.265150666236877441e+00 9.015972018241882324e-01 -9.802137017250061035e-01 -6.174272671341896057e-02 1.295446753501892090e+00 6.212622299790382385e-02 -1.256598758697509766e+01
0.000000000000000000e+00 -5.292233824729919434e-02 4.985437728464603424e-03 7.447476983070373535e-01 5.752427969127893448e-03 -5.553010702133178711e-01 2.300971187651157379e-03 1.264767169952392578e+00 -7.669904152862727642e-04 1.626019626855850220e-01 1.264383673667907715e+00 9.015972018241882324e-01 -9.805971980094909668e-01 -6.212622299790382385e-02 1.294296264648437500e+00 6.135923042893409729e-02 -1.256598758697509766e+01
0.000000000000000000e+00 -5.292233824729919434e-02 4.985437728464603424e-03 7.443642020225524902e-01 5.752427969127893448e-03 -5.553010702133178711e-01 1.533980830572545528e-03 1.264383673667907715e+00 -7.669904152862727642e-04 1.622184664011001587e-01 1.264767169952392578e+00 9.019806981086730957e-01 -9.798302054405212402e-01 -6.212622299790382385e-02 1.295063257217407227e+00 6.174272671341896057e-02 -1.256598758697509766e+01
0.000000000000000000e+00 -5.292233824729919434e-02 5.368932615965604782e-03 7.443642020225524902e-01 4.985437728464603424e-03 -5.553010702133178711e-01 2.300971187651157379e-03 1.264000177383422852e+00 -7.669904152862727642e-04 1.626019626855850220e-01 1.264383673667907715e+00 9.015972018241882324e-01 -9.802137017250061035e-01 -6.250971555709838867e-02 1.295063257217407227e+00 6.250971555709838867e-02 -1.256598758697509766e+01
0.000000000000000000e+00 -5.292233824729919434e-02 5.368932615965604782e-03 7.435972094535827637e-01 5.368932615965604782e-03 -5.545340776443481445e-01 1.917475950904190540e-03 1.264383673667907715e+00 -1.150485593825578690e-03 1.622184664011001587e-01 1.264000177383422852e+00 9.023641943931579590e-01 -9.805971980094909668e-01 -6.250971555709838867e-02 1.295063257217407227e+00 6.250971555709838867e-02 -1.256598758697509766e+01
0.000000000000000000e+00 -5.292233824729919434e-02 5.368932615965604782e-03 7.451311945915222168e-01 5.752427969127893448e-03 -5.549175739288330078e-01 2.300971187651157379e-03 1.264383673667907715e+00 -7.669904152862727642e-04 1.626019626855850220e-01 1.265534162521362305e+00 9.023641943931579590e-01 -9.802137017250061035e-01 -6.250971555709838867e-02 1.295063257217407227e+00 6.174272671341896057e-02 -1.256598758697509766e+01
0.000000000000000000e+00 -5.253884196281433105e-02 5.368932615965604782e-03 7.447476983070373535e-01 5.368932615965604782e-03 -5.553010702133178711e-01 2.300971187651157379e-03 1.264000177383422852e+00 -3.834952076431363821e-04 1.622184664011001587e-01 1.264000177383422852e+00 9.023641943931579590e-01 -9.798302054405212402e-01 -6.250971555709838867e-02 1.295063257217407227e+00 6.174272671341896057e-02 -1.256598758697509766e+01
0.000000000000000000e+00 -5.253884196281433105e-02 5.368932615965604782e-03 7.447476983070373535e-01 5.752427969127893448e-03 -5.545340776443481445e-01 1.533980830572545528e-03 1.264000177383422852e+00 -7.669904152862727642e-04 1.626019626855850220e-01 1.264000177383422852e+00 9.019806981086730957e-01 -9.798302054405212402e-01 -6.212622299790382385e-02 1.294679760932922363e+00 6.174272671341896057e-02 -1.256598758697509766e+01
0.000000000000000000e+00 -5.253884196281433105e-02 5.368932615965604782e-03 7.443642020225524902e-01 5.368932615965604782e-03 -5.553010702133178711e-01 1.533980830572545528e-03 1.264383673667907715e+00 -7.669904152862727642e-04 1.626019626855850220e-01 1.264383673667907715e+00 9.023641943931579590e-01 -9.805971980094909668e-01 -6.250971555709838867e-02 1.294296264648437500e+00 6.174272671341896057e-02 -1.256598758697509766e+01
0.000000000000000000e+00 -5.292233824729919434e-02 5.368932615965604782e-03 7.451311945915222168e-01 4.985437728464603424e-03 -5.545340776443481445e-01 1.150485593825578690e-03 1.263616681098937988e+00 -7.669904152862727642e-04 1.622184664011001587e-01 1.265150666236877441e+00 9.019806981086730957e-01 -9.809806942939758301e-01 -6.212622299790382385e-02 1.294679760932922363e+00 6.212622299790382385e-02 -1.256598758697509766e+01
0.000000000000000000e+00 -5.253884196281433105e-02 5.368932615965604782e-03 7.451311945915222168e-01 6.135923322290182114e-03 -5.549175739288330078e-01 1.917475950904190540e-03 1.264000177383422852e+00 -3.834952076431363821e-04 1.618349701166152954e-01 1.265150666236877441e+00 9.019806981086730957e-01 -9.802137017250061035e-01 -6.212622299790382385e-02 1.295063257217407227e+00 6.250971555709838867e-02 -1.256598758697509766e+01
0.000000000000000000e+00 -5.292233824729919434e-02 4.985437728464603424e-03 7.443642020225524902e-01 5.368932615965604782e-03 -5.549175739288330078e-01 2.300971187651157379e-03 1.264383673667907715e+00 -3.834952076431363821e-04 1.622184664011001587e-01 1.264383673667907715e+00 9.019806981086730957e-01 -9.802137017250061035e-01 -6.174272671341896057e-02 1.294679760932922363e+00 6.174272671341896057e-02 -1.256598758697509766e+01
0.000000000000000000e+00 -5.292233824729919434e-02 5.368932615965604782e-03 7.447476983070373535e-01 4.985437728464603424e-03 -5.545340776443481445e-01 1.917475950904190540e-03 1.263616681098937988e+00 -7.669904152862727642e-04 1.626019626855850220e-01 1.264000177383422852e+00 9.027476906776428223e-01 -9.805971980094909668e-01 -6.250971555709838867e-02 1.294679760932922363e+00 6.250971555709838867e-02 -1.256598758697509766e+01
0.000000000000000000e+00 -5.253884196281433105e-02 4.985437728464603424e-03 7.451311945915222168e-01 5.368932615965604782e-03 -5.549175739288330078e-01 1.917475950904190540e-03 1.264383673667907715e+00 -1.150485593825578690e-03 1.622184664011001587e-01 1.265150666236877441e+00 9.015972018241882324e-01 -9.817476868629455566e-01 -6.289321184158325195e-02 1.294679760932922363e+00 6.212622299790382385e-02 -1.256598758697509766e+01
0.000000000000000000e+00 -5.253884196281433105e-02 5.368932615965604782e-03 7.447476983070373535e-01 5.368932615965604782e-03 -5.545340776443481445e-01 2.300971187651157379e-03 1.264383673667907715e+00 -3.834952076431363821e-04 1.622184664011001587e-01 1.264767169952392578e+00 9.019806981086730957e-01 -9.805971980094909668e-01 -6.250971555709838867e-02 1.294679760932922363e+00 6.174272671341896057e-02 -1.256598758697509766e+01
0.000000000000000000e+00 -5.253884196281433105e-02 4.985437728464603424e-03 7.443642020225524902e-01 4.985437728464603424e-03 -5.556845664978027344e-01 1.917475950904190540e-03 1.263616681098937988e+00 -1.150485593825578690e-03 1.626019626855850220e-01 1.265534162521362305e+00 9.027476906776428223e-01 -9.802137017250061035e-01 -6.250971555709838867e-02 1.294679760932922363e+00 6.289321184158325195e-02 -1.256598758697509766e+01
0.000000000000000000e+00 -5.330583080649375916e-02 4.985437728464603424e-03 7.443642020225524902e-01 5.368932615965604782e-03 -5.553010702133178711e-01 1.917475950904190540e-03 1.264767169952392578e+00 -3.834952076431363821e-04 1.629854589700698853e-01 1.265150666236877441e+00 9.019806981086730957e-01 -9.802137017250061035e-01 -6.212622299790382385e-02 1.294296264648437500e+00 6.174272671341896057e-02 -1.256598758697509766e+01
0.000000000000000000e+00 -5.330583080649375916e-02 5.752427969127893448e-03 7.455146908760070801e-01 4.985437728464603424e-03 -5.556845664978027344e-01 1.533980830572545528e-03 1.264767169952392578e+00 -7.669904152862727642e-04 1.626019626855850220e-01 1.265534162521362305e+00 9.019806981086730957e-01 -9.805971980094909668e-01 -6.250971555709838867e-02 1.295063257217407227e+00 6.174272671341896057e-02 -1.256598758697509766e+01
0.000000000000000000e+00 -5.215534567832946777e-02 5.752427969127893448e-03 7.447476983070373535e-01 4.985437728464603424e-03 -5.549175739288330078e-01 1.533980830572545528e-03 1.264000177383422852e+00 -3.834952076431363821e-04 1.622184664011001587e-01 1.265534162521362305e+00 9.019806981086730957e-01 -9.805971980094909668e-01 -6.250971555709838867e-02 1.293912768363952637e+00 6.212622299790382385e-02 -1.256598758697509766e+01
0.000000000000000000e+00 -5.253884196281433105e-02 4.985437728464603424e-03 7.447476983070373535e-01 5.752427969127893448e-03 -5.541505813598632812e-01 2.300971187651157379e-03 1.263616681098937988e+00 -3.834952076431363821e-04 1.626019626855850220e-01 1.265534162521362305e+00 9.023641943931579590e-01 -9.805971980094909668e-01 -6.212622299790382385e-02 1.294679760932922363e+00 6.212622299790382385e-02 -1.256598758697509766e+01
0.000000000000000000e+00 -5.330583080649375916e-02 5.368932615965604782e-03 7.443642020225524902e-01 5.368932615965604782e-03 -5.549175739288330078e-01 1.917475950904190540e-03 1.264383673667907715e+00 -7.669904152862727642e-04 1.626019626855850220e-01 1.264767169952392578e+00 9.012137055397033691e-01 -9.802137017250061035e-01 -6.174272671341896057e-02 1.294679760932922363e+00 6.174272671341896057e-02 -1.256598758697509766e+01
0.000000000000000000e+00 -5.292233824729919434e-02 4.985437728464603424e-03 7.451311945915222168e-01 5.368932615965604782e-03 -5.549175739288330078e-01 1.917475950904190540e-03 1.264000177383422852e+00 -3.834952076431363821e-04 1.622184664011001587e-01 1.265917658805847168e+00 9.008302092552185059e-01 -9.809806942939758301e-01 -6.250971555709838867e-02 1.295063257217407227e+00 6.174272671341896057e-02 -1.256598758697509766e+01
0.000000000000000000e+00 -5.292233824729919434e-02 4.985437728464603424e-03 7.447476983070373535e-01 5.752427969127893448e-03 -5.541505813598632812e-01 1.917475950904190540e-03 1.264383673667907715e+00 -7.669904152862727642e-04 1.629854589700698853e-01 1.265534162521362305e+00 9.019806981086730957e-01 -9.802137017250061035e-01 -6.135923042893409729e-02 1.295063257217407227e+00 6.212622299790382385e-02 -1.256598758697509766e+01
0.000000000000000000e+00 -5.292233824729919434e-02 5.368932615965604782e-03 7.447476983070373535e-01 4.985437728464603424e-03 -5.553010702133178711e-01 1.917475950904190540e-03 1.264383673667907715e+00 -3.834952076431363821e-04 1.622184664011001587e-01 1.265534162521362305e+00 9.015972018241882324e-01 -9.805971980094909668e-01 -6.212622299790382385e-02 1.294679760932922363e+00 6.212622299790382385e-02 -1.256598758697509766e+01
0.000000000000000000e+00 -5.330583080649375916e-02 4.601942375302314758e-03 7.447476983070373535e-01 5.368932615965604782e-03 -5.553010702133178711e-01 1.917475950904190540e-03 1.264383673667907715e+00 -7.669904152862727642e-04 1.626019626855850220e-01 1.266301155090332031e+00 9.023641943931579590e-01 -9.805971980094909668e-01 -6.174272671341896057e-02 1.295063257217407227e+00 6.174272671341896057e-02 -1.256598758697509766e+01
0.000000000000000000e+00 -5.253884196281433105e-02 5.368932615965604782e-03 7.447476983070373535e-01 4.985437728464603424e-03 -5.549175739288330078e-01 1.533980830572545528e-03 1.263616681098937988e+00 -7.669904152862727642e-04 1.626019626855850220e-01 1.265917658805847168e+00 9.019806981086730957e-01 -9.802137017250061035e-01 -6.212622299790382385e-02 1.295063257217407227e+00 6.212622299790382385e-02 -1.256598758697509766e+01
0.000000000000000000e+00 -5.215534567832946777e-02 5.752427969127893448e-03 7.447476983070373535e-01 5.368932615965604782e-03 -5.553010702133178711e-01 1.533980830572545528e-03 1.264000177383422852e+00 -7.669904152862727642e-04 1.626019626855850220e-01 1.266301155090332031e+00 9.023641943931579590e-01 -9.802137017250061035e-01 -6.250971555709838867e-02 1.294679760932922363e+00 6.174272671341896057e-02 -1.256598758697509766e+01
0.000000000000000000e+00 -5.292233824729919434e-02 4.985437728464603424e-03 7.447476983070373535e-01 4.601942375302314758e-03 -5.549175739288330078e-01 1.533980830572545528e-03 1.264000177383422852e+00 -3.834952076431363821e-04 1.626019626855850220e-01 1.266301155090332031e+00 9.019806981086730957e-01 -9.802137017250061035e-01 -6.174272671341896057e-02 1.294679760932922363e+00 6.212622299790382385e-02 -1.256598758697509766e+01
0.000000000000000000e+00 -5.253884196281433105e-02 5.368932615965604782e-03 7.432137131690979004e-01 4.601942375302314758e-03 -5.549175739288330078e-01 1.533980830572545528e-03 1.264000177383422852e+00 -1.150485593825578690e-03 1.629854589700698853e-01 1.267068147659301758e+00 9.019806981086730957e-01 -9.805971980094909668e-01 -6.212622299790382385e-02 1.294679760932922363e+00 6.212622299790382385e-02 -1.256598758697509766e+01
0.000000000000000000e+00 -5.292233824729919434e-02 4.985437728464603424e-03 7.447476983070373535e-01 5.368932615965604782e-03 -5.553010702133178711e-01 1.917475950904190540e-03 1.264383673667907715e+00 -7.669904152862727642e-04 1.626019626855850220e-01 1.266301155090332031e+00 9.023641943931579590e-01 -9.798302054405212402e-01 -6.212622299790382385e-02 1.294679760932922363e+00 6.250971555709838867e-02 -1.256598758697509766e+01
0.000000000000000000e+00 -5.292233824729919434e-02 4.985437728464603424e-03 7.443642020225524902e-01 5.752427969127893448e-03 -5.553010702133178711e-01 1.917475950904190540e-03 1.264383673667907715e+00 -3.834952076431363821e-04 1.629854589700698853e-01 1.266684651374816895e+00 9.023641943931579590e-01 -9.802137017250061035e-01 -6.327670812606811523e-02 1.294296264648437500e+00 6.212622299790382385e-02 -1.256598758697509766e+01
0.000000000000000000e+00 -5.292233824729919434e-02 5.368932615965604782e-03 7.443642020225524902e-01 6.135923322290182114e-03 -5.541505813598632812e-01 1.917475950904190540e-03 1.264767169952392578e+00 -1.150485593825578690e-03 1.626019626855850220e-01 1.265917658805847168e+00 9.019806981086730957e-01 -9.794467091560363770e-01 -6.212622299790382385e-02 1.295446753501892090e+00 6.212622299790382385e-02 -1.256598758697509766e+01
0.000000000000000000e+00 -5.253884196281433105e-02 5.368932615965604782e-03 7.443642020225524902e-01 4.985437728464603424e-03 -5.549175739288330078e-01 1.533980830572545528e-03 1.264000177383422852e+00 -7.669904152862727642e-04 1.629854589700698853e-01 1.267068147659301758e+00 9.023641943931579590e-01 -9.805971980094909668e-01 -6.212622299790382385e-02 1.294679760932922363e+00 6.174272671341896057e-02 -1.256598758697509766e+01
0.000000000000000000e+00 -5.253884196281433105e-02 5.368932615965604782e-03 7.435972094535827637e-01 5.752427969127893448e-03 -5.549175739288330078e-01 1.917475950904190540e-03 1.264000177383422852e+00 -7.669904152862727642e-04 1.622184664011001587e-01 1.266301155090332031e+00 9.023641943931579590e-01 -9.805971980094909668e-01 -6.289321184158325195e-02 1.295446753501892090e+00 6.250971555709838867e-02 -1.256598758697509766e+01
0.000000000000000000e+00 -5.253884196281433105e-02 4.601942375302314758e-03 7.443642020225524902e-01 5.368932615965604782e-03 -5.553010702133178711e-01 2.300971187651157379e-03 1.264000177383422852e+00 -3.834952076431363821e-04 1.629854589700698853e-01 1.266684651374816895e+00 9.015972018241882324e-01 -9.798302054405212402e-01 -6.212622299790382385e-02 1.295446753501892090e+00 6.250971555709838867e-02 -1.256598758697509766e+01
0.000000000000000000e+00 -5.253884196281433105e-02 5.752427969127893448e-03 7.447476983070373535e-01 5.368932615965604782e-03 -5.545340776443481445e-01 2.300971187651157379e-03 1.263616681098937988e+00 -7.669904152862727642e-04 1.622184664011001587e-01 1.267068147659301758e+00 9.023641943931579590e-01 -9.798302054405212402e-01 -6.289321184158325195e-02 1.295446753501892090e+00 6.250971555709838867e-02 -1.256598758697509766e+01
0.000000000000000000e+00 -5.215534567832946777e-02 5.752427969127893448e-03 7.443642020225524902e-01 5.368932615965604782e-03 -5.549175739288330078e-01 1.533980830572545528e-03 1.264383673667907715e+00 -7.669904152862727642e-04 1.633689552545547485e-01 1.266301155090332031e+00 9.027476906776428223e-01 -9.798302054405212402e-01 -6.250971555709838867e-02 1.294679760932922363e+00 6.174272671341896057e-02 -1.256598758697509766e+01
0.000000000000000000e+00 -5.253884196281433105e-02 4.985437728464603424e-03 7.443642020225524902e-01 5.368932615965604782e-03 -5.553010702133178711e-01 2.300971187651157379e-03 1.264000177383422852e+00 -1.533980830572545528e-03 1.626019626855850220e-01 1.267068147659301758e+00 9.019806981086730957e-01 -9.802137017250061035e-01 -6.250971555709838867e-02 1.295446753501892090e+00 6.174272671341896057e-02 -1.256598758697509766e+01
0.000000000000000000e+00 -5.292233824729919434e-02 5.752427969127893448e-03 7.435972094535827637e-01 4.985437728464603424e-03 -5.556845664978027344e-01 2.684466307982802391e-03 1.263616681098937988e+00 -3.834952076431363821e-04 1.626019626855850220e-01 1.267451643943786621e+00 9.019806981086730957e-01 -9.798302054405212402e-01 -6.250971555709838867e-02 1.295063257217407227e+00 6.174272671341896057e-02 -1.256598758697509766e+01
0.000000000000000000e+00 -5.253884196281433105e-02 5.368932615965604782e-03 7.443642020225524902e-01 5.752427969127893448e-03 -5.553010702133178711e-01 2.300971187651157379e-03 1.264000177383422852e+00 -1.150485593825578690e-03 1.629854589700698853e-01 1.265534162521362305e+00 9.023641943931579590e-01 -9.790632128715515137e-01 -6.250971555709838867e-02 1.295063257217407227e+00 6.289321184158325195e-02 -1.256598758697509766e+01
0.000000000000000000e+00 -5.253884196281433105e-02 4.985437728464603424e-03 7.443642020225524902e-01 4.985437728464603424e-03 -5.553010702133178711e-01 1.533980830572545528e-03 1.264383673667907715e+00 -1.150485593825578690e-03 1.629854589700698853e-01 1.265917658805847168e+00 9.015972018241882324e-01 -9.798302054405212402e-01 -6.174272671341896057e-02 1.294679760932922363e+00 6.250971555709838867e-02 -1.256598758697509766e+01
0.000000000000000000e+00 -5.253884196281433105e-02 4.985437728464603424e-03 7.443642020225524902e-01 5.368932615965604782e-03 -5.556845664978027344e-01 1.533980830572545528e-03 1.264000177383422852e+00 -7.669904152862727642e-04 1.622184664011001587e-01 1.266684651374816895e+00 9.023641943931579590e-01 -9.798302054405212402e-01 -6.174272671341896057e-02 1.294679760932922363e+00 6.212622299790382385e-02 -1.256598758697509766e+01
0.000000000000000000e+00 -5.330583080649375916e-02 5.368932615965604782e-03 7.447476983070373535e-01 5.368932615965604782e-03 -5.549175739288330078e-01 1.917475950904190540e-03 1.264383673667907715e+00 -1.150485593825578690e-03 1.629854589700698853e-01 1.266301155090332031e+00 9.023641943931579590e-01 -9.798302054405212402e-01 -6.174272671341896057e-02 1.294679760932922363e+00 6.250971555709838867e-02 -1.256598758697509766e+01
0.000000000000000000e+00 -5.253884196281433105e-02 5.368932615965604782e-03 7.447476983070373535e-01 5.368932615965604782e-03 -5.553010702133178711e-01 1.917475950904190540e-03 1.263616681098937988e+00 -7.669904152862727642e-04 1.626019626855850220e-01 1.266301155090332031e+00 9.019806981086730957e-01 -9.802137017250061035e-01 -6.250971555709838867e-02 1.295446753501892090e+00 6.212622299790382385e-02 -1.256598758697509766e+01
0.000000000000000000e+00 -5.253884196281433105e-02 5.368932615965604782e-03 7.443642020225524902e-01 5.752427969127893448e-03 -5.545340776443481445e-01 2.300971187651157379e-03 1.264000177383422852e+00 -1.150485593825578690e-03 1.618349701166152954e-01 1.266301155090332031e+00 9.019806981086730957e-01 -9.802137017250061035e-01 -6.212622299790382385e-02 1.295063257217407227e+00 6.212622299790382385e-02 -1.256598758697509766e+01
0.000000000000000000e+00 -5.253884196281433105e-02 4.985437728464603424e-03 7.435972094535827637e-01 4.985437728464603424e-03 -5.549175739288330078e-01 2.300971187651157379e-03 1.264383673667907715e+00 -7.669904152862727642e-04 1.629854589700698853e-01 1.266684651374816895e+00 9.019806981086730957e-01 -9.802137017250061035e-01 -6.212622299790382385e-02 1.295063257217407227e+00 6.289321184158325195e-02 -1.256598758697509766e+01
0.000000000000000000e+00 -5.292233824729919434e-02 5.368932615965604782e-03 7.435972094535827637e-01 5.368932615965604782e-03 -5.553010702133178711e-01 1.917475950904190540e-03 1.264383673667907715e+00 -7.669904152862727642e-04 1.622184664011001587e-01 1.265534162521362305e+00 9.023641943931579590e-01 -9.798302054405212402e-01 -6.212622299790382385e-02 1.295446753501892090e+00 6.135923042893409729e-02 -1.256598758697509766e+01
0.000000000000000000e+00 -5.253884196281433105e-02 5.368932615965604782e-03 7.447476983070373535e-01 5.368932615965604782e-03 -5.545340776443481445e-01 1.917475950904190540e-03 1.264383673667907715e+00 -3.834952076431363821e-04 1.626019626855850220e-01 1.265917658805847168e+00 9.019806981086730957e-01 -9.802137017250061035e-01 -6.212622299790382385e-02 1.294679760932922363e+00 6.135923042893409729e-02 -1.256598758697509766e+01
0.000000000000000000e+00 -5.253884196281433105e-02 5.368932615965604782e-03 7.447476983070373535e-01 5.368932615965604782e-03 -5.545340776443481445e-01 1.917475950904190540e-03 1.264000177383422852e+00 -7.669904152862727642e-04 1.622184664011001587e-01 1.265917658805847168e+00 9.023641943931579590e-01 -9.805971980094909668e-01 -6.250971555709838867e-02 1.294679760932922363e+00 6.135923042893409729e-02 -1.256598758697509766e+01
0.000000000000000000e+00 -5.292233824729919434e-02 5.752427969127893448e-03 7.443642020225524902e-01 4.985437728464603424e-03 -5.545340776443481445e-01 1.917475950904190540e-03 1.264000177383422852e+00 -3.834952076431363821e-04 1.633689552545547485e-01 1.266301155090332031e+00 9.019806981086730957e-01 -9.802137017250061035e-01 -6.250971555709838867e-02 1.294296264648437500e+00 6.250971555709838867e-02 -1.256598758697509766e+01
0.000000000000000000e+00 -5.253884196281433105e-02 5.368932615965604782e-03 7.447476983070373535e-01 5.368932615965604782e-03 -5.545340776443481445e-01 2.300971187651157379e-03 1.264000177383422852e+00 -7.669904152862727642e-04 1.622184664011001587e-01 1.265150666236877441e+00 9.023641943931579590e-01 -9.802137017250061035e-01 -6.212622299790382385e-02 1.295063257217407227e+00 6.212622299790382385e-02 -1.256598758697509766e+01
0.000000000000000000e+00 -5.292233824729919434e-02 5.368932615965604782e-03 7.443642020225524902e-01 4.985437728464603424e-03 -5.549175739288330078e-01 2.300971187651157379e-03 1.264383673667907715e+00 -7.669904152862727642e-04 1.626019626855850220e-01 1.265917658805847168e+00 9.027476906776428223e-01 -9.802137017250061035e-01 -6.212622299790382385e-02 1.295446753501892090e+00 6.212622299790382385e-02 -1.256598758697509766e+01
0.000000000000000000e+00 -5.253884196281433105e-02 5.368932615965604782e-03 7.443642020225524902e-01 4.985437728464603424e-03 -5.549175739288330078e-01 1.917475950904190540e-03 1.263616681098937988e+00 -3.834952076431363821e-04 1.629854589700698853e-01 1.265534162521362305e+00 9.023641943931579590e-01 -9.798302054405212402e-01 -6.212622299790382385e-02 1.294679760932922363e+00 6.250971555709838867e-02 -1.256598758697509766e+01
0.000000000000000000e+00 -5.292233824729919434e-02 5.752427969127893448e-03 7.451311945915222168e-01 5.368932615965604782e-03 -5.549175739288330078e-01 1.533980830572545528e-03 1.263616681098937988e+00 -1.150485593825578690e-03 1.622184664011001587e-01 1.266301155090332031e+00 9.019806981086730957e-01 -9.809806942939758301e-01 -6.174272671341896057e-02 1.294679760932922363e+00 6.250971555709838867e-02 -1.256598758697509766e+01
0.000000000000000000e+00 -5.253884196281433105e-02 6.135923322290182114e-03 7.447476983070373535e-01 4.985437728464603424e-03 -5.545340776443481445e-01 1.533980830572545528e-03 1.264383673667907715e+00 0.000000000000000000e+00 1.622184664011001587e-01 1.266301155090332031e+00 9.019806981086730957e-01 -9.802137017250061035e-01 -6.212622299790382385e-02 1.294296264648437500e+00 6.212622299790382385e-02 -1.256598758697509766e+01
0.000000000000000000e+00 -5.292233824729919434e-02 5.368932615965604782e-03 7.447476983070373535e-01 5.752427969127893448e-03 -5.549175739288330078e-01 1.917475950904190540e-03 1.264383673667907715e+00 -7.669904152862727642e-04 1.633689552545547485e-01 1.266684651374816895e+00 9.019806981086730957e-01 -9.798302054405212402e-01 -6.250971555709838867e-02 1.294679760932922363e+00 6.174272671341896057e-02 -1.256598758697509766e+01
0.000000000000000000e+00 -5.253884196281433105e-02 4.985437728464603424e-03 7.447476983070373535e-01 5.752427969127893448e-03 -5.549175739288330078e-01 2.300971187651157379e-03 1.264383673667907715e+00 -7.669904152862727642e-04 1.626019626855850220e-01 1.266684651374816895e+00 9.019806981086730957e-01 -9.802137017250061035e-01 -6.212622299790382385e-02 1.294296264648437500e+00 6.250971555709838867e-02 -1.256598758697509766e+01
0.000000000000000000e+00 -5.215534567832946777e-02 5.368932615965604782e-03 7.443642020225524902e-01 5.368932615965604782e-03 -5.553010702133178711e-01 2.684466307982802391e-03 1.264000177383422852e+00 -1.150485593825578690e-03 1.629854589700698853e-01 1.265917658805847168e+00 9.023641943931579590e-01 -9.798302054405212402e-01 -6.174272671341896057e-02 1.295063257217407227e+00 6.289321184158325195e-02 -1.256598758697509766e+01
0.000000000000000000e+00 -5.253884196281433105e-02 5.752427969127893448e-03 7.451311945915222168e-01 4.985437728464603424e-03 -5.553010702133178711e-01 2.300971187651157379e-03 1.264000177383422852e+00 -7.669904152862727642e-04 1.618349701166152954e-01 1.266301155090332031e+00 9.015972018241882324e-01 -9.794467091560363770e-01 -6.212622299790382385e-02 1.294679760932922363e+00 6.212622299790382385e-02 -1.256598758697509766e+01
0.000000000000000000e+00 -5.292233824729919434e-02 5.368932615965604782e-03 7.447476983070373535e-01 5.368932615965604782e-03 -5.549175739288330078e-01 2.300971187651157379e-03 1.264383673667907715e+00 -1.150485593825578690e-03 1.626019626855850220e-01 1.266301155090332031e+00 9.015972018241882324e-01 -9.794467091560363770e-01 -6.250971555709838867e-02 1.294679760932922363e+00 6.212622299790382385e-02 -1.256598758697509766e+01
0.000000000000000000e+00 -5.292233824729919434e-02 4.985437728464603424e-03 7.443642020225524902e-01 5.368932615965604782e-03 -5.549175739288330078e-01 2.300971187651157379e-03 1.264000177383422852e+00 -7.669904152862727642e-04 1.622184664011001587e-01 1.266301155090332031e+00 9.015972018241882324e-01 -9.798302054405212402e-01 -6.212622299790382385e-02 1.295063257217407227e+00 6.289321184158325195e-02 -1.256598758697509766e+01
0.000000000000000000e+00 -5.253884196281433105e-02 4.985437728464603424e-03 7.443642020225524902e-01 5.368932615965604782e-03 -5.545340776443481445e-01 1.533980830572545528e-03 1.263616681098937988e+00 -3.834952076431363821e-04 1.626019626855850220e-01 1.265917658805847168e+00 9.015972018241882324e-01 -9.798302054405212402e-01 -6.250971555709838867e-02 1.294296264648437500e+00 6.174272671341896057e-02 -1.256598758697509766e+01
0.000000000000000000e+00 -5.253884196281433105e-02 4.985437728464603424e-03 7.443642020225524902e-01 5.368932615965604782e-03 -5.553010702133178711e-01 1.917475950904190540e-03 1.263616681098937988e+00 -3.834952076431363821e-04 1.618349701166152954e-01 1.266301155090332031e+00 9.027476906776428223e-01 -9.790632128715515137e-01 -6.212622299790382385e-02 1.294296264648437500e+00 6.174272671341896057e-02 -1.256598758697509766e+01
0.000000000000000000e+00 -5.253884196281433105e-02 6.135923322290182114e-03 7.443642020225524902e-01 4.985437728464603424e-03 -5.545340776443481445e-01 2.300971187651157379e-03 1.263616681098937988e+00 -1.150485593825578690e-03 1.618349701166152954e-01 1.265917658805847168e+00 9.019806981086730957e-01 -9.790632128715515137e-01 -6.289321184158325195e-02 1.294679760932922363e+00 6.250971555709838867e-02 -1.256598758697509766e+01
0.000000000000000000e+00 -5.253884196281433105e-02 5.752427969127893448e-03 7.443642020225524902e-01 4.601942375302314758e-03 -5.549175739288330078e-01 2.684466307982802391e-03 1.264000177383422852e+00 -1.150485593825578690e-03 1.618349701166152954e-01 1.265534162521362305e+00 9.015972018241882324e-01 -9.798302054405212402e-01 -6.250971555709838867e-02 1.293912768363952637e+00 6.174272671341896057e-02 -1.256598758697509766e+01
0.000000000000000000e+00 -5.253884196281433105e-02 4.601942375302314758e-03 7.451311945915222168e-01 4.985437728464603424e-03 -5.553010702133178711e-01 2.300971187651157379e-03 1.263616681098937988e+00 -3.834952076431363821e-04 1.622184664011001587e-01 1.264767169952392578e+00 9.015972018241882324e-01 -9.794467091560363770e-01 -6.212622299790382385e-02 1.295063257217407227e+00 6.174272671341896057e-02 -1.256598758697509766e+01
0.000000000000000000e+00 -5.253884196281433105e-02 5.368932615965604782e-03 7.443642020225524902e-01 5.752427969127893448e-03 -5.556845664978027344e-01 1.917475950904190540e-03 1.264767169952392578e+00 -1.533980830572545528e-03 1.618349701166152954e-01 1.265917658805847168e+00 9.012137055397033691e-01 -9.794467091560363770e-01 -6.212622299790382385e-02 1.294679760932922363e+00 6.135923042893409729e-02 -1.256598758697509766e+01
0.000000000000000000e+00 -5.253884196281433105e-02 5.752427969127893448e-03 7.447476983070373535e-01 4.985437728464603424e-03 -5.556845664978027344e-01 1.533980830572545528e-03 1.264000177383422852e+00 -3.834952076431363821e-04 1.618349701166152954e-01 1.266301155090332031e+00 9.008302092552185059e-01 -9.790632128715515137e-01 -6.250971555709838867e-02 1.294679760932922363e+00 6.212622299790382385e-02 -1.256598758697509766e+01
0.000000000000000000e+00 -5.253884196281433105e-02 5.752427969127893448e-03 7.443642020225524902e-01 5.368932615965604782e-03 -5.549175739288330078e-01 1.533980830572545528e-03 1.264383673667907715e+00 -1.150485593825578690e-03 1.606844812631607056e-01 1.266301155090332031e+00 9.000632166862487793e-01 -9.779127240180969238e-01 -6.212622299790382385e-02 1.293912768363952637e+00 6.212622299790382385e-02 -1.256598758697509766e+01
0.000000000000000000e+00 -5.292233824729919434e-02 4.985437728464603424e-03 7.447476983070373535e-01 5.368932615965604782e-03 -5.549175739288330078e-01 2.300971187651157379e-03 1.264383673667907715e+00 -3.834952076431363821e-04 1.603009849786758423e-01 1.265534162521362305e+00 9.004467129707336426e-01 -9.786797165870666504e-01 -6.174272671341896057e-02 1.293912768363952637e+00 6.174272671341896057e-02 -1.256598758697509766e+01
0.000000000000000000e+00 -5.292233824729919434e-02 5.368932615965604782e-03 7.447476983070373535e-01 5.368932615965604782e-03 -5.549175739288330078e-01 2.300971187651157379e-03 1.264767169952392578e+00 -3.834952076431363821e-04 1.610679775476455688e-01 1.265917658805847168e+00 8.996797204017639160e-01 -9.786797165870666504e-01 -6.174272671341896057e-02 1.293145775794982910e+00 6.212622299790382385e-02 -1.256598758697509766e+01
0.000000000000000000e+00 -5.292233824729919434e-02 5.368932615965604782e-03 7.447476983070373535e-01 4.985437728464603424e-03 -5.541505813598632812e-01 2.300971187651157379e-03 1.264000177383422852e+00 -1.150485593825578690e-03 1.610679775476455688e-01 1.267068147659301758e+00 8.996797204017639160e-01 -9.786797165870666504e-01 -6.174272671341896057e-02 1.293145775794982910e+00 6.250971555709838867e-02 -1.256598758697509766e+01
0.000000000000000000e+00 -5.215534567832946777e-02 4.601942375302314758e-03 7.443642020225524902e-01 5.368932615965604782e-03 -5.545340776443481445e-01 1.917475950904190540e-03 1.263616681098937988e+00 -7.669904152862727642e-04 1.606844812631607056e-01 1.265534162521362305e+00 8.992962241172790527e-01 -9.782962203025817871e-01 -6.097573786973953247e-02 1.293529272079467773e+00 6.212622299790382385e-02 -1.256598758697509766e+01
0.000000000000000000e+00 -5.253884196281433105e-02 5.368932615965604782e-03 7.443642020225524902e-01 4.985437728464603424e-03 -5.545340776443481445e-01 1.533980830572545528e-03 1.264383673667907715e+00 -1.150485593825578690e-03 1.606844812631607056e-01 1.266684651374816895e+00 8.989127278327941895e-01 -9.775292277336120605e-01 -6.174272671341896057e-02 1.293145775794982910e+00 6.250971555709838867e-02 -1.256598758697509766e+01
0.000000000000000000e+00 -5.215534567832946777e-02 5.752427969127893448e-03 7.447476983070373535e-01 4.985437728464603424e-03 -5.545340776443481445e-01 2.300971187651157379e-03 1.264383673667907715e+00 -1.150485593825578690e-03 1.606844812631607056e-01 1.266301155090332031e+00 8.989127278327941895e-01 -9.779127240180969238e-01 -6.097573786973953247e-02 1.293145775794982910e+00 6.212622299790382385e-02 -1.256598758697509766e+01
0.000000000000000000e+00 -5.292233824729919434e-02 4.985437728464603424e-03 7.435972094535827637e-01 5.752427969127893448e-03 -5.553010702133178711e-01 1.533980830572545528e-03 1.263616681098937988e+00 -3.834952076431363821e-04 1.606844812631607056e-01 1.265917658805847168e+00 8.989127278327941895e-01 -9.775292277336120605e-01 -6.135923042893409729e-02 1.293529272079467773e+00 6.174272671341896057e-02 -1.256598758697509766e+01
0.000000000000000000e+00 -5.292233824729919434e-02 5.368932615965604782e-03 7.447476983070373535e-01 5.368932615965604782e-03 -5.549175739288330078e-01 1.533980830572545528e-03 1.264000177383422852e+00 -1.150485593825578690e-03 1.603009849786758423e-01 1.265917658805847168e+00 8.985292315483093262e-01 -9.775292277336120605e-01 -6.212622299790382385e-02 1.294296264648437500e+00 6.212622299790382385e-02 -1.256598758697509766e+01
0.000000000000000000e+00 -5.253884196281433105e-02 5.368932615965604782e-03 7.447476983070373535e-01 5.752427969127893448e-03 -5.553010702133178711e-01 1.917475950904190540e-03 1.263616681098937988e+00 -1.150485593825578690e-03 1.603009849786758423e-01 1.266301155090332031e+00 8.981457352638244629e-01 -9.779127240180969238e-01 -6.135923042893409729e-02 1.295063257217407227e+00 6.212622299790382385e-02 -1.256598758697509766e+01
0.000000000000000000e+00 -5.292233824729919434e-02 5.752427969127893448e-03 7.447476983070373535e-01 4.985437728464603424e-03 -5.545340776443481445e-01 7.669904152862727642e-04 1.264383673667907715e+00 -1.150485593825578690e-03 1.599175035953521729e-01 1.266301155090332031e+00 8.977622389793395996e-01 -9.779127240180969238e-01 -6.250971555709838867e-02 1.295446753501892090e+00 6.250971555709838867e-02 -1.256598758697509766e+01
0.000000000000000000e+00 -5.253884196281433105e-02 6.519418209791183472e-03 7.455146908760070801e-01 5.368932615965604782e-03 -5.549175739288330078e-01 1.533980830572545528e-03 1.264000177383422852e+00 -3.834952076431363821e-04 1.603009849786758423e-01 1.265534162521362305e+00 8.966117501258850098e-01 -9.782962203025817871e-01 -6.174272671341896057e-02 1.295063257217407227e+00 6.212622299790382385e-02 -1.256598758697509766e+01
0.000000000000000000e+00 -5.292233824729919434e-02 5.368932615965604782e-03 7.443642020225524902e-01 5.752427969127893448e-03 -5.545340776443481445e-01 1.533980830572545528e-03 1.263616681098937988e+00 -7.669904152862727642e-04 1.603009849786758423e-01 1.265150666236877441e+00 8.958447575569152832e-01 -9.786797165870666504e-01 -6.289321184158325195e-02 1.296213746070861816e+00 6.250971555709838867e-02 -1.256598758697509766e+01
0.000000000000000000e+00 -5.253884196281433105e-02 6.519418209791183472e-03 7.447476983070373535e-01 5.368932615965604782e-03 -5.553010702133178711e-01 2.300971187651157379e-03 1.264000177383422852e+00 -3.834952076431363821e-04 1.603009849786758423e-01 1.264383673667907715e+00 8.946942687034606934e-01 -9.790632128715515137e-01 -6.212622299790382385e-02 1.297747731208801270e+00 6.212622299790382385e-02 -1.256598758697509766e+01
0.000000000000000000e+00 -5.330583080649375916e-02 5.368932615965604782e-03 7.435972094535827637e-01 5.368932615965604782e-03 -5.545340776443481445e-01 2.300971187651157379e-03 1.263616681098937988e+00 -1.150485593825578690e-03 1.614514738321304321e-01 1.263233184814453125e+00 8.943107724189758301e-01 -9.786797165870666504e-01 -6.250971555709838867e-02 1.297364234924316406e+00 6.250971555709838867e-02 -1.256598758697509766e+01
0.000000000000000000e+00 -5.215534567832946777e-02 6.135923322290182114e-03 7.443642020225524902e-01 5.368932615965604782e-03 -5.545340776443481445e-01 2.300971187651157379e-03 1.264000177383422852e+00 -3.834952076431363821e-04 1.599175035953521729e-01 1.263616681098937988e+00 8.939272761344909668e-01 -9.798302054405212402e-01 -6.250971555709838867e-02 1.298131227493286133e+00 6.174272671341896057e-02 -1.256598758697509766e+01
0.000000000000000000e+00 -5.330583080649375916e-02 5.752427969127893448e-03 7.447476983070373535e-01 5.368932615965604782e-03 -5.553010702133178711e-01 1.917475950904190540e-03 1.263616681098937988e+00 -3.834952076431363821e-04 1.603009849786758423e-01 1.262849688529968262e+00 8.927768468856811523e-01 -9.798302054405212402e-01 -6.250971555709838867e-02 1.299665212631225586e+00 6.174272671341896057e-02 -1.256598758697509766e+01
0.000000000000000000e+00 -5.253884196281433105e-02 5.752427969127893448e-03 7.447476983070373535e-01 5.752427969127893448e-03 -5.549175739288330078e-01 1.533980830572545528e-03 1.263616681098937988e+00 -3.834952076431363821e-04 1.603009849786758423e-01 1.260932207107543945e+00 8.920098543167114258e-01 -9.798302054405212402e-01 -6.250971555709838867e-02 1.301199197769165039e+00 6.250971555709838867e-02 -1.256598758697509766e+01
0.000000000000000000e+00 -5.253884196281433105e-02 4.985437728464603424e-03 7.443642020225524902e-01 5.752427969127893448e-03 -5.549175739288330078e-01 2.684466307982802391e-03 1.264383673667907715e+00 -3.834952076431363821e-04 1.599175035953521729e-01 1.260932207107543945e+00 8.897088766098022461e-01 -9.802137017250061035e-01 -6.327670812606811523e-02 1.303116679191589355e+00 6.174272671341896057e-02 -1.256598758697509766e+01
0.000000000000000000e+00 -5.292233824729919434e-02 6.135923322290182114e-03 7.447476983070373535e-01 5.368932615965604782e-03 -5.553010702133178711e-01 1.917475950904190540e-03 1.264383673667907715e+00 -1.150485593825578690e-03 1.599175035953521729e-01 1.258631229400634766e+00 8.900923728942871094e-01 -9.809806942939758301e-01 -6.212622299790382385e-02 1.304650664329528809e+00 6.250971555709838867e-02 -1.256598758697509766e+01
0.000000000000000000e+00 -5.330583080649375916e-02 5.368932615965604782e-03 7.447476983070373535e-01 5.752427969127893448e-03 -5.556845664978027344e-01 1.917475950904190540e-03 1.264000177383422852e+00 -3.834952076431363821e-04 1.610679775476455688e-01 1.257097244262695312e+00 8.893253803253173828e-01 -9.809806942939758301e-01 -6.250971555709838867e-02 1.307335138320922852e+00 6.250971555709838867e-02 -1.256598758697509766e+01
0.000000000000000000e+00 -5.253884196281433105e-02 6.135923322290182114e-03 7.447476983070373535e-01 5.368932615965604782e-03 -5.545340776443481445e-01 1.533980830572545528e-03 1.264383673667907715e+00 0.000000000000000000e+00 1.599175035953521729e-01 1.255563259124755859e+00 8.877913951873779297e-01 -9.813641905784606934e-01 -6.250971555709838867e-02 1.309252619743347168e+00 6.174272671341896057e-02 -1.256598758697509766e+01
0.000000000000000000e+00 -5.292233824729919434e-02 5.752427969127893448e-03 7.447476983070373535e-01 5.368932615965604782e-03 -5.549175739288330078e-01 1.533980830572545528e-03 1.264383673667907715e+00 -1.533980830572545528e-03 1.595340073108673096e-01 1.253645777702331543e+00 8.874078989028930664e-01 -9.821311831474304199e-01 -6.327670812606811523e-02 1.310786604881286621e+00 6.174272671341896057e-02 -1.256598758697509766e+01
0.000000000000000000e+00 -5.292233824729919434e-02 6.135923322290182114e-03 7.447476983070373535e-01 5.368932615965604782e-03 -5.545340776443481445e-01 1.917475950904190540e-03 1.264383673667907715e+00 -1.150485593825578690e-03 1.603009849786758423e-01 1.252495288848876953e+00 8.858739137649536133e-01 -9.825146794319152832e-01 -6.289321184158325195e-02 1.313087582588195801e+00 6.174272671341896057e-02 -1.256598758697509766e+01
0.000000000000000000e+00 -5.253884196281433105e-02 6.135923322290182114e-03 7.435972094535827637e-01 5.752427969127893448e-03 -5.545340776443481445e-01 1.917475950904190540e-03 1.264383673667907715e+00 -7.669904152862727642e-04 1.599175035953521729e-01 1.251728296279907227e+00 8.847234249114990234e-01 -9.836651682853698730e-01 -6.327670812606811523e-02 1.313854575157165527e+00 6.212622299790382385e-02 -1.256598758697509766e+01
0.000000000000000000e+00 -5.253884196281433105e-02 5.368932615965604782e-03 7.443642020225524902e-01 5.368932615965604782e-03 -5.549175739288330078e-01 1.533980830572545528e-03 1.264000177383422852e+00 -7.669904152862727642e-04 1.606844812631607056e-01 1.250577807426452637e+00 8.831894397735595703e-01 -9.848156571388244629e-01 -6.327670812606811523e-02 1.314238071441650391e+00 6.174272671341896057e-02 -1.256598758697509766e+01
0.000000000000000000e+00 -5.253884196281433105e-02 6.135923322290182114e-03 7.443642020225524902e-01 5.368932615965604782e-03 -5.549175739288330078e-01 1.917475950904190540e-03 1.264767169952392578e+00 -1.150485593825578690e-03 1.599175035953521729e-01 1.248276829719543457e+00 8.824224472045898438e-01 -9.859661459922790527e-01 -6.327670812606811523e-02 1.314621567726135254e+00 6.174272671341896057e-02 -1.256598758697509766e+01
0.000000000000000000e+00 -5.292233824729919434e-02 6.135923322290182114e-03 7.451311945915222168e-01 4.985437728464603424e-03 -5.553010702133178711e-01 1.917475950904190540e-03 1.263233184814453125e+00 -3.834952076431363821e-04 1.603009849786758423e-01 1.247126340866088867e+00 8.808884620666503906e-01 -9.863496422767639160e-01 -6.366020441055297852e-02 1.315772056579589844e+00 6.212622299790382385e-02 -1.256598758697509766e+01
0.000000000000000000e+00 -5.292233824729919434e-02 6.519418209791183472e-03 7.447476983070373535e-01 5.752427969127893448e-03 -5.553010702133178711e-01 2.300971187651157379e-03 1.263233184814453125e+00 -3.834952076431363821e-04 1.603009849786758423e-01 1.245592355728149414e+00 8.797379732131958008e-01 -9.871166348457336426e-01 -6.250971555709838867e-02 1.316539049148559570e+00 6.174272671341896057e-02 -1.256598758697509766e+01
0.000000000000000000e+00 -5.253884196281433105e-02 6.135923322290182114e-03 7.435972094535827637e-01 5.752427969127893448e-03 -5.553010702133178711e-01 2.300971187651157379e-03 1.263233184814453125e+00 -3.834952076431363821e-04 1.606844812631607056e-01 1.244441866874694824e+00 8.770534992218017578e-01 -9.882671236991882324e-01 -6.289321184158325195e-02 1.316539049148559570e+00 6.097573786973953247e-02 -1.256598758697509766e+01
0.000000000000000000e+00 -5.253884196281433105e-02 6.135923322290182114e-03 7.451311945915222168e-01 5.368932615965604782e-03 -5.545340776443481445e-01 1.533980830572545528e-03 1.264383673667907715e+00 0.000000000000000000e+00 1.603009849786758423e-01 1.242524385452270508e+00 8.762865066528320312e-01 -9.890341162681579590e-01 -6.289321184158325195e-02 1.316922545433044434e+00 6.135923042893409729e-02 -1.256598758697509766e+01
0.000000000000000000e+00 -5.253884196281433105e-02 5.752427969127893448e-03 7.447476983070373535e-01 5.368932615965604782e-03 -5.549175739288330078e-01 2.300971187651157379e-03 1.264383673667907715e+00 -1.150485593825578690e-03 1.603009849786758423e-01 1.240223407745361328e+00 8.743690252304077148e-01 -9.901846051216125488e-01 -6.250971555709838867e-02 1.317689538002014160e+00 6.212622299790382385e-02 -1.256598758697509766e+01
0.000000000000000000e+00 -5.292233824729919434e-02 5.752427969127893448e-03 7.443642020225524902e-01 5.368932615965604782e-03 -5.549175739288330078e-01 2.300971187651157379e-03 1.264000177383422852e+00 -1.150485593825578690e-03 1.599175035953521729e-01 1.236772060394287109e+00 8.724515438079833984e-01 -9.905681014060974121e-01 -6.289321184158325195e-02 1.318456530570983887e+00 6.135923042893409729e-02 -1.256598758697509766e+01
0.000000000000000000e+00 -5.253884196281433105e-02 5.368932615965604782e-03 7.443642020225524902e-01 5.368932615965604782e-03 -5.549175739288330078e-01 2.300971187651157379e-03 1.264383673667907715e+00 -3.834952076431363821e-04 1.595340073108673096e-01 1.236388564109802246e+00 8.713011145591735840e-01 -9.924855828285217285e-01 -6.212622299790382385e-02 1.319607019424438477e+00 6.097573786973953247e-02 -1.256598758697509766e+01
0.000000000000000000e+00 -5.253884196281433105e-02 5.752427969127893448e-03 7.443642020225524902e-01 4.985437728464603424e-03 -5.541505813598632812e-01 2.300971187651157379e-03 1.264383673667907715e+00 -7.669904152862727642e-04 1.599175035953521729e-01 1.234087586402893066e+00 8.690001368522644043e-01 -9.940195679664611816e-01 -6.327670812606811523e-02 1.319990515708923340e+00 6.097573786973953247e-02 -1.256598758697509766e+01
0.000000000000000000e+00 -5.292233824729919434e-02 5.752427969127893448e-03 7.447476983070373535e-01 5.368932615965604782e-03 -5.553010702133178711e-01 1.533980830572545528e-03 1.264383673667907715e+00 -3.834952076431363821e-04 1.606844812631607056e-01 1.231403112411499023e+00 8.674661517143249512e-01 -9.951700568199157715e-01 -6.250971555709838867e-02 1.320757508277893066e+00 5.982524901628494263e-02 -1.256598758697509766e+01
0.000000000000000000e+00 -5.177185311913490295e-02 5.752427969127893448e-03 7.447476983070373535e-01 5.752427969127893448e-03 -5.553010702133178711e-01 3.067961661145091057e-03 1.263616681098937988e+00 -7.669904152862727642e-04 1.603009849786758423e-01 1.231019616127014160e+00 8.659321665763854980e-01 -9.963205456733703613e-01 -6.212622299790382385e-02 1.320374011993408203e+00 5.752427875995635986e-02 -1.256598758697509766e+01
0.000000000000000000e+00 -5.253884196281433105e-02 6.135923322290182114e-03 7.443642020225524902e-01 5.368932615965604782e-03 -5.549175739288330078e-01 1.917475950904190540e-03 1.263616681098937988e+00 -7.669904152862727642e-04 1.603009849786758423e-01 1.228718638420104980e+00 8.628641963005065918e-01 -9.978545308113098145e-01 -6.250971555709838867e-02 1.321141004562377930e+00 5.522330850362777710e-02 -1.256598758697509766e+01
0.000000000000000000e+00 -5.292233824729919434e-02 5.752427969127893448e-03 7.443642020225524902e-01 5.368932615965604782e-03 -5.549175739288330078e-01 2.300971187651157379e-03 1.264383673667907715e+00 0.000000000000000000e+00 1.610679775476455688e-01 1.227951645851135254e+00 8.613302111625671387e-01 -9.993884563446044922e-01 -6.289321184158325195e-02 1.321141004562377930e+00 5.253884196281433105e-02 -1.256598758697509766e+01
0.000000000000000000e+00 -5.253884196281433105e-02 6.135923322290182114e-03 7.443642020225524902e-01 5.368932615965604782e-03 -5.545340776443481445e-01 1.533980830572545528e-03 1.264000177383422852e+00 -3.834952076431363821e-04 1.599175035953521729e-01 1.226034164428710938e+00 8.597962260246276855e-01 -1.001689434051513672e+00 -6.327670812606811523e-02 1.322291493415832520e+00 5.023787170648574829e-02 -1.256598758697509766e+01
0.000000000000000000e+00 -5.253884196281433105e-02 5.752427969127893448e-03 7.443642020225524902e-01 5.752427969127893448e-03 -5.549175739288330078e-01 2.300971187651157379e-03 1.264383673667907715e+00 -7.669904152862727642e-04 1.603009849786758423e-01 1.224883675575256348e+00 8.563447594642639160e-01 -1.003223419189453125e+00 -6.212622299790382385e-02 1.322674989700317383e+00 4.985437542200088501e-02 -1.256598758697509766e+01
0.000000000000000000e+00 -5.253884196281433105e-02 6.135923322290182114e-03 7.447476983070373535e-01 5.368932615965604782e-03 -5.549175739288330078e-01 1.917475950904190540e-03 1.263616681098937988e+00 0.000000000000000000e+00 1.599175035953521729e-01 1.222582697868347168e+00 8.536602854728698730e-01 -1.004757404327392578e+00 -6.212622299790382385e-02 1.323441982269287109e+00 4.947087913751602173e-02 -1.256598758697509766e+01
0.000000000000000000e+00 -5.292233824729919434e-02 5.368932615965604782e-03 7.443642020225524902e-01 5.368932615965604782e-03 -5.553010702133178711e-01 2.300971187651157379e-03 1.264383673667907715e+00 -7.669904152862727642e-04 1.599175035953521729e-01 1.221815705299377441e+00 8.521263003349304199e-01 -1.007058382034301758e+00 -6.212622299790382385e-02 1.323825478553771973e+00 4.870389029383659363e-02 -1.256598758697509766e+01
0.000000000000000000e+00 -5.292233824729919434e-02 6.135923322290182114e-03 7.447476983070373535e-01 5.368932615965604782e-03 -5.553010702133178711e-01 3.067961661145091057e-03 1.264000177383422852e+00 -7.669904152862727642e-04 1.606844812631607056e-01 1.219514727592468262e+00 8.494418859481811523e-01 -1.008592367172241211e+00 -6.212622299790382385e-02 1.324592351913452148e+00 4.908738657832145691e-02 -1.256598758697509766e+01
0.000000000000000000e+00 -5.292233824729919434e-02 6.135923322290182114e-03 7.447476983070373535e-01 5.368932615965604782e-03 -5.549175739288330078e-01 1.917475950904190540e-03 1.264000177383422852e+00 -7.669904152862727642e-04 1.606844812631607056e-01 1.218364238739013672e+00 8.467574119567871094e-01 -1.010893344879150391e+00 -6.250971555709838867e-02 1.324592351913452148e+00 4.908738657832145691e-02 -1.256598758697509766e+01
0.000000000000000000e+00 -5.253884196281433105e-02 5.752427969127893448e-03 7.447476983070373535e-01 5.752427969127893448e-03 -5.549175739288330078e-01 1.533980830572545528e-03 1.263616681098937988e+00 -1.150485593825578690e-03 1.606844812631607056e-01 1.217597246170043945e+00 8.448399305343627930e-01 -1.013577818870544434e+00 -6.250971555709838867e-02 1.325359344482421875e+00 4.908738657832145691e-02 -1.256598758697509766e+01
0.000000000000000000e+00 -5.330583080649375916e-02 6.135923322290182114e-03 7.435972094535827637e-01 5.752427969127893448e-03 -5.549175739288330078e-01 1.917475950904190540e-03 1.264000177383422852e+00 -7.669904152862727642e-04 1.603009849786758423e-01 1.215679764747619629e+00 8.421554565429687500e-01 -1.015495300292968750e+00 -6.250971555709838867e-02 1.326126337051391602e+00 4.870389029383659363e-02 -1.256598758697509766e+01
0.000000000000000000e+00 -5.292233824729919434e-02 6.519418209791183472e-03 7.443642020225524902e-01 5.368932615965604782e-03 -5.549175739288330078e-01 2.300971187651157379e-03 1.264000177383422852e+00 -7.669904152862727642e-04 1.610679775476455688e-01 1.214912772178649902e+00 8.394709825515747070e-01 -1.018179774284362793e+00 -6.250971555709838867e-02 1.326509833335876465e+00 4.870389029383659363e-02 -1.256598758697509766e+01
0.000000000000000000e+00 -5.292233824729919434e-02 6.135923322290182114e-03 7.447476983070373535e-01 5.752427969127893448e-03 -5.545340776443481445e-01 1.533980830572545528e-03 1.263616681098937988e+00 -7.669904152862727642e-04 1.595340073108673096e-01 1.214529275894165039e+00 8.371700048446655273e-01 -1.020480751991271973e+00 -6.289321184158325195e-02 1.326126337051391602e+00 4.832039400935173035e-02 -1.256598758697509766e+01
0.000000000000000000e+00 -5.253884196281433105e-02 6.135923322290182114e-03 7.447476983070373535e-01 5.368932615965604782e-03 -5.545340776443481445e-01 1.533980830572545528e-03 1.264000177383422852e+00 -7.669904152862727642e-04 1.606844812631607056e-01 1.212228298187255859e+00 8.341020345687866211e-01 -1.023548722267150879e+00 -6.250971555709838867e-02 1.326509833335876465e+00 4.793690145015716553e-02 -1.256598758697509766e+01
0.000000000000000000e+00 -5.253884196281433105e-02 6.135923322290182114e-03 7.447476983070373535e-01 5.368932615965604782e-03 -5.549175739288330078e-01 2.300971187651157379e-03 1.264767169952392578e+00 -1.150485593825578690e-03 1.599175035953521729e-01 1.212611794471740723e+00 8.318010568618774414e-01 -1.025082707405090332e+00 -6.289321184158325195e-02 1.327276825904846191e+00 4.716990888118743896e-02 -1.256598758697509766e+01
0.000000000000000000e+00 -5.292233824729919434e-02 6.135923322290182114e-03 7.447476983070373535e-01 5.752427969127893448e-03 -5.553010702133178711e-01 1.917475950904190540e-03 1.264383673667907715e+00 -3.834952076431363821e-04 1.599175035953521729e-01 1.211844801902770996e+00 8.291166424751281738e-01 -1.028534173965454102e+00 -6.212622299790382385e-02 1.327660322189331055e+00 4.678641259670257568e-02 -1.256598758697509766e+01
0.000000000000000000e+00 -5.292233824729919434e-02 5.752427969127893448e-03 7.447476983070373535e-01 5.368932615965604782e-03 -5.549175739288330078e-01 1.917475950904190540e-03 1.264383673667907715e+00 -7.669904152862727642e-04 1.580000221729278564e-01 1.211461305618286133e+00 8.264321684837341309e-01 -1.030835032463073730e+00 -6.250971555709838867e-02 1.328427314758300781e+00 4.563592746853828430e-02 -1.256598758697509766e+01
0.000000000000000000e+00 -5.292233824729919434e-02 6.135923322290182114e-03 7.451311945915222168e-01 5.368932615965604782e-03 -5.549175739288330078e-01 2.300971187651157379e-03 1.264000177383422852e+00 -1.150485593825578690e-03 1.583835184574127197e-01 1.211077809333801270e+00 8.233641982078552246e-01 -1.033519506454467773e+00 -6.212622299790382385e-02 1.329961299896240234e+00 4.448544234037399292e-02 -1.256598758697509766e+01
0.000000000000000000e+00 -5.215534567832946777e-02 6.519418209791183472e-03 7.447476983070373535e-01 5.752427969127893448e-03 -5.549175739288330078e-01 1.917475950904190540e-03 1.264383673667907715e+00 -3.834952076431363821e-04 1.591505110263824463e-01 1.211461305618286133e+00 8.199127316474914551e-01 -1.036970973014831543e+00 -6.327670812606811523e-02 1.329961299896240234e+00 4.256796836853027344e-02 -1.256598758697509766e+01
0.000000000000000000e+00 -5.253884196281433105e-02 6.135923322290182114e-03 7.451311945915222168e-01 4.985437728464603424e-03 -5.553010702133178711e-01 2.300971187651157379e-03 1.264000177383422852e+00 0.000000000000000000e+00 1.583835184574127197e-01 1.211461305618286133e+00 8.179952502250671387e-01 -1.039271950721740723e+00 -6.289321184158325195e-02 1.331111788749694824e+00 4.103398695588111877e-02 -1.256598758697509766e+01
0.000000000000000000e+00 -5.253884196281433105e-02 5.752427969127893448e-03 7.447476983070373535e-01 5.368932615965604782e-03 -5.553010702133178711e-01 1.917475950904190540e-03 1.264000177383422852e+00 -7.669904152862727642e-04 1.591505110263824463e-01 1.210694313049316406e+00 8.145437836647033691e-01 -1.041956424713134766e+00 -6.289321184158325195e-02 1.332262277603149414e+00 3.873301669955253601e-02 -1.256598758697509766e+01
0.000000000000000000e+00 -5.253884196281433105e-02 6.519418209791183472e-03 7.443642020225524902e-01 5.368932615965604782e-03 -5.549175739288330078e-01 1.917475950904190540e-03 1.263616681098937988e+00 -1.533980830572545528e-03 1.580000221729278564e-01 1.210310816764831543e+00 8.118593096733093262e-01 -1.045791387557983398e+00 -6.289321184158325195e-02 1.332262277603149414e+00 3.604855015873908997e-02 -1.256598758697509766e+01
0.000000000000000000e+00 -5.292233824729919434e-02 6.902913562953472137e-03 7.443642020225524902e-01 5.752427969127893448e-03 -5.549175739288330078e-01 2.300971187651157379e-03 1.264000177383422852e+00 -7.669904152862727642e-04 1.580000221729278564e-01 1.210310816764831543e+00 8.080244064331054688e-01 -1.048475861549377441e+00 -6.212622299790382385e-02 1.333029270172119141e+00 3.298058733344078064e-02 -1.256598758697509766e+01
0.000000000000000000e+00 -5.292233824729919434e-02 6.519418209791183472e-03 7.443642020225524902e-01 5.752427969127893448e-03 -5.545340776443481445e-01 2.300971187651157379e-03 1.264000177383422852e+00 0.000000000000000000e+00 1.576165258884429932e-01 1.211461305618286133e+00 8.049564361572265625e-01 -1.051160335540771484e+00 -6.250971555709838867e-02 1.333412766456604004e+00 3.106311149895191193e-02 -1.256598758697509766e+01
0.000000000000000000e+00 -5.292233824729919434e-02 6.135923322290182114e-03 7.447476983070373535e-01 4.985437728464603424e-03 -5.549175739288330078e-01 1.917475950904190540e-03 1.263233184814453125e+00 -7.669904152862727642e-04 1.580000221729278564e-01 1.211077809333801270e+00 8.003544807434082031e-01 -1.054228305816650391e+00 -6.250971555709838867e-02 1.334179759025573730e+00 2.799514867365360260e-02 -1.256598758697509766e+01
0.000000000000000000e+00 -5.330583080649375916e-02 6.135923322290182114e-03 7.435972094535827637e-01 4.985437728464603424e-03 -5.549175739288330078e-01 1.917475950904190540e-03 1.264383673667907715e+00 -3.834952076431363821e-04 1.583835184574127197e-01 1.211077809333801270e+00 7.972865104675292969e-01 -1.057296276092529297e+00 -6.250971555709838867e-02 1.335713744163513184e+00 2.531068213284015656e-02 -1.256598758697509766e+01
0.000000000000000000e+00 -5.292233824729919434e-02 6.135923322290182114e-03 7.447476983070373535e-01 4.985437728464603424e-03 -5.549175739288330078e-01 1.917475950904190540e-03 1.264000177383422852e+00 7.669904152862727642e-04 1.580000221729278564e-01 1.211461305618286133e+00 7.938350439071655273e-01 -1.060364246368408203e+00 -6.366020441055297852e-02 1.336097240447998047e+00 2.070873975753784180e-02 -1.256598758697509766e+01
0.000000000000000000e+00 -5.292233824729919434e-02 5.368932615965604782e-03 7.443642020225524902e-01 5.752427969127893448e-03 -5.549175739288330078e-01 1.917475950904190540e-03 1.264767169952392578e+00 -3.834952076431363821e-04 1.580000221729278564e-01 1.211461305618286133e+00 7.900000810623168945e-01 -1.063048720359802246e+00 -6.327670812606811523e-02 1.337247729301452637e+00 1.764077879488468170e-02 -1.256598758697509766e+01
0.000000000000000000e+00 -5.215534567832946777e-02 5.752427969127893448e-03 7.435972094535827637e-01 5.368932615965604782e-03 -5.553010702133178711e-01 1.533980830572545528e-03 1.264383673667907715e+00 -3.834952076431363821e-04 1.583835184574127197e-01 1.211844801902770996e+00 7.865486741065979004e-01 -1.067267179489135742e+00 -6.289321184158325195e-02 1.337631225585937500e+00 1.457281783223152161e-02 -1.256598758697509766e+01
0.000000000000000000e+00 -5.330583080649375916e-02 6.135923322290182114e-03 7.447476983070373535e-01 5.368932615965604782e-03 -5.553010702133178711e-01 1.917475950904190540e-03 1.264383673667907715e+00 0.000000000000000000e+00 1.583835184574127197e-01 1.211077809333801270e+00 7.823302149772644043e-01 -1.069184660911560059e+00 -6.250971555709838867e-02 1.338781714439392090e+00 9.970875456929206848e-03 -1.256598758697509766e+01
0.000000000000000000e+00 -5.253884196281433105e-02 5.752427969127893448e-03 7.447476983070373535e-01 4.985437728464603424e-03 -5.545340776443481445e-01 2.300971187651157379e-03 1.264383673667907715e+00 -7.669904152862727642e-04 1.580000221729278564e-01 1.211077809333801270e+00 7.788787484169006348e-01 -1.071485638618469238e+00 -6.289321184158325195e-02 1.339548707008361816e+00 6.519418209791183472e-03 -1.256598758697509766e+01
0.000000000000000000e+00 -5.215534567832946777e-02 5.752427969127893448e-03 7.447476983070373535e-01 4.985437728464603424e-03 -5.541505813598632812e-01 1.917475950904190540e-03 1.264000177383422852e+00 -3.834952076431363821e-04 1.591505110263824463e-01 1.210694313049316406e+00 7.754272818565368652e-01 -1.074553489685058594e+00 -6.327670812606811523e-02 1.340699195861816406e+00 2.684466307982802391e-03 -1.256598758697509766e+01
0.000000000000000000e+00 -5.253884196281433105e-02 6.519418209791183472e-03 7.447476983070373535e-01 5.368932615965604782e-03 -5.545340776443481445e-01 2.300971187651157379e-03 1.264000177383422852e+00 -3.834952076431363821e-04 1.580000221729278564e-01 1.210310816764831543e+00 7.719758152961730957e-01 -1.077621459960937500e+00 -6.289321184158325195e-02 1.340315699577331543e+00 -7.669904152862727642e-04 -1.256598758697509766e+01
0.000000000000000000e+00 -5.253884196281433105e-02 6.135923322290182114e-03 7.443642020225524902e-01 5.752427969127893448e-03 -5.545340776443481445e-01 1.917475950904190540e-03 1.264383673667907715e+00 -7.669904152862727642e-04 1.583835184574127197e-01 1.211077809333801270e+00 7.677573561668395996e-01 -1.079155445098876953e+00 -6.250971555709838867e-02 1.341082692146301270e+00 -4.985437728464603424e-03 -1.256598758697509766e+01
0.000000000000000000e+00 -5.253884196281433105e-02 5.752427969127893448e-03 7.443642020225524902e-01 4.985437728464603424e-03 -5.549175739288330078e-01 2.300971187651157379e-03 1.264767169952392578e+00 -7.669904152862727642e-04 1.587670147418975830e-01 1.211077809333801270e+00 7.643059492111206055e-01 -1.082606911659240723e+00 -6.289321184158325195e-02 1.340315699577331543e+00 -8.820389397442340851e-03 -1.256598758697509766e+01
0.000000000000000000e+00 -5.330583080649375916e-02 5.752427969127893448e-03 7.447476983070373535e-01 5.368932615965604782e-03 -5.553010702133178711e-01 2.684466307982802391e-03 1.264000177383422852e+00 -1.533980830572545528e-03 1.583835184574127197e-01 1.211077809333801270e+00 7.604709863662719727e-01 -1.084907889366149902e+00 -6.250971555709838867e-02 1.340315699577331543e+00 -1.188835129141807556e-02 -1.256598758697509766e+01
