0.000000000000000000e+00 -5.215534567832946777e-02 3.834951901808381081e-03 7.447476983070373535e-01 5.752427969127893448e-03 -5.545340776443481445e-01 1.917475950904190540e-03 1.264000177383422852e+00 0.000000000000000000e+00 1.626019626855850220e-01 1.265917658805847168e+00 9.019806981086730957e-01 -9.775292277336120605e-01 -6.212622299790382385e-02 1.294296264648437500e+00 6.174272671341896057e-02 -1.256598758697509766e+01
0.000000000000000000e+00 -5.253884196281433105e-02 4.985437728464603424e-03 7.451311945915222168e-01 5.752427969127893448e-03 -5.549175739288330078e-01 2.684466307982802391e-03 1.263616681098937988e+00 -7.669904152862727642e-04 1.618349701166152954e-01 1.264767169952392578e+00 9.027476906776428223e-01 -9.775292277336120605e-01 -6.174272671341896057e-02 1.295063257217407227e+00 6.174272671341896057e-02 -1.256598758697509766e+01
0.000000000000000000e+00 -5.253884196281433105e-02 5.368932615965604782e-03 7.447476983070373535e-01 4.985437728464603424e-03 -5.549175739288330078e-01 1.150485593825578690e-03 1.264000177383422852e+00 0.000000000000000000e+00 1.626019626855850220e-01 1.264767169952392578e+00 9.019806981086730957e-01 -9.782962203025817871e-01 -6.135923042893409729e-02 1.293912768363952637e+00 6.135923042893409729e-02 -1.256598758697509766e+01
0.000000000000000000e+00 -5.253884196281433105e-02 4.218447022140026093e-03 7.451311945915222168e-01 5.368932615965604782e-03 -5.549175739288330078e-01 2.300971187651157379e-03 1.264000177383422852e+00 -3.834952076431363821e-04 1.622184664011001587e-01 1.265150666236877441e+00 9.031311869621276855e-01 -9.779127240180969238e-01 -6.250971555709838867e-02 1.294679760932922363e+00 6.212622299790382385e-02 -1.256598758697509766e+01
0.000000000000000000e+00 -5.292233824729919434e-02 4.985437728464603424e-03 7.443642020225524902e-01 4.985437728464603424e-03 -5.545340776443481445e-01 1.533980830572545528e-03 1.264000177383422852e+00 -7.669904152862727642e-04 1.629854589700698853e-01 1.265534162521362305e+00 9.019806981086730957e-01 -9.775292277336120605e-01 -6.174272671341896057e-02 1.294296264648437500e+00 6.135923042893409729e-02 -1.256598758697509766e+01
0.000000000000000000e+00 -5.292233824729919434e-02 4.985437728464603424e-03 7.443642020225524902e-01 5.752427969127893448e-03 -5.545340776443481445e-01 1.917475950904190540e-03 1.263616681098937988e+00 -7.669904152862727642e-04 1.626019626855850220e-01 1.265150666236877441e+00 9.023641943931579590e-01 -9.775292277336120605e-01 -6.212622299790382385e-02 1.294296264648437500e+00 6.212622299790382385e-02 -1.256598758697509766e+01
0.000000000000000000e+00 -5.253884196281433105e-02 4.985437728464603424e-03 7.447476983070373535e-01 4.985437728464603424e-03 -5.553010702133178711e-01 2.300971187651157379e-03 1.264383673667907715e+00 -1.150485593825578690e-03 1.626019626855850220e-01 1.265150666236877441e+00 9.027476906776428223e-01 -9.779127240180969238e-01 -6.212622299790382385e-02 1.294296264648437500e+00 6.135923042893409729e-02 -1.256598758697509766e+01
0.000000000000000000e+00 -5.253884196281433105e-02 5.368932615965604782e-03 7.435972094535827637e-01 4.985437728464603424e-03 -5.549175739288330078e-01 1.917475950904190540e-03 1.264000177383422852e+00 0.000000000000000000e+00 1.626019626855850220e-01 1.264767169952392578e+00 9.031311869621276855e-01 -9.782962203025817871e-01 -6.212622299790382385e-02 1.294679760932922363e+00 6.174272671341896057e-02 -1.256598758697509766e+01
0.000000000000000000e+00 -5.253884196281433105e-02 4.985437728464603424e-03 7.447476983070373535e-01 5.752427969127893448e-03 -5.549175739288330078e-01 1.917475950904190540e-03 1.264383673667907715e+00 -7.669904152862727642e-04 1.626019626855850220e-01 1.264767169952392578e+00 9.027476906776428223e-01 -9.775292277336120605e-01 -6.212622299790382385e-02 1.294296264648437500e+00 6.135923042893409729e-02 -1.256598758697509766e+01
0.000000000000000000e+00 -5.253884196281433105e-02 4.985437728464603424e-03 7.447476983070373535e-01 4.985437728464603424e-03 -5.549175739288330078e-01 2.300971187651157379e-03 1.263616681098937988e+00 -3.834952076431363821e-04 1.626019626855850220e-01 1.264383673667907715e+00 9.031311869621276855e-01 -9.771457910537719727e-01 -6.212622299790382385e-02 1.294679760932922363e+00 6.135923042893409729e-02 -1.256598758697509766e+01
0.000000000000000000e+00 -5.292233824729919434e-02 4.601942375302314758e-03 7.443642020225524902e-01 5.368932615965604782e-03 -5.541505813598632812e-01 1.917475950904190540e-03 1.264000177383422852e+00 -7.669904152862727642e-04 1.626019626855850220e-01 1.265917658805847168e+00 9.023641943931579590e-01 -9.775292277336120605e-01 -6.250971555709838867e-02 1.294296264648437500e+00 6.212622299790382385e-02 -1.256598758697509766e+01
0.000000000000000000e+00 -5.253884196281433105e-02 4.985437728464603424e-03 7.447476983070373535e-01 5.368932615965604782e-03 -5.549175739288330078e-01 2.300971187651157379e-03 1.264767169952392578e+00 -3.834952076431363821e-04 1.629854589700698853e-01 1.265534162521362305e+00 9.023641943931579590e-01 -9.775292277336120605e-01 -6.174272671341896057e-02 1.295063257217407227e+00 6.212622299790382385e-02 -1.256598758697509766e+01
0.000000000000000000e+00 -5.292233824729919434e-02 4.985437728464603424e-03 7.443642020225524902e-01 5.368932615965604782e-03 -5.553010702133178711e-01 2.684466307982802391e-03 1.263616681098937988e+00 -3.834952076431363821e-04 1.622184664011001587e-01 1.265534162521362305e+00 9.031311869621276855e-01 -9.775292277336120605e-01 -6.174272671341896057e-02 1.294296264648437500e+00 6.174272671341896057e-02 -1.256598758697509766e+01
0.000000000000000000e+00 -5.215534567832946777e-02 4.985437728464603424e-03 7.451311945915222168e-01 4.601942375302314758e-03 -5.553010702133178711e-01 1.533980830572545528e-03 1.263616681098937988e+00 -7.669904152862727642e-04 1.618349701166152954e-01 1.265150666236877441e+00 9.019806981086730957e-01 -9.779127240180969238e-01 -6.250971555709838867e-02 1.294679760932922363e+00 6.174272671341896057e-02 -1.256598758697509766e+01
0.000000000000000000e+00 -5.292233824729919434e-02 5.368932615965604782e-03 7.447476983070373535e-01 5.368932615965604782e-03 -5.549175739288330078e-01 2.300971187651157379e-03 1.264383673667907715e+00 -7.669904152862727642e-04 1.629854589700698853e-01 1.265150666236877441e+00 9.019806981086730957e-01 -9.775292277336120605e-01 -6.212622299790382385e-02 1.294679760932922363e+00 6.174272671341896057e-02 -1.256598758697509766e+01
0.000000000000000000e+00 -5.253884196281433105e-02 4.985437728464603424e-03 7.443642020225524902e-01 5.368932615965604782e-03 -5.541505813598632812e-01 1.917475950904190540e-03 1.264000177383422852e+00 -3.834952076431363821e-04 1.622184664011001587e-01 1.265534162521362305e+00 9.027476906776428223e-01 -9.786797165870666504e-01 -6.174272671341896057e-02 1.294296264648437500e+00 6.212622299790382385e-02 -1.256598758697509766e+01
0.000000000000000000e+00 -5.253884196281433105e-02 5.368932615965604782e-03 7.443642020225524902e-01 5.752427969127893448e-03 -5.545340776443481445e-01 1.917475950904190540e-03 1.264383673667907715e+00 -7.669904152862727642e-04 1.618349701166152954e-01 1.265534162521362305e+00 9.031311869621276855e-01 -9.779127240180969238e-01 -6.135923042893409729e-02 1.294679760932922363e+00 6.212622299790382385e-02 -1.256598758697509766e+01
0.000000000000000000e+00 -5.253884196281433105e-02 5.368932615965604782e-03 7.455146908760070801e-01 5.368932615965604782e-03 -5.549175739288330078e-01 1.917475950904190540e-03 1.264000177383422852e+00 -7.669904152862727642e-04 1.626019626855850220e-01 1.264383673667907715e+00 9.031311869621276855e-01 -9.779127240180969238e-01 -6.097573786973953247e-02 1.293912768363952637e+00 6.212622299790382385e-02 -1.256598758697509766e+01
0.000000000000000000e+00 -5.253884196281433105e-02 4.985437728464603424e-03 7.447476983070373535e-01 5.368932615965604782e-03 -5.553010702133178711e-01 2.300971187651157379e-03 1.264000177383422852e+00 -7.669904152862727642e-04 1.622184664011001587e-01 1.265150666236877441e+00 9.023641943931579590e-01 -9.782962203025817871e-01 -6.174272671341896057e-02 1.294296264648437500e+00 6.135923042893409729e-02 -1.256598758697509766e+01
0.000000000000000000e+00 -5.292233824729919434e-02 4.601942375302314758e-03 7.443642020225524902e-01 5.368932615965604782e-03 -5.541505813598632812e-01 1.917475950904190540e-03 1.264383673667907715e+00 -1.150485593825578690e-03 1.626019626855850220e-01 1.264767169952392578e+00 9.019806981086730957e-01 -9.779127240180969238e-01 -6.212622299790382385e-02 1.294679760932922363e+00 6.212622299790382385e-02 -1.256598758697509766e+01
0.000000000000000000e+00 -5.292233824729919434e-02 4.601942375302314758e-03 7.443642020225524902e-01 5.752427969127893448e-03 -5.549175739288330078e-01 1.917475950904190540e-03 1.263616681098937988e+00 -3.834952076431363821e-04 1.629854589700698853e-01 1.265150666236877441e+00 9.023641943931579590e-01 -9.786797165870666504e-01 -6.174272671341896057e-02 1.294679760932922363e+00 6.174272671341896057e-02 -1.256598758697509766e+01
0.000000000000000000e+00 -5.330583080649375916e-02 5.752427969127893448e-03 7.443642020225524902e-01 5.752427969127893448e-03 -5.556845664978027344e-01 1.533980830572545528e-03 1.263616681098937988e+00 -7.669904152862727642e-04 1.622184664011001587e-01 1.265150666236877441e+00 9.023641943931579590e-01 -9.779127240180969238e-01 -6.135923042893409729e-02 1.294296264648437500e+00 6.174272671341896057e-02 -1.256598758697509766e+01
0.000000000000000000e+00 -5.253884196281433105e-02 4.218447022140026093e-03 7.451311945915222168e-01 5.752427969127893448e-03 -5.553010702133178711e-01 2.300971187651157379e-03 1.263616681098937988e+00 -1.533980830572545528e-03 1.618349701166152954e-01 1.265150666236877441e+00 9.023641943931579590e-01 -9.775292277336120605e-01 -6.212622299790382385e-02 1.294296264648437500e+00 6.174272671341896057e-02 -1.256598758697509766e+01
0.000000000000000000e+00 -5.292233824729919434e-02 5.368932615965604782e-03 7.435972094535827637e-01 4.985437728464603424e-03 -5.549175739288330078e-01 1.917475950904190540e-03 1.264383673667907715e+00 -7.669904152862727642e-04 1.618349701166152954e-01 1.265150666236877441e+00 9.023641943931579590e-01 -9.775292277336120605e-01 -6.212622299790382385e-02 1.294679760932922363e+00 6.097573786973953247e-02 -1.256598758697509766e+01
0.000000000000000000e+00 -5.253884196281433105e-02 5.368932615965604782e-03 7.447476983070373535e-01 4.985437728464603424e-03 -5.541505813598632812e-01 1.533980830572545528e-03 1.264383673667907715e+00 -7.669904152862727642e-04 1.629854589700698853e-01 1.265534162521362305e+00 9.027476906776428223e-01 -9.782962203025817871e-01 -6.174272671341896057e-02 1.294679760932922363e+00 6.135923042893409729e-02 -1.256598758697509766e+01
0.000000000000000000e+00 -5.292233824729919434e-02 4.985437728464603424e-03 7.443642020225524902e-01 4.985437728464603424e-03 -5.541505813598632812e-01 2.300971187651157379e-03 1.264000177383422852e+00 -7.669904152862727642e-04 1.626019626855850220e-01 1.265534162521362305e+00 9.027476906776428223e-01 -9.775292277336120605e-01 -6.212622299790382385e-02 1.294296264648437500e+00 6.174272671341896057e-02 -1.256598758697509766e+01
0.000000000000000000e+00 -5.292233824729919434e-02 4.601942375302314758e-03 7.443642020225524902e-01 5.368932615965604782e-03 -5.545340776443481445e-01 1.917475950904190540e-03 1.264383673667907715e+00 -3.834952076431363821e-04 1.618349701166152954e-01 1.264383673667907715e+00 9.027476906776428223e-01 -9.782962203025817871e-01 -6.212622299790382385e-02 1.293912768363952637e+00 6.212622299790382385e-02 -1.256598758697509766e+01
0.000000000000000000e+00 -5.292233824729919434e-02 4.601942375302314758e-03 7.435972094535827637e-01 5.368932615965604782e-03 -5.545340776443481445e-01 2.300971187651157379e-03 1.264000177383422852e+00 -3.834952076431363821e-04 1.629854589700698853e-01 1.266301155090332031e+00 9.027476906776428223e-01 -9.775292277336120605e-01 -6.174272671341896057e-02 1.295063257217407227e+00 6.174272671341896057e-02 -1.256598758697509766e+01
0.000000000000000000e+00 -5.253884196281433105e-02 4.601942375302314758e-03 7.435972094535827637e-01 5.368932615965604782e-03 -5.545340776443481445e-01 2.300971187651157379e-03 1.263616681098937988e+00 0.000000000000000000e+00 1.626019626855850220e-01 1.265150666236877441e+00 9.019806981086730957e-01 -9.782962203025817871e-01 -6.135923042893409729e-02 1.294679760932922363e+00 6.097573786973953247e-02 -1.256598758697509766e+01
0.000000000000000000e+00 -5.215534567832946777e-02 4.218447022140026093e-03 7.447476983070373535e-01 5.368932615965604782e-03 -5.553010702133178711e-01 1.917475950904190540e-03 1.264000177383422852e+00 -1.533980830572545528e-03 1.626019626855850220e-01 1.265150666236877441e+00 9.023641943931579590e-01 -9.779127240180969238e-01 -6.250971555709838867e-02 1.294679760932922363e+00 6.212622299790382385e-02 -1.256598758697509766e+01
0.000000000000000000e+00 -5.253884196281433105e-02 4.601942375302314758e-03 7.443642020225524902e-01 5.368932615965604782e-03 -5.549175739288330078e-01 2.684466307982802391e-03 1.263616681098937988e+00 -7.669904152862727642e-04 1.626019626855850220e-01 1.264767169952392578e+00 9.023641943931579590e-01 -9.779127240180969238e-01 -6.097573786973953247e-02 1.293912768363952637e+00 6.174272671341896057e-02 -1.256598758697509766e+01
0.000000000000000000e+00 -5.253884196281433105e-02 4.601942375302314758e-03 7.443642020225524902e-01 5.368932615965604782e-03 -5.553010702133178711e-01 1.917475950904190540e-03 1.264000177383422852e+00 -1.150485593825578690e-03 1.622184664011001587e-01 1.264767169952392578e+00 9.019806981086730957e-01 -9.775292277336120605e-01 -6.174272671341896057e-02 1.294296264648437500e+00 6.135923042893409729e-02 -1.256598758697509766e+01
0.000000000000000000e+00 -5.215534567832946777e-02 4.218447022140026093e-03 7.447476983070373535e-01 4.985437728464603424e-03 -5.553010702133178711e-01 1.533980830572545528e-03 1.263616681098937988e+00 -7.669904152862727642e-04 1.618349701166152954e-01 1.264767169952392578e+00 9.031311869621276855e-01 -9.775292277336120605e-01 -6.250971555709838867e-02 1.295063257217407227e+00 6.174272671341896057e-02 -1.256598758697509766e+01
0.000000000000000000e+00 -5.292233824729919434e-02 4.601942375302314758e-03 7.435972094535827637e-01 5.752427969127893448e-03 -5.549175739288330078e-01 2.300971187651157379e-03 1.263233184814453125e+00 -3.834952076431363821e-04 1.618349701166152954e-01 1.264767169952392578e+00 9.023641943931579590e-01 -9.775292277336120605e-01 -6.174272671341896057e-02 1.294679760932922363e+00 6.212622299790382385e-02 -1.256598758697509766e+01
0.000000000000000000e+00 -5.253884196281433105e-02 5.368932615965604782e-03 7.432137131690979004e-01 5.368932615965604782e-03 -5.549175739288330078e-01 2.300971187651157379e-03 1.264000177383422852e+00 -3.834952076431363821e-04 1.622184664011001587e-01 1.265150666236877441e+00 9.023641943931579590e-01 -9.782962203025817871e-01 -6.250971555709838867e-02 1.295446753501892090e+00 6.174272671341896057e-02 -1.256598758697509766e+01
0.000000000000000000e+00 -5.253884196281433105e-02 4.985437728464603424e-03 7.443642020225524902e-01 5.368932615965604782e-03 -5.549175739288330078e-01 2.300971187651157379e-03 1.264000177383422852e+00 -1.150485593825578690e-03 1.626019626855850220e-01 1.265150666236877441e+00 9.023641943931579590e-01 -9.775292277336120605e-01 -6.212622299790382385e-02 1.295063257217407227e+00 6.212622299790382385e-02 -1.256598758697509766e+01
0.000000000000000000e+00 -5.253884196281433105e-02 4.985437728464603424e-03 7.432137131690979004e-01 5.368932615965604782e-03 -5.541505813598632812e-01 1.917475950904190540e-03 1.264000177383422852e+00 -1.150485593825578690e-03 1.629854589700698853e-01 1.264767169952392578e+00 9.023641943931579590e-01 -9.775292277336120605e-01 -6.174272671341896057e-02 1.294679760932922363e+00 6.212622299790382385e-02 -1.256598758697509766e+01
0.000000000000000000e+00 -5.253884196281433105e-02 4.985437728464603424e-03 7.435972094535827637e-01 4.985437728464603424e-03 -5.549175739288330078e-01 1.533980830572545528e-03 1.264383673667907715e+00 -7.669904152862727642e-04 1.626019626855850220e-01 1.264383673667907715e+00 9.023641943931579590e-01 -9.779127240180969238e-01 -6.174272671341896057e-02 1.295063257217407227e+00 6.212622299790382385e-02 -1.256598758697509766e+01
0.000000000000000000e+00 -5.292233824729919434e-02 5.752427969127893448e-03 7.451311945915222168e-01 5.368932615965604782e-03 -5.545340776443481445e-01 2.300971187651157379e-03 1.264000177383422852e+00 0.000000000000000000e+00 1.618349701166152954e-01 1.264767169952392578e+00 9.019806981086730957e-01 -9.775292277336120605e-01 -6.135923042893409729e-02 1.294296264648437500e+00 6.174272671341896057e-02 -1.256598758697509766e+01
0.000000000000000000e+00 -5.253884196281433105e-02 4.985437728464603424e-03 7.447476983070373535e-01 5.368932615965604782e-03 -5.545340776443481445e-01 1.917475950904190540e-03 1.264000177383422852e+00 -7.669904152862727642e-04 1.618349701166152954e-01 1.264767169952392578e+00 9.023641943931579590e-01 -9.782962203025817871e-01 -6.174272671341896057e-02 1.295063257217407227e+00 6.135923042893409729e-02 -1.256598758697509766e+01
0.000000000000000000e+00 -5.253884196281433105e-02 4.601942375302314758e-03 7.443642020225524902e-01 5.752427969127893448e-03 -5.549175739288330078e-01 1.917475950904190540e-03 1.264000177383422852e+00 -3.834952076431363821e-04 1.626019626855850220e-01 1.264767169952392578e+00 9.023641943931579590e-01 -9.782962203025817871e-01 -6.174272671341896057e-02 1.294296264648437500e+00 6.212622299790382385e-02 -1.256598758697509766e+01
0.000000000000000000e+00 -5.330583080649375916e-02 4.601942375302314758e-03 7.447476983070373535e-01 5.368932615965604782e-03 -5.553010702133178711e-01 1.917475950904190540e-03 1.263616681098937988e+00 -3.834952076431363821e-04 1.622184664011001587e-01 1.264767169952392578e+00 9.023641943931579590e-01 -9.779127240180969238e-01 -6.212622299790382385e-02 1.294296264648437500e+00 6.097573786973953247e-02 -1.256598758697509766e+01
0.000000000000000000e+00 -5.253884196281433105e-02 4.985437728464603424e-03 7.447476983070373535e-01 5.752427969127893448e-03 -5.553010702133178711e-01 2.300971187651157379e-03 1.264767169952392578e+00 -7.669904152862727642e-04 1.626019626855850220e-01 1.265150666236877441e+00 9.023641943931579590e-01 -9.775292277336120605e-01 -6.174272671341896057e-02 1.294679760932922363e+00 6.174272671341896057e-02 -1.256598758697509766e+01
0.000000000000000000e+00 -5.330583080649375916e-02 4.601942375302314758e-03 7.443642020225524902e-01 5.752427969127893448e-03 -5.553010702133178711e-01 1.533980830572545528e-03 1.264000177383422852e+00 -7.669904152862727642e-04 1.622184664011001587e-01 1.264767169952392578e+00 9.027476906776428223e-01 -9.775292277336120605e-01 -6.174272671341896057e-02 1.294679760932922363e+00 6.174272671341896057e-02 -1.256598758697509766e+01
0.000000000000000000e+00 -5.292233824729919434e-02 4.601942375302314758e-03 7.435972094535827637e-01 4.601942375302314758e-03 -5.549175739288330078e-01 1.533980830572545528e-03 1.264383673667907715e+00 -3.834952076431363821e-04 1.618349701166152954e-01 1.265917658805847168e+00 9.027476906776428223e-01 -9.782962203025817871e-01 -6.174272671341896057e-02 1.294679760932922363e+00 6.212622299790382385e-02 -1.256598758697509766e+01
0.000000000000000000e+00 -5.292233824729919434e-02 5.368932615965604782e-03 7.447476983070373535e-01 4.985437728464603424e-03 -5.549175739288330078e-01 1.917475950904190540e-03 1.264383673667907715e+00 -1.150485593825578690e-03 1.618349701166152954e-01 1.265917658805847168e+00 9.027476906776428223e-01 -9.779127240180969238e-01 -6.212622299790382385e-02 1.294296264648437500e+00 6.059224158525466919e-02 -1.256598758697509766e+01
0.000000000000000000e+00 -5.330583080649375916e-02 4.985437728464603424e-03 7.447476983070373535e-01 5.368932615965604782e-03 -5.553010702133178711e-01 2.300971187651157379e-03 1.264000177383422852e+00 -3.834952076431363821e-04 1.626019626855850220e-01 1.265917658805847168e+00 9.023641943931579590e-01 -9.771457910537719727e-01 -6.212622299790382385e-02 1.294296264648437500e+00 6.135923042893409729e-02 -1.256598758697509766e+01
0.000000000000000000e+00 -5.292233824729919434e-02 4.985437728464603424e-03 7.443642020225524902e-01 5.368932615965604782e-03 -5.549175739288330078e-01 2.300971187651157379e-03 1.264000177383422852e+00 -3.834952076431363821e-04 1.629854589700698853e-01 1.265534162521362305e+00 9.027476906776428223e-01 -9.779127240180969238e-01 -6.250971555709838867e-02 1.294679760932922363e+00 6.174272671341896057e-02 -1.256598758697509766e+01
0.000000000000000000e+00 -5.292233824729919434e-02 5.368932615965604782e-03 7.443642020225524902e-01 5.368932615965604782e-03 -5.545340776443481445e-01 1.917475950904190540e-03 1.263616681098937988e+00 -1.150485593825578690e-03 1.626019626855850220e-01 1.265917658805847168e+00 9.027476906776428223e-01 -9.779127240180969238e-01 -6.212622299790382385e-02 1.294679760932922363e+00 6.135923042893409729e-02 -1.256598758697509766e+01
0.000000000000000000e+00 -5.292233824729919434e-02 4.985437728464603424e-03 7.447476983070373535e-01 4.985437728464603424e-03 -5.553010702133178711e-01 1.917475950904190540e-03 1.264000177383422852e+00 -1.150485593825578690e-03 1.629854589700698853e-01 1.265150666236877441e+00 9.027476906776428223e-01 -9.779127240180969238e-01 -6.097573786973953247e-02 1.294296264648437500e+00 6.135923042893409729e-02 -1.256598758697509766e+01
0.000000000000000000e+00 -5.253884196281433105e-02 4.985437728464603424e-03 7.447476983070373535e-01 5.368932615965604782e-03 -5.545340776443481445e-01 1.917475950904190540e-03 1.263616681098937988e+00 -7.669904152862727642e-04 1.629854589700698853e-01 1.265534162521362305e+00 9.031311869621276855e-01 -9.779127240180969238e-01 -6.212622299790382385e-02 1.295063257217407227e+00 6.174272671341896057e-02 -1.256598758697509766e+01
0.000000000000000000e+00 -5.292233824729919434e-02 4.601942375302314758e-03 7.447476983070373535e-01 5.368932615965604782e-03 -5.549175739288330078e-01 1.533980830572545528e-03 1.264383673667907715e+00 -7.669904152862727642e-04 1.626019626855850220e-01 1.265150666236877441e+00 9.027476906776428223e-01 -9.782962203025817871e-01 -6.212622299790382385e-02 1.294296264648437500e+00 6.250971555709838867e-02 -1.256598758697509766e+01
0.000000000000000000e+00 -5.253884196281433105e-02 5.752427969127893448e-03 7.447476983070373535e-01 5.368932615965604782e-03 -5.549175739288330078e-01 2.300971187651157379e-03 1.264383673667907715e+00 -7.669904152862727642e-04 1.626019626855850220e-01 1.265150666236877441e+00 9.023641943931579590e-01 -9.775292277336120605e-01 -6.212622299790382385e-02 1.295063257217407227e+00 6.212622299790382385e-02 -1.256598758697509766e+01
0.000000000000000000e+00 -5.253884196281433105e-02 5.368932615965604782e-03 7.443642020225524902e-01 5.752427969127893448e-03 -5.545340776443481445e-01 1.917475950904190540e-03 1.263616681098937988e+00 -7.669904152862727642e-04 1.622184664011001587e-01 1.265534162521362305e+00 9.031311869621276855e-01 -9.775292277336120605e-01 -6.250971555709838867e-02 1.294679760932922363e+00 6.135923042893409729e-02 -1.256598758697509766e+01
0.000000000000000000e+00 -5.253884196281433105e-02 4.985437728464603424e-03 7.451311945915222168e-01 5.368932615965604782e-03 -5.545340776443481445e-01 1.917475950904190540e-03 1.264383673667907715e+00 -3.834952076431363821e-04 1.626019626855850220e-01 1.265150666236877441e+00 9.019806981086730957e-01 -9.782962203025817871e-01 -6.212622299790382385e-02 1.294296264648437500e+00 6.135923042893409729e-02 -1.256598758697509766e+01
0.000000000000000000e+00 -5.215534567832946777e-02 4.218447022140026093e-03 7.447476983070373535e-01 5.368932615965604782e-03 -5.549175739288330078e-01 2.684466307982802391e-03 1.264383673667907715e+00 -7.669904152862727642e-04 1.626019626855850220e-01 1.264383673667907715e+00 9.031311869621276855e-01 -9.779127240180969238e-01 -6.212622299790382385e-02 1.294679760932922363e+00 6.174272671341896057e-02 -1.256598758697509766e+01
0.000000000000000000e+00 -5.292233824729919434e-02 4.218447022140026093e-03 7.443642020225524902e-01 5.368932615965604782e-03 -5.549175739288330078e-01 1.533980830572545528e-03 1.264000177383422852e+00 -1.150485593825578690e-03 1.618349701166152954e-01 1.265534162521362305e+00 9.027476906776428223e-01 -9.771457910537719727e-01 -6.212622299790382385e-02 1.295063257217407227e+00 6.174272671341896057e-02 -1.256598758697509766e+01
0.000000000000000000e+00 -5.215534567832946777e-02 4.601942375302314758e-03 7.443642020225524902e-01 4.985437728464603424e-03 -5.553010702133178711e-01 1.917475950904190540e-03 1.264000177383422852e+00 -1.150485593825578690e-03 1.618349701166152954e-01 1.265917658805847168e+00 9.015972018241882324e-01 -9.779127240180969238e-01 -6.212622299790382385e-02 1.294296264648437500e+00 6.212622299790382385e-02 -1.256598758697509766e+01
0.000000000000000000e+00 -5.253884196281433105e-02 4.985437728464603424e-03 7.451311945915222168e-01 5.368932615965604782e-03 -5.545340776443481445e-01 1.533980830572545528e-03 1.263616681098937988e+00 -3.834952076431363821e-04 1.626019626855850220e-01 1.265534162521362305e+00 9.031311869621276855e-01 -9.779127240180969238e-01 -6.174272671341896057e-02 1.294679760932922363e+00 6.097573786973953247e-02 -1.256598758697509766e+01
0.000000000000000000e+00 -5.292233824729919434e-02 5.368932615965604782e-03 7.443642020225524902e-01 5.368932615965604782e-03 -5.556845664978027344e-01 1.533980830572545528e-03 1.264767169952392578e+00 -3.834952076431363821e-04 1.618349701166152954e-01 1.265150666236877441e+00 9.027476906776428223e-01 -9.779127240180969238e-01 -6.250971555709838867e-02 1.293529272079467773e+00 6.135923042893409729e-02 -1.256598758697509766e+01
0.000000000000000000e+00 -5.292233824729919434e-02 4.601942375302314758e-03 7.447476983070373535e-01 5.368932615965604782e-03 -5.556845664978027344e-01 1.533980830572545528e-03 1.264383673667907715e+00 -3.834952076431363821e-04 1.618349701166152954e-01 1.265150666236877441e+00 9.031311869621276855e-01 -9.779127240180969238e-01 -6.212622299790382385e-02 1.294679760932922363e+00 6.212622299790382385e-02 -1.256598758697509766e+01
0.000000000000000000e+00 -5.253884196281433105e-02 4.218447022140026093e-03 7.443642020225524902e-01 5.752427969127893448e-03 -5.549175739288330078e-01 1.533980830572545528e-03 1.264000177383422852e+00 -3.834952076431363821e-04 1.626019626855850220e-01 1.265534162521362305e+00 9.027476906776428223e-01 -9.771457910537719727e-01 -6.174272671341896057e-02 1.294296264648437500e+00 6.135923042893409729e-02 -1.256598758697509766e+01
0.000000000000000000e+00 -5.292233824729919434e-02 5.752427969127893448e-03 7.443642020225524902e-01 4.985437728464603424e-03 -5.549175739288330078e-01 2.300971187651157379e-03 1.264000177383422852e+00 0.000000000000000000e+00 1.626019626855850220e-01 1.265150666236877441e+00 9.015972018241882324e-01 -9.779127240180969238e-01 -6.135923042893409729e-02 1.294296264648437500e+00 6.059224158525466919e-02 -1.256598758697509766e+01
0.000000000000000000e+00 -5.253884196281433105e-02 5.368932615965604782e-03 7.443642020225524902e-01 4.985437728464603424e-03 -5.553010702133178711e-01 1.917475950904190540e-03 1.264000177383422852e+00 -3.834952076431363821e-04 1.618349701166152954e-01 1.265534162521362305e+00 9.035146832466125488e-01 -9.779127240180969238e-01 -6.212622299790382385e-02 1.294296264648437500e+00 6.174272671341896057e-02 -1.256598758697509766e+01
0.000000000000000000e+00 -5.253884196281433105e-02 4.601942375302314758e-03 7.432137131690979004e-01 4.985437728464603424e-03 -5.556845664978027344e-01 2.300971187651157379e-03 1.263616681098937988e+00 -1.150485593825578690e-03 1.629854589700698853e-01 1.265150666236877441e+00 9.027476906776428223e-01 -9.775292277336120605e-01 -6.289321184158325195e-02 1.294296264648437500e+00 6.135923042893409729e-02 -1.256598758697509766e+01
0.000000000000000000e+00 -5.253884196281433105e-02 5.368932615965604782e-03 7.435972094535827637e-01 5.368932615965604782e-03 -5.549175739288330078e-01 1.533980830572545528e-03 1.264383673667907715e+00 -1.150485593825578690e-03 1.626019626855850220e-01 1.264767169952392578e+00 9.027476906776428223e-01 -9.775292277336120605e-01 -6.250971555709838867e-02 1.294679760932922363e+00 6.212622299790382385e-02 -1.256598758697509766e+01
0.000000000000000000e+00 -5.253884196281433105e-02 5.752427969127893448e-03 7.443642020225524902e-01 5.752427969127893448e-03 -5.545340776443481445e-01 2.300971187651157379e-03 1.264000177383422852e+00 -3.834952076431363821e-04 1.622184664011001587e-01 1.265150666236877441e+00 9.027476906776428223e-01 -9.779127240180969238e-01 -6.174272671341896057e-02 1.295446753501892090e+00 6.250971555709838867e-02 -1.256598758697509766e+01
0.000000000000000000e+00 -5.292233824729919434e-02 5.368932615965604782e-03 7.443642020225524902e-01 5.368932615965604782e-03 -5.545340776443481445e-01 1.917475950904190540e-03 1.263616681098937988e+00 -3.834952076431363821e-04 1.622184664011001587e-01 1.265917658805847168e+00 9.027476906776428223e-01 -9.775292277336120605e-01 -6.174272671341896057e-02 1.293912768363952637e+00 6.212622299790382385e-02 -1.256598758697509766e+01
0.000000000000000000e+00 -5.253884196281433105e-02 5.368932615965604782e-03 7.447476983070373535e-01 4.985437728464603424e-03 -5.545340776443481445e-01 1.917475950904190540e-03 1.264000177383422852e+00 -3.834952076431363821e-04 1.626019626855850220e-01 1.264383673667907715e+00 9.027476906776428223e-01 -9.775292277336120605e-01 -6.174272671341896057e-02 1.294679760932922363e+00 6.174272671341896057e-02 -1.256598758697509766e+01
0.000000000000000000e+00 -5.292233824729919434e-02 4.601942375302314758e-03 7.447476983070373535e-01 5.368932615965604782e-03 -5.549175739288330078e-01 1.917475950904190540e-03 1.264383673667907715e+00 -1.150485593825578690e-03 1.629854589700698853e-01 1.264383673667907715e+00 9.023641943931579590e-01 -9.775292277336120605e-01 -6.174272671341896057e-02 1.294679760932922363e+00 6.174272671341896057e-02 -1.256598758697509766e+01
0.000000000000000000e+00 -5.292233824729919434e-02 4.985437728464603424e-03 7.447476983070373535e-01 5.368932615965604782e-03 -5.549175739288330078e-01 2.300971187651157379e-03 1.264767169952392578e+00 -7.669904152862727642e-04 1.626019626855850220e-01 1.264767169952392578e+00 9.027476906776428223e-01 -9.779127240180969238e-01 -6.212622299790382385e-02 1.295063257217407227e+00 6.135923042893409729e-02 -1.256598758697509766e+01
0.000000000000000000e+00 -5.292233824729919434e-02 4.985437728464603424e-03 7.451311945915222168e-01 5.368932615965604782e-03 -5.549175739288330078e-01 1.917475950904190540e-03 1.264000177383422852e+00 -7.669904152862727642e-04 1.622184664011001587e-01 1.265150666236877441e+00 9.023641943931579590e-01 -9.786797165870666504e-01 -6.174272671341896057e-02 1.294296264648437500e+00 6.212622299790382385e-02 -1.256598758697509766e+01
0.000000000000000000e+00 -5.253884196281433105e-02 4.985437728464603424e-03 7.451311945915222168e-01 5.752427969127893448e-03 -5.545340776443481445e-01 1.917475950904190540e-03 1.263616681098937988e+00 0.000000000000000000e+00 1.626019626855850220e-01 1.265150666236877441e+00 9.023641943931579590e-01 -9.775292277336120605e-01 -6.212622299790382385e-02 1.295063257217407227e+00 6.212622299790382385e-02 -1.256598758697509766e+01
0.000000000000000000e+00 -5.292233824729919434e-02 4.601942375302314758e-03 7.435972094535827637e-01 5.752427969127893448e-03 -5.549175739288330078e-01 1.150485593825578690e-03 1.264383673667907715e+00 -7.669904152862727642e-04 1.622184664011001587e-01 1.265534162521362305e+00 9.023641943931579590e-01 -9.775292277336120605e-01 -6.135923042893409729e-02 1.294679760932922363e+00 6.174272671341896057e-02 -1.256598758697509766e+01
0.000000000000000000e+00 -5.292233824729919434e-02 4.985437728464603424e-03 7.443642020225524902e-01 5.368932615965604782e-03 -5.549175739288330078e-01 2.684466307982802391e-03 1.264000177383422852e+00 -7.669904152862727642e-04 1.622184664011001587e-01 1.265534162521362305e+00 9.023641943931579590e-01 -9.775292277336120605e-01 -6.212622299790382385e-02 1.294296264648437500e+00 6.174272671341896057e-02 -1.256598758697509766e+01
0.000000000000000000e+00 -5.292233824729919434e-02 4.985437728464603424e-03 7.447476983070373535e-01 5.752427969127893448e-03 -5.549175739288330078e-01 2.300971187651157379e-03 1.264000177383422852e+00 -1.533980830572545528e-03 1.622184664011001587e-01 1.265534162521362305e+00 9.027476906776428223e-01 -9.775292277336120605e-01 -6.212622299790382385e-02 1.295063257217407227e+00 6.212622299790382385e-02 -1.256598758697509766e+01
0.000000000000000000e+00 -5.253884196281433105e-02 4.601942375302314758e-03 7.447476983070373535e-01 5.368932615965604782e-03 -5.549175739288330078e-01 2.300971187651157379e-03 1.264000177383422852e+00 -7.669904152862727642e-04 1.618349701166152954e-01 1.264767169952392578e+00 9.027476906776428223e-01 -9.782962203025817871e-01 -6.174272671341896057e-02 1.294679760932922363e+00 6.212622299790382385e-02 -1.256598758697509766e+01
0.000000000000000000e+00 -5.292233824729919434e-02 5.368932615965604782e-03 7.447476983070373535e-01 5.368932615965604782e-03 -5.553010702133178711e-01 2.300971187651157379e-03 1.264000177383422852e+00 -1.150485593825578690e-03 1.629854589700698853e-01 1.265150666236877441e+00 9.019806981086730957e-01 -9.779127240180969238e-01 -6.250971555709838867e-02 1.294296264648437500e+00 6.174272671341896057e-02 -1.256598758697509766e+01
0.000000000000000000e+00 -5.292233824729919434e-02 5.368932615965604782e-03 7.447476983070373535e-01 5.752427969127893448e-03 -5.545340776443481445e-01 2.300971187651157379e-03 1.263616681098937988e+00 -3.834952076431363821e-04 1.622184664011001587e-01 1.265534162521362305e+00 9.027476906776428223e-01 -9.779127240180969238e-01 -6.135923042893409729e-02 1.294679760932922363e+00 6.174272671341896057e-02 -1.256598758697509766e+01
0.000000000000000000e+00 -5.253884196281433105e-02 5.368932615965604782e-03 7.435972094535827637e-01 4.985437728464603424e-03 -5.545340776443481445e-01 1.150485593825578690e-03 1.264000177383422852e+00 0.000000000000000000e+00 1.622184664011001587e-01 1.265150666236877441e+00 9.027476906776428223e-01 -9.775292277336120605e-01 -6.135923042893409729e-02 1.293912768363952637e+00 6.135923042893409729e-02 -1.256598758697509766e+01
0.000000000000000000e+00 -5.292233824729919434e-02 4.985437728464603424e-03 7.447476983070373535e-01 5.368932615965604782e-03 -5.549175739288330078e-01 1.917475950904190540e-03 1.264000177383422852e+00 7.669904152862727642e-04 1.622184664011001587e-01 1.265534162521362305e+00 9.027476906776428223e-01 -9.775292277336120605e-01 -6.135923042893409729e-02 1.293529272079467773e+00 6.212622299790382385e-02 -1.256598758697509766e+01
0.000000000000000000e+00 -5.292233824729919434e-02 4.985437728464603424e-03 7.435972094535827637e-01 5.752427969127893448e-03 -5.541505813598632812e-01 1.533980830572545528e-03 1.263233184814453125e+00 -7.669904152862727642e-04 1.626019626855850220e-01 1.265150666236877441e+00 9.023641943931579590e-01 -9.779127240180969238e-01 -6.174272671341896057e-02 1.294296264648437500e+00 6.212622299790382385e-02 -1.256598758697509766e+01
0.000000000000000000e+00 -5.253884196281433105e-02 4.601942375302314758e-03 7.447476983070373535e-01 5.368932615965604782e-03 -5.549175739288330078e-01 1.917475950904190540e-03 1.264000177383422852e+00 -7.669904152862727642e-04 1.626019626855850220e-01 1.264767169952392578e+00 9.023641943931579590e-01 -9.775292277336120605e-01 -6.212622299790382385e-02 1.295063257217407227e+00 6.174272671341896057e-02 -1.256598758697509766e+01
0.000000000000000000e+00 -5.215534567832946777e-02 4.601942375302314758e-03 7.443642020225524902e-01 5.752427969127893448e-03 -5.545340776443481445e-01 2.300971187651157379e-03 1.264383673667907715e+00 -3.834952076431363821e-04 1.622184664011001587e-01 1.265150666236877441e+00 9.027476906776428223e-01 -9.775292277336120605e-01 -6.212622299790382385e-02 1.295063257217407227e+00 6.250971555709838867e-02 -1.256598758697509766e+01
0.000000000000000000e+00 -5.292233824729919434e-02 4.601942375302314758e-03 7.435972094535827637e-01 4.985437728464603424e-03 -5.549175739288330078e-01 1.917475950904190540e-03 1.264000177383422852e+00 -7.669904152862727642e-04 1.622184664011001587e-01 1.265534162521362305e+00 9.027476906776428223e-01 -9.775292277336120605e-01 -6.212622299790382385e-02 1.294679760932922363e+00 6.174272671341896057e-02 -1.256598758697509766e+01
0.000000000000000000e+00 -5.292233824729919434e-02 4.985437728464603424e-03 7.451311945915222168e-01 5.368932615965604782e-03 -5.553010702133178711e-01 1.917475950904190540e-03 1.264000177383422852e+00 -3.834952076431363821e-04 1.622184664011001587e-01 1.264383673667907715e+00 9.027476906776428223e-01 -9.771457910537719727e-01 -6.174272671341896057e-02 1.294296264648437500e+00 6.135923042893409729e-02 -1.256598758697509766e+01
0.000000000000000000e+00 -5.177185311913490295e-02 4.985437728464603424e-03 7.443642020225524902e-01 5.368932615965604782e-03 -5.545340776443481445e-01 1.917475950904190540e-03 1.264000177383422852e+00 -7.669904152862727642e-04 1.629854589700698853e-01 1.264767169952392578e+00 9.027476906776428223e-01 -9.779127240180969238e-01 -6.250971555709838867e-02 1.294296264648437500e+00 6.135923042893409729e-02 -1.256598758697509766e+01
0.000000000000000000e+00 -5.330583080649375916e-02 4.601942375302314758e-03 7.447476983070373535e-01 5.752427969127893448e-03 -5.553010702133178711e-01 1.917475950904190540e-03 1.263616681098937988e+00 -1.150485593825578690e-03 1.626019626855850220e-01 1.264767169952392578e+00 9.023641943931579590e-01 -9.779127240180969238e-01 -6.289321184158325195e-02 1.294679760932922363e+00 6.174272671341896057e-02 -1.256598758697509766e+01
0.000000000000000000e+00 -5.253884196281433105e-02 5.368932615965604782e-03 7.435972094535827637e-01 4.601942375302314758e-03 -5.541505813598632812e-01 1.533980830572545528e-03 1.264000177383422852e+00 -7.669904152862727642e-04 1.626019626855850220e-01 1.266301155090332031e+00 9.019806981086730957e-01 -9.779127240180969238e-01 -6.174272671341896057e-02 1.294679760932922363e+00 6.135923042893409729e-02 -1.256598758697509766e+01
0.000000000000000000e+00 -5.292233824729919434e-02 4.601942375302314758e-03 7.447476983070373535e-01 4.985437728464603424e-03 -5.549175739288330078e-01 1.533980830572545528e-03 1.264383673667907715e+00 0.000000000000000000e+00 1.622184664011001587e-01 1.265150666236877441e+00 9.019806981086730957e-01 -9.779127240180969238e-01 -6.174272671341896057e-02 1.294679760932922363e+00 6.135923042893409729e-02 -1.256598758697509766e+01
0.000000000000000000e+00 -5.330583080649375916e-02 4.985437728464603424e-03 7.447476983070373535e-01 5.752427969127893448e-03 -5.553010702133178711e-01 2.300971187651157379e-03 1.264767169952392578e+00 -3.834952076431363821e-04 1.618349701166152954e-01 1.265917658805847168e+00 9.019806981086730957e-01 -9.775292277336120605e-01 -6.212622299790382385e-02 1.294679760932922363e+00 6.135923042893409729e-02 -1.256598758697509766e+01
0.000000000000000000e+00 -5.253884196281433105e-02 5.368932615965604782e-03 7.443642020225524902e-01 5.368932615965604782e-03 -5.545340776443481445e-01 1.917475950904190540e-03 1.264000177383422852e+00 -1.150485593825578690e-03 1.626019626855850220e-01 1.265534162521362305e+00 9.027476906776428223e-01 -9.771457910537719727e-01 -6.174272671341896057e-02 1.294679760932922363e+00 6.212622299790382385e-02 -1.256598758697509766e+01
0.000000000000000000e+00 -5.253884196281433105e-02 4.601942375302314758e-03 7.447476983070373535e-01 4.601942375302314758e-03 -5.553010702133178711e-01 1.917475950904190540e-03 1.263616681098937988e+00 -7.669904152862727642e-04 1.618349701166152954e-01 1.265150666236877441e+00 9.023641943931579590e-01 -9.782962203025817871e-01 -6.135923042893409729e-02 1.294296264648437500e+00 6.174272671341896057e-02 -1.256598758697509766e+01
0.000000000000000000e+00 -5.253884196281433105e-02 4.601942375302314758e-03 7.443642020225524902e-01 4.601942375302314758e-03 -5.545340776443481445e-01 1.917475950904190540e-03 1.264000177383422852e+00 -3.834952076431363821e-04 1.629854589700698853e-01 1.264767169952392578e+00 9.027476906776428223e-01 -9.786797165870666504e-01 -6.250971555709838867e-02 1.294679760932922363e+00 6.135923042893409729e-02 -1.256598758697509766e+01
0.000000000000000000e+00 -5.292233824729919434e-02 4.218447022140026093e-03 7.435972094535827637e-01 5.368932615965604782e-03 -5.553010702133178711e-01 2.300971187651157379e-03 1.263233184814453125e+00 -3.834952076431363821e-04 1.618349701166152954e-01 1.265534162521362305e+00 9.027476906776428223e-01 -9.779127240180969238e-01 -6.097573786973953247e-02 1.295063257217407227e+00 6.212622299790382385e-02 -1.256598758697509766e+01
0.000000000000000000e+00 -5.292233824729919434e-02 4.601942375302314758e-03 7.447476983070373535e-01 5.752427969127893448e-03 -5.549175739288330078e-01 1.917475950904190540e-03 1.264383673667907715e+00 -1.150485593825578690e-03 1.622184664011001587e-01 1.265150666236877441e+00 9.015972018241882324e-01 -9.779127240180969238e-01 -6.250971555709838867e-02 1.294296264648437500e+00 6.135923042893409729e-02 -1.256598758697509766e+01
0.000000000000000000e+00 -5.292233824729919434e-02 4.985437728464603424e-03 7.451311945915222168e-01 5.368932615965604782e-03 -5.553010702133178711e-01 1.917475950904190540e-03 1.263233184814453125e+00 -7.669904152862727642e-04 1.626019626855850220e-01 1.264383673667907715e+00 9.027476906776428223e-01 -9.779127240180969238e-01 -6.135923042893409729e-02 1.294296264648437500e+00 6.212622299790382385e-02 -1.256598758697509766e+01
0.000000000000000000e+00 -5.253884196281433105e-02 4.218447022140026093e-03 7.443642020225524902e-01 4.985437728464603424e-03 -5.545340776443481445e-01 1.533980830572545528e-03 1.264000177383422852e+00 -3.834952076431363821e-04 1.622184664011001587e-01 1.265150666236877441e+00 9.031311869621276855e-01 -9.775292277336120605e-01 -6.174272671341896057e-02 1.294679760932922363e+00 6.174272671341896057e-02 -1.256598758697509766e+01
0.000000000000000000e+00 -5.253884196281433105e-02 4.985437728464603424e-03 7.443642020225524902e-01 5.368932615965604782e-03 -5.553010702133178711e-01 1.917475950904190540e-03 1.264000177383422852e+00 -3.834952076431363821e-04 1.622184664011001587e-01 1.264767169952392578e+00 9.027476906776428223e-01 -9.779127240180969238e-01 -6.212622299790382385e-02 1.294296264648437500e+00 6.212622299790382385e-02 -1.256598758697509766e+01
0.000000000000000000e+00 -5.292233824729919434e-02 4.985437728464603424e-03 7.447476983070373535e-01 5.368932615965604782e-03 -5.553010702133178711e-01 1.533980830572545528e-03 1.263616681098937988e+00 -7.669904152862727642e-04 1.629854589700698853e-01 1.264767169952392578e+00 9.023641943931579590e-01 -9.775292277336120605e-01 -6.174272671341896057e-02 1.294679760932922363e+00 6.212622299790382385e-02 -1.256598758697509766e+01
0.000000000000000000e+00 -5.330583080649375916e-02 4.985437728464603424e-03 7.443642020225524902e-01 4.601942375302314758e-03 -5.549175739288330078e-01 2.300971187651157379e-03 1.263616681098937988e+00 -1.150485593825578690e-03 1.629854589700698853e-01 1.264767169952392578e+00 9.023641943931579590e-01 -9.779127240180969238e-01 -6.097573786973953247e-02 1.293912768363952637e+00 6.212622299790382385e-02 -1.256598758697509766e+01
0.000000000000000000e+00 -5.292233824729919434e-02 4.985437728464603424e-03 7.447476983070373535e-01 5.752427969127893448e-03 -5.549175739288330078e-01 1.917475950904190540e-03 1.263616681098937988e+00 -7.669904152862727642e-04 1.622184664011001587e-01 1.264767169952392578e+00 9.023641943931579590e-01 -9.779127240180969238e-01 -6.212622299790382385e-02 1.294679760932922363e+00 6.212622299790382385e-02 -1.256598758697509766e+01
0.000000000000000000e+00 -5.253884196281433105e-02 4.601942375302314758e-03 7.451311945915222168e-01 5.752427969127893448e-03 -5.556845664978027344e-01 2.300971187651157379e-03 1.263233184814453125e+00 -7.669904152862727642e-04 1.626019626855850220e-01 1.264383673667907715e+00 9.027476906776428223e-01 -9.779127240180969238e-01 -6.212622299790382385e-02 1.294296264648437500e+00 6.174272671341896057e-02 -1.256598758697509766e+01
0.000000000000000000e+00 -5.253884196281433105e-02 5.368932615965604782e-03 7.447476983070373535e-01 6.135923322290182114e-03 -5.545340776443481445e-01 1.917475950904190540e-03 1.263616681098937988e+00 -7.669904152862727642e-04 1.622184664011001587e-01 1.265150666236877441e+00 9.027476906776428223e-01 -9.775292277336120605e-01 -6.250971555709838867e-02 1.294679760932922363e+00 6.174272671341896057e-02 -1.256598758697509766e+01
0.000000000000000000e+00 -5.253884196281433105e-02 4.985437728464603424e-03 7.435972094535827637e-01 5.752427969127893448e-03 -5.549175739288330078e-01 2.300971187651157379e-03 1.264000177383422852e+00 0.000000000000000000e+00 1.622184664011001587e-01 1.265150666236877441e+00 9.023641943931579590e-01 -9.775292277336120605e-01 -6.174272671341896057e-02 1.295063257217407227e+00 6.174272671341896057e-02 -1.256598758697509766e+01
0.000000000000000000e+00 -5.253884196281433105e-02 5.752427969127893448e-03 7.443642020225524902e-01 4.985437728464603424e-03 -5.549175739288330078e-01 2.300971187651157379e-03 1.263616681098937988e+00 -7.669904152862727642e-04 1.629854589700698853e-01 1.265534162521362305e+00 9.023641943931579590e-01 -9.775292277336120605e-01 -6.250971555709838867e-02 1.293529272079467773e+00 6.212622299790382385e-02 -1.256598758697509766e+01
0.000000000000000000e+00 -5.292233824729919434e-02 4.985437728464603424e-03 7.443642020225524902e-01 4.985437728464603424e-03 -5.553010702133178711e-01 1.917475950904190540e-03 1.264383673667907715e+00 0.000000000000000000e+00 1.626019626855850220e-01 1.264383673667907715e+00 9.019806981086730957e-01 -9.779127240180969238e-01 -6.135923042893409729e-02 1.294679760932922363e+00 6.174272671341896057e-02 -1.256598758697509766e+01
0.000000000000000000e+00 -5.253884196281433105e-02 4.985437728464603424e-03 7.447476983070373535e-01 5.752427969127893448e-03 -5.545340776443481445e-01 2.300971187651157379e-03 1.263616681098937988e+00 -3.834952076431363821e-04 1.629854589700698853e-01 1.264383673667907715e+00 9.027476906776428223e-01 -9.779127240180969238e-01 -6.212622299790382385e-02 1.294679760932922363e+00 6.135923042893409729e-02 -1.256598758697509766e+01
0.000000000000000000e+00 -5.253884196281433105e-02 4.601942375302314758e-03 7.435972094535827637e-01 4.985437728464603424e-03 -5.549175739288330078e-01 1.917475950904190540e-03 1.264383673667907715e+00 -7.669904152862727642e-04 1.618349701166152954e-01 1.264000177383422852e+00 9.027476906776428223e-01 -9.782962203025817871e-01 -6.212622299790382385e-02 1.294679760932922363e+00 6.174272671341896057e-02 -1.256598758697509766e+01
0.000000000000000000e+00 -5.253884196281433105e-02 5.752427969127893448e-03 7.443642020225524902e-01 4.601942375302314758e-03 -5.545340776443481445e-01 2.684466307982802391e-03 1.263616681098937988e+00 -7.669904152862727642e-04 1.629854589700698853e-01 1.265534162521362305e+00 9.019806981086730957e-01 -9.779127240180969238e-01 -6.174272671341896057e-02 1.294679760932922363e+00 6.174272671341896057e-02 -1.256598758697509766e+01
0.000000000000000000e+00 -5.253884196281433105e-02 4.218447022140026093e-03 7.451311945915222168e-01 4.601942375302314758e-03 -5.553010702133178711e-01 2.300971187651157379e-03 1.263616681098937988e+00 -7.669904152862727642e-04 1.626019626855850220e-01 1.265150666236877441e+00 9.023641943931579590e-01 -9.779127240180969238e-01 -6.250971555709838867e-02 1.294296264648437500e+00 6.174272671341896057e-02 -1.256598758697509766e+01
0.000000000000000000e+00 -5.215534567832946777e-02 5.752427969127893448e-03 7.447476983070373535e-01 5.368932615965604782e-03 -5.549175739288330078e-01 1.917475950904190540e-03 1.264000177383422852e+00 -7.669904152862727642e-04 1.629854589700698853e-01 1.265150666236877441e+00 9.019806981086730957e-01 -9.782962203025817871e-01 -6.135923042893409729e-02 1.294296264648437500e+00 6.250971555709838867e-02 -1.256598758697509766e+01
0.000000000000000000e+00 -5.330583080649375916e-02 5.368932615965604782e-03 7.447476983070373535e-01 5.368932615965604782e-03 -5.545340776443481445e-01 2.300971187651157379e-03 1.264000177383422852e+00 -7.669904152862727642e-04 1.622184664011001587e-01 1.265534162521362305e+00 9.023641943931579590e-01 -9.779127240180969238e-01 -6.289321184158325195e-02 1.293912768363952637e+00 6.097573786973953247e-02 -1.256598758697509766e+01
0.000000000000000000e+00 -5.253884196281433105e-02 5.368932615965604782e-03 7.435972094535827637e-01 4.985437728464603424e-03 -5.545340776443481445e-01 1.917475950904190540e-03 1.264000177383422852e+00 7.669904152862727642e-04 1.626019626855850220e-01 1.264383673667907715e+00 9.023641943931579590e-01 -9.779127240180969238e-01 -6.135923042893409729e-02 1.294679760932922363e+00 6.212622299790382385e-02 -1.256598758697509766e+01
0.000000000000000000e+00 -5.292233824729919434e-02 4.218447022140026093e-03 7.443642020225524902e-01 4.985437728464603424e-03 -5.549175739288330078e-01 2.300971187651157379e-03 1.264000177383422852e+00 -3.834952076431363821e-04 1.622184664011001587e-01 1.264383673667907715e+00 9.027476906776428223e-01 -9.771457910537719727e-01 -6.174272671341896057e-02 1.295063257217407227e+00 6.174272671341896057e-02 -1.256598758697509766e+01
0.000000000000000000e+00 -5.292233824729919434e-02 4.985437728464603424e-03 7.443642020225524902e-01 5.368932615965604782e-03 -5.556845664978027344e-01 1.917475950904190540e-03 1.263616681098937988e+00 -3.834952076431363821e-04 1.629854589700698853e-01 1.265917658805847168e+00 9.019806981086730957e-01 -9.775292277336120605e-01 -6.212622299790382385e-02 1.294679760932922363e+00 6.135923042893409729e-02 -1.256598758697509766e+01
0.000000000000000000e+00 -5.253884196281433105e-02 4.985437728464603424e-03 7.447476983070373535e-01 6.135923322290182114e-03 -5.553010702133178711e-01 1.917475950904190540e-03 1.264000177383422852e+00 -3.834952076431363821e-04 1.622184664011001587e-01 1.264767169952392578e+00 9.023641943931579590e-01 -9.779127240180969238e-01 -6.212622299790382385e-02 1.294679760932922363e+00 6.212622299790382385e-02 -1.256598758697509766e+01
0.000000000000000000e+00 -5.215534567832946777e-02 4.601942375302314758e-03 7.447476983070373535e-01 4.985437728464603424e-03 -5.545340776443481445e-01 1.533980830572545528e-03 1.264000177383422852e+00 -7.669904152862727642e-04 1.629854589700698853e-01 1.264767169952392578e+00 9.015972018241882324e-01 -9.779127240180969238e-01 -6.174272671341896057e-02 1.294296264648437500e+00 6.174272671341896057e-02 -1.256598758697509766e+01
0.000000000000000000e+00 -5.292233824729919434e-02 5.368932615965604782e-03 7.443642020225524902e-01 5.752427969127893448e-03 -5.549175739288330078e-01 2.300971187651157379e-03 1.263616681098937988e+00 -3.834952076431363821e-04 1.622184664011001587e-01 1.264767169952392578e+00 9.019806981086730957e-01 -9.775292277336120605e-01 -6.212622299790382385e-02 1.295063257217407227e+00 6.174272671341896057e-02 -1.256598758697509766e+01
0.000000000000000000e+00 -5.253884196281433105e-02 5.368932615965604782e-03 7.443642020225524902e-01 4.985437728464603424e-03 -5.545340776443481445e-01 2.684466307982802391e-03 1.264000177383422852e+00 -3.834952076431363821e-04 1.626019626855850220e-01 1.264767169952392578e+00 9.027476906776428223e-01 -9.779127240180969238e-01 -6.174272671341896057e-02 1.294679760932922363e+00 6.174272671341896057e-02 -1.256598758697509766e+01
0.000000000000000000e+00 -5.253884196281433105e-02 5.368932615965604782e-03 7.443642020225524902e-01 5.752427969127893448e-03 -5.545340776443481445e-01 1.917475950904190540e-03 1.264000177383422852e+00 -7.669904152862727642e-04 1.629854589700698853e-01 1.265534162521362305e+00 9.027476906776428223e-01 -9.786797165870666504e-01 -6.174272671341896057e-02 1.294296264648437500e+00 6.174272671341896057e-02 -1.256598758697509766e+01
0.000000000000000000e+00 -5.253884196281433105e-02 4.985437728464603424e-03 7.435972094535827637e-01 5.752427969127893448e-03 -5.549175739288330078e-01 1.917475950904190540e-03 1.264383673667907715e+00 -1.150485593825578690e-03 1.626019626855850220e-01 1.265534162521362305e+00 9.023641943931579590e-01 -9.775292277336120605e-01 -6.212622299790382385e-02 1.294679760932922363e+00 6.174272671341896057e-02 -1.256598758697509766e+01
0.000000000000000000e+00 -5.215534567832946777e-02 4.601942375302314758e-03 7.451311945915222168e-01 5.368932615965604782e-03 -5.549175739288330078e-01 1.917475950904190540e-03 1.264000177383422852e+00 -7.669904152862727642e-04 1.622184664011001587e-01 1.265150666236877441e+00 9.023641943931579590e-01 -9.771457910537719727e-01 -6.250971555709838867e-02 1.294296264648437500e+00 6.174272671341896057e-02 -1.256598758697509766e+01
0.000000000000000000e+00 -5.292233824729919434e-02 5.368932615965604782e-03 7.451311945915222168e-01 5.368932615965604782e-03 -5.541505813598632812e-01 1.917475950904190540e-03 1.264000177383422852e+00 -3.834952076431363821e-04 1.618349701166152954e-01 1.265534162521362305e+00 9.023641943931579590e-01 -9.775292277336120605e-01 -6.135923042893409729e-02 1.293912768363952637e+00 6.174272671341896057e-02 -1.256598758697509766e+01
0.000000000000000000e+00 -5.253884196281433105e-02 4.601942375302314758e-03 7.447476983070373535e-01 5.368932615965604782e-03 -5.545340776443481445e-01 1.917475950904190540e-03 1.263233184814453125e+00 -1.150485593825578690e-03 1.629854589700698853e-01 1.265917658805847168e+00 9.027476906776428223e-01 -9.775292277336120605e-01 -6.250971555709838867e-02 1.294296264648437500e+00 6.174272671341896057e-02 -1.256598758697509766e+01
0.000000000000000000e+00 -5.215534567832946777e-02 4.985437728464603424e-03 7.435972094535827637e-01 4.601942375302314758e-03 -5.556845664978027344e-01 2.300971187651157379e-03 1.264000177383422852e+00 -3.834952076431363821e-04 1.626019626855850220e-01 1.265150666236877441e+00 9.027476906776428223e-01 -9.775292277336120605e-01 -6.174272671341896057e-02 1.294679760932922363e+00 6.212622299790382385e-02 -1.256598758697509766e+01
0.000000000000000000e+00 -5.215534567832946777e-02 4.985437728464603424e-03 7.447476983070373535e-01 5.368932615965604782e-03 -5.545340776443481445e-01 2.300971187651157379e-03 1.264000177383422852e+00 -3.834952076431363821e-04 1.614514738321304321e-01 1.265534162521362305e+00 9.023641943931579590e-01 -9.779127240180969238e-01 -6.174272671341896057e-02 1.295063257217407227e+00 6.174272671341896057e-02 -1.256598758697509766e+01
0.000000000000000000e+00 -5.253884196281433105e-02 4.985437728464603424e-03 7.447476983070373535e-01 4.985437728464603424e-03 -5.549175739288330078e-01 1.917475950904190540e-03 1.264000177383422852e+00 -1.150485593825578690e-03 1.622184664011001587e-01 1.265150666236877441e+00 9.027476906776428223e-01 -9.779127240180969238e-01 -6.212622299790382385e-02 1.295063257217407227e+00 6.097573786973953247e-02 -1.256598758697509766e+01
0.000000000000000000e+00 -5.292233824729919434e-02 4.985437728464603424e-03 7.447476983070373535e-01 4.985437728464603424e-03 -5.549175739288330078e-01 2.684466307982802391e-03 1.264000177383422852e+00 -7.669904152862727642e-04 1.622184664011001587e-01 1.265534162521362305e+00 9.019806981086730957e-01 -9.775292277336120605e-01 -6.212622299790382385e-02 1.294296264648437500e+00 6.174272671341896057e-02 -1.256598758697509766e+01
0.000000000000000000e+00 -5.253884196281433105e-02 5.368932615965604782e-03 7.447476983070373535e-01 5.368932615965604782e-03 -5.549175739288330078e-01 1.917475950904190540e-03 1.263616681098937988e+00 -7.669904152862727642e-04 1.626019626855850220e-01 1.265534162521362305e+00 9.023641943931579590e-01 -9.779127240180969238e-01 -6.212622299790382385e-02 1.293912768363952637e+00 6.174272671341896057e-02 -1.256598758697509766e+01
0.000000000000000000e+00 -5.253884196281433105e-02 5.368932615965604782e-03 7.447476983070373535e-01 5.752427969127893448e-03 -5.541505813598632812e-01 1.917475950904190540e-03 1.264000177383422852e+00 -1.150485593825578690e-03 1.626019626855850220e-01 1.265917658805847168e+00 9.023641943931579590e-01 -9.771457910537719727e-01 -6.174272671341896057e-02 1.294296264648437500e+00 6.174272671341896057e-02 -1.256598758697509766e+01
0.000000000000000000e+00 -5.292233824729919434e-02 4.601942375302314758e-03 7.447476983070373535e-01 5.368932615965604782e-03 -5.553010702133178711e-01 2.684466307982802391e-03 1.262849688529968262e+00 -7.669904152862727642e-04 1.622184664011001587e-01 1.265150666236877441e+00 9.019806981086730957e-01 -9.767622947692871094e-01 -6.212622299790382385e-02 1.294679760932922363e+00 6.174272671341896057e-02 -1.256598758697509766e+01
0.000000000000000000e+00 -5.292233824729919434e-02 4.985437728464603424e-03 7.447476983070373535e-01 4.601942375302314758e-03 -5.545340776443481445e-01 1.917475950904190540e-03 1.264000177383422852e+00 -3.834952076431363821e-04 1.626019626855850220e-01 1.265917658805847168e+00 9.031311869621276855e-01 -9.779127240180969238e-01 -6.135923042893409729e-02 1.294296264648437500e+00 6.250971555709838867e-02 -1.256598758697509766e+01
0.000000000000000000e+00 -5.292233824729919434e-02 4.985437728464603424e-03 7.447476983070373535e-01 4.985437728464603424e-03 -5.545340776443481445e-01 1.533980830572545528e-03 1.264000177383422852e+00 -7.669904152862727642e-04 1.622184664011001587e-01 1.264000177383422852e+00 9.035146832466125488e-01 -9.779127240180969238e-01 -6.174272671341896057e-02 1.294296264648437500e+00 6.174272671341896057e-02 -1.256598758697509766e+01
0.000000000000000000e+00 -5.253884196281433105e-02 4.985437728464603424e-03 7.447476983070373535e-01 4.985437728464603424e-03 -5.553010702133178711e-01 1.917475950904190540e-03 1.264000177383422852e+00 -3.834952076431363821e-04 1.622184664011001587e-01 1.264383673667907715e+00 9.015972018241882324e-01 -9.779127240180969238e-01 -6.174272671341896057e-02 1.295063257217407227e+00 6.174272671341896057e-02 -1.256598758697509766e+01
0.000000000000000000e+00 -5.253884196281433105e-02 5.368932615965604782e-03 7.451311945915222168e-01 4.601942375302314758e-03 -5.549175739288330078e-01 2.300971187651157379e-03 1.264000177383422852e+00 -1.150485593825578690e-03 1.626019626855850220e-01 1.264767169952392578e+00 9.019806981086730957e-01 -9.771457910537719727e-01 -6.212622299790382385e-02 1.294296264648437500e+00 6.135923042893409729e-02 -1.256598758697509766e+01
0.000000000000000000e+00 -5.292233824729919434e-02 5.368932615965604782e-03 7.443642020225524902e-01 4.985437728464603424e-03 -5.545340776443481445e-01 1.533980830572545528e-03 1.264000177383422852e+00 -1.150485593825578690e-03 1.618349701166152954e-01 1.264767169952392578e+00 9.023641943931579590e-01 -9.775292277336120605e-01 -6.212622299790382385e-02 1.295446753501892090e+00 6.212622299790382385e-02 -1.256598758697509766e+01
0.000000000000000000e+00 -5.292233824729919434e-02 4.985437728464603424e-03 7.447476983070373535e-01 5.368932615965604782e-03 -5.553010702133178711e-01 2.300971187651157379e-03 1.264000177383422852e+00 -3.834952076431363821e-04 1.626019626855850220e-01 1.264767169952392578e+00 9.019806981086730957e-01 -9.771457910537719727e-01 -6.212622299790382385e-02 1.294679760932922363e+00 6.174272671341896057e-02 -1.256598758697509766e+01
0.000000000000000000e+00 -5.292233824729919434e-02 5.368932615965604782e-03 7.447476983070373535e-01 5.368932615965604782e-03 -5.549175739288330078e-01 3.067961661145091057e-03 1.264000177383422852e+00 -3.834952076431363821e-04 1.626019626855850220e-01 1.264767169952392578e+00 9.023641943931579590e-01 -9.771457910537719727e-01 -6.212622299790382385e-02 1.294296264648437500e+00 6.135923042893409729e-02 -1.256598758697509766e+01
0.000000000000000000e+00 -5.292233824729919434e-02 5.368932615965604782e-03 7.443642020225524902e-01 4.985437728464603424e-03 -5.553010702133178711e-01 1.533980830572545528e-03 1.263616681098937988e+00 -7.669904152862727642e-04 1.622184664011001587e-01 1.264767169952392578e+00 9.023641943931579590e-01 -9.779127240180969238e-01 -6.212622299790382385e-02 1.295063257217407227e+00 6.212622299790382385e-02 -1.256598758697509766e+01
0.000000000000000000e+00 -5.253884196281433105e-02 4.218447022140026093e-03 7.447476983070373535e-01 5.368932615965604782e-03 -5.549175739288330078e-01 1.917475950904190540e-03 1.264000177383422852e+00 -3.834952076431363821e-04 1.618349701166152954e-01 1.264767169952392578e+00 9.023641943931579590e-01 -9.775292277336120605e-01 -6.135923042893409729e-02 1.295063257217407227e+00 6.174272671341896057e-02 -1.256598758697509766e+01
0.000000000000000000e+00 -5.215534567832946777e-02 6.135923322290182114e-03 7.443642020225524902e-01 4.601942375302314758e-03 -5.549175739288330078e-01 1.533980830572545528e-03 1.264383673667907715e+00 -3.834952076431363821e-04 1.622184664011001587e-01 1.265150666236877441e+00 9.019806981086730957e-01 -9.779127240180969238e-01 -6.212622299790382385e-02 1.294679760932922363e+00 6.135923042893409729e-02 -1.256598758697509766e+01
0.000000000000000000e+00 -5.253884196281433105e-02 4.985437728464603424e-03 7.443642020225524902e-01 4.985437728464603424e-03 -5.545340776443481445e-01 1.533980830572545528e-03 1.264000177383422852e+00 0.000000000000000000e+00 1.629854589700698853e-01 1.265534162521362305e+00 9.023641943931579590e-01 -9.775292277336120605e-01 -6.212622299790382385e-02 1.294296264648437500e+00 6.212622299790382385e-02 -1.256598758697509766e+01
0.000000000000000000e+00 -5.292233824729919434e-02 4.985437728464603424e-03 7.435972094535827637e-01 5.368932615965604782e-03 -5.549175739288330078e-01 1.533980830572545528e-03 1.264383673667907715e+00 -7.669904152862727642e-04 1.614514738321304321e-01 1.265534162521362305e+00 9.015972018241882324e-01 -9.782962203025817871e-01 -6.174272671341896057e-02 1.295063257217407227e+00 6.135923042893409729e-02 -1.256598758697509766e+01
0.000000000000000000e+00 -5.253884196281433105e-02 4.985437728464603424e-03 7.443642020225524902e-01 5.752427969127893448e-03 -5.549175739288330078e-01 1.917475950904190540e-03 1.264767169952392578e+00 -7.669904152862727642e-04 1.629854589700698853e-01 1.265150666236877441e+00 9.027476906776428223e-01 -9.779127240180969238e-01 -6.212622299790382385e-02 1.294296264648437500e+00 6.135923042893409729e-02 -1.256598758697509766e+01
0.000000000000000000e+00 -5.292233824729919434e-02 4.985437728464603424e-03 7.451311945915222168e-01 4.985437728464603424e-03 -5.549175739288330078e-01 2.300971187651157379e-03 1.263616681098937988e+00 -3.834952076431363821e-04 1.626019626855850220e-01 1.264383673667907715e+00 9.023641943931579590e-01 -9.779127240180969238e-01 -6.135923042893409729e-02 1.294679760932922363e+00 6.174272671341896057e-02 -1.256598758697509766e+01
0.000000000000000000e+00 -5.292233824729919434e-02 4.985437728464603424e-03 7.443642020225524902e-01 4.985437728464603424e-03 -5.549175739288330078e-01 1.917475950904190540e-03 1.264000177383422852e+00 -7.669904152862727642e-04 1.622184664011001587e-01 1.264383673667907715e+00 9.027476906776428223e-01 -9.775292277336120605e-01 -6.174272671341896057e-02 1.295063257217407227e+00 6.174272671341896057e-02 -1.256598758697509766e+01
0.000000000000000000e+00 -5.292233824729919434e-02 5.368932615965604782e-03 7.447476983070373535e-01 4.985437728464603424e-03 -5.549175739288330078e-01 2.300971187651157379e-03 1.264000177383422852e+00 -1.150485593825578690e-03 1.614514738321304321e-01 1.265150666236877441e+00 9.023641943931579590e-01 -9.779127240180969238e-01 -6.174272671341896057e-02 1.294296264648437500e+00 6.135923042893409729e-02 -1.256598758697509766e+01
0.000000000000000000e+00 -5.215534567832946777e-02 4.601942375302314758e-03 7.443642020225524902e-01 5.368932615965604782e-03 -5.549175739288330078e-01 1.533980830572545528e-03 1.264000177383422852e+00 -7.669904152862727642e-04 1.626019626855850220e-01 1.265150666236877441e+00 9.019806981086730957e-01 -9.775292277336120605e-01 -6.174272671341896057e-02 1.294296264648437500e+00 6.174272671341896057e-02 -1.256598758697509766e+01
0.000000000000000000e+00 -5.292233824729919434e-02 5.752427969127893448e-03 7.435972094535827637e-01 5.368932615965604782e-03 -5.545340776443481445e-01 1.917475950904190540e-03 1.263616681098937988e+00 -3.834952076431363821e-04 1.626019626855850220e-01 1.265917658805847168e+00 9.019806981086730957e-01 -9.771457910537719727e-01 -6.174272671341896057e-02 1.294296264648437500e+00 6.212622299790382385e-02 -1.256598758697509766e+01
0.000000000000000000e+00 -5.253884196281433105e-02 4.601942375302314758e-03 7.443642020225524902e-01 5.368932615965604782e-03 -5.549175739288330078e-01 1.533980830572545528e-03 1.263616681098937988e+00 -7.669904152862727642e-04 1.626019626855850220e-01 1.265150666236877441e+00 9.023641943931579590e-01 -9.779127240180969238e-01 -6.174272671341896057e-02 1.293912768363952637e+00 6.174272671341896057e-02 -1.256598758697509766e+01
0.000000000000000000e+00 -5.292233824729919434e-02 6.519418209791183472e-03 7.447476983070373535e-01 4.985437728464603424e-03 -5.545340776443481445e-01 2.300971187651157379e-03 1.263616681098937988e+00 -1.150485593825578690e-03 1.629854589700698853e-01 1.265150666236877441e+00 9.019806981086730957e-01 -9.779127240180969238e-01 -6.174272671341896057e-02 1.294296264648437500e+00 6.212622299790382385e-02 -1.256598758697509766e+01
0.000000000000000000e+00 -5.253884196281433105e-02 4.601942375302314758e-03 7.443642020225524902e-01 4.985437728464603424e-03 -5.545340776443481445e-01 2.300971187651157379e-03 1.264383673667907715e+00 -3.834952076431363821e-04 1.622184664011001587e-01 1.265534162521362305e+00 9.027476906776428223e-01 -9.775292277336120605e-01 -6.174272671341896057e-02 1.294296264648437500e+00 6.250971555709838867e-02 -1.256598758697509766e+01
0.000000000000000000e+00 -5.253884196281433105e-02 4.985437728464603424e-03 7.447476983070373535e-01 5.752427969127893448e-03 -5.545340776443481445e-01 2.300971187651157379e-03 1.263616681098937988e+00 -3.834952076431363821e-04 1.626019626855850220e-01 1.264767169952392578e+00 9.023641943931579590e-01 -9.771457910537719727e-01 -6.250971555709838867e-02 1.295063257217407227e+00 6.135923042893409729e-02 -1.256598758697509766e+01
0.000000000000000000e+00 -5.292233824729919434e-02 4.985437728464603424e-03 7.435972094535827637e-01 5.752427969127893448e-03 -5.549175739288330078e-01 2.684466307982802391e-03 1.264000177383422852e+00 -3.834952076431363821e-04 1.622184664011001587e-01 1.264383673667907715e+00 9.027476906776428223e-01 -9.771457910537719727e-01 -6.212622299790382385e-02 1.295063257217407227e+00 6.212622299790382385e-02 -1.256598758697509766e+01
0.000000000000000000e+00 -5.292233824729919434e-02 4.985437728464603424e-03 7.447476983070373535e-01 4.601942375302314758e-03 -5.545340776443481445e-01 1.150485593825578690e-03 1.264000177383422852e+00 -1.150485593825578690e-03 1.629854589700698853e-01 1.264383673667907715e+00 9.015972018241882324e-01 -9.775292277336120605e-01 -6.212622299790382385e-02 1.294679760932922363e+00 6.135923042893409729e-02 -1.256598758697509766e+01
0.000000000000000000e+00 -5.215534567832946777e-02 5.368932615965604782e-03 7.435972094535827637e-01 5.368932615965604782e-03 -5.545340776443481445e-01 1.917475950904190540e-03 1.264000177383422852e+00 -3.834952076431363821e-04 1.626019626855850220e-01 1.264767169952392578e+00 9.023641943931579590e-01 -9.775292277336120605e-01 -6.174272671341896057e-02 1.294679760932922363e+00 6.174272671341896057e-02 -1.256598758697509766e+01
0.000000000000000000e+00 -5.292233824729919434e-02 4.985437728464603424e-03 7.443642020225524902e-01 4.985437728464603424e-03 -5.553010702133178711e-01 2.300971187651157379e-03 1.264000177383422852e+00 -3.834952076431363821e-04 1.618349701166152954e-01 1.265150666236877441e+00 9.019806981086730957e-01 -9.775292277336120605e-01 -6.212622299790382385e-02 1.294679760932922363e+00 6.174272671341896057e-02 -1.256598758697509766e+01
0.000000000000000000e+00 -5.253884196281433105e-02 4.601942375302314758e-03 7.451311945915222168e-01 5.752427969127893448e-03 -5.549175739288330078e-01 1.917475950904190540e-03 1.264000177383422852e+00 -7.669904152862727642e-04 1.618349701166152954e-01 1.264767169952392578e+00 9.019806981086730957e-01 -9.779127240180969238e-01 -6.174272671341896057e-02 1.295063257217407227e+00 6.212622299790382385e-02 -1.256598758697509766e+01
0.000000000000000000e+00 -5.330583080649375916e-02 5.368932615965604782e-03 7.447476983070373535e-01 5.368932615965604782e-03 -5.549175739288330078e-01 1.917475950904190540e-03 1.264383673667907715e+00 -3.834952076431363821e-04 1.626019626855850220e-01 1.265534162521362305e+00 9.027476906776428223e-01 -9.775292277336120605e-01 -6.212622299790382385e-02 1.294679760932922363e+00 6.212622299790382385e-02 -1.256598758697509766e+01
0.000000000000000000e+00 -5.292233824729919434e-02 4.985437728464603424e-03 7.451311945915222168e-01 5.752427969127893448e-03 -5.549175739288330078e-01 1.917475950904190540e-03 1.263616681098937988e+00 -1.150485593825578690e-03 1.618349701166152954e-01 1.265534162521362305e+00 9.019806981086730957e-01 -9.775292277336120605e-01 -6.135923042893409729e-02 1.294679760932922363e+00 6.135923042893409729e-02 -1.256598758697509766e+01
0.000000000000000000e+00 -5.253884196281433105e-02 4.985437728464603424e-03 7.443642020225524902e-01 5.368932615965604782e-03 -5.545340776443481445e-01 2.300971187651157379e-03 1.264383673667907715e+00 -7.669904152862727642e-04 1.622184664011001587e-01 1.265917658805847168e+00 9.019806981086730957e-01 -9.779127240180969238e-01 -6.212622299790382385e-02 1.294679760932922363e+00 6.135923042893409729e-02 -1.256598758697509766e+01
0.000000000000000000e+00 -5.253884196281433105e-02 5.368932615965604782e-03 7.447476983070373535e-01 4.601942375302314758e-03 -5.545340776443481445e-01 3.067961661145091057e-03 1.263616681098937988e+00 -7.669904152862727642e-04 1.618349701166152954e-01 1.265150666236877441e+00 9.019806981086730957e-01 -9.775292277336120605e-01 -6.212622299790382385e-02 1.294679760932922363e+00 6.250971555709838867e-02 -1.256598758697509766e+01
0.000000000000000000e+00 -5.253884196281433105e-02 5.368932615965604782e-03 7.447476983070373535e-01 4.985437728464603424e-03 -5.553010702133178711e-01 1.533980830572545528e-03 1.263616681098937988e+00 -7.669904152862727642e-04 1.618349701166152954e-01 1.265534162521362305e+00 9.019806981086730957e-01 -9.775292277336120605e-01 -6.174272671341896057e-02 1.293912768363952637e+00 6.135923042893409729e-02 -1.256598758697509766e+01
0.000000000000000000e+00 -5.253884196281433105e-02 5.752427969127893448e-03 7.435972094535827637e-01 5.368932615965604782e-03 -5.553010702133178711e-01 1.917475950904190540e-03 1.263233184814453125e+00 -1.150485593825578690e-03 1.626019626855850220e-01 1.264767169952392578e+00 9.019806981086730957e-01 -9.775292277336120605e-01 -6.212622299790382385e-02 1.295063257217407227e+00 6.174272671341896057e-02 -1.256598758697509766e+01
0.000000000000000000e+00 -5.253884196281433105e-02 4.218447022140026093e-03 7.443642020225524902e-01 5.752427969127893448e-03 -5.541505813598632812e-01 1.533980830572545528e-03 1.263616681098937988e+00 -1.533980830572545528e-03 1.629854589700698853e-01 1.265534162521362305e+00 9.015972018241882324e-01 -9.771457910537719727e-01 -6.212622299790382385e-02 1.295063257217407227e+00 6.174272671341896057e-02 -1.256598758697509766e+01
0.000000000000000000e+00 -5.253884196281433105e-02 4.601942375302314758e-03 7.451311945915222168e-01 5.752427969127893448e-03 -5.545340776443481445e-01 1.917475950904190540e-03 1.264000177383422852e+00 -7.669904152862727642e-04 1.626019626855850220e-01 1.265150666236877441e+00 9.019806981086730957e-01 -9.779127240180969238e-01 -6.212622299790382385e-02 1.294679760932922363e+00 6.212622299790382385e-02 -1.256598758697509766e+01
0.000000000000000000e+00 -5.253884196281433105e-02 4.218447022140026093e-03 7.455146908760070801e-01 5.368932615965604782e-03 -5.541505813598632812e-01 2.300971187651157379e-03 1.264000177383422852e+00 -7.669904152862727642e-04 1.622184664011001587e-01 1.264383673667907715e+00 9.023641943931579590e-01 -9.775292277336120605e-01 -6.212622299790382385e-02 1.294679760932922363e+00 6.135923042893409729e-02 -1.256598758697509766e+01
0.000000000000000000e+00 -5.253884196281433105e-02 4.601942375302314758e-03 7.443642020225524902e-01 5.752427969127893448e-03 -5.549175739288330078e-01 1.917475950904190540e-03 1.264000177383422852e+00 -3.834952076431363821e-04 1.622184664011001587e-01 1.264767169952392578e+00 9.027476906776428223e-01 -9.771457910537719727e-01 -6.250971555709838867e-02 1.294679760932922363e+00 6.059224158525466919e-02 -1.256598758697509766e+01
0.000000000000000000e+00 -5.253884196281433105e-02 5.368932615965604782e-03 7.447476983070373535e-01 5.752427969127893448e-03 -5.553010702133178711e-01 1.150485593825578690e-03 1.264383673667907715e+00 -7.669904152862727642e-04 1.622184664011001587e-01 1.265150666236877441e+00 9.015972018241882324e-01 -9.775292277336120605e-01 -6.174272671341896057e-02 1.294296264648437500e+00 6.212622299790382385e-02 -1.256598758697509766e+01
0.000000000000000000e+00 -5.253884196281433105e-02 4.601942375302314758e-03 7.443642020225524902e-01 5.368932615965604782e-03 -5.549175739288330078e-01 1.917475950904190540e-03 1.264000177383422852e+00 -3.834952076431363821e-04 1.629854589700698853e-01 1.265534162521362305e+00 9.023641943931579590e-01 -9.779127240180969238e-01 -6.174272671341896057e-02 1.294296264648437500e+00 6.250971555709838867e-02 -1.256598758697509766e+01
0.000000000000000000e+00 -5.330583080649375916e-02 5.368932615965604782e-03 7.443642020225524902e-01 5.368932615965604782e-03 -5.549175739288330078e-01 1.917475950904190540e-03 1.264383673667907715e+00 0.000000000000000000e+00 1.618349701166152954e-01 1.265150666236877441e+00 9.019806981086730957e-01 -9.771457910537719727e-01 -6.212622299790382385e-02 1.295063257217407227e+00 6.174272671341896057e-02 -1.256598758697509766e+01
0.000000000000000000e+00 -5.215534567832946777e-02 4.601942375302314758e-03 7.447476983070373535e-01 5.368932615965604782e-03 -5.549175739288330078e-01 1.533980830572545528e-03 1.264000177383422852e+00 -7.669904152862727642e-04 1.626019626855850220e-01 1.265534162521362305e+00 9.015972018241882324e-01 -9.775292277336120605e-01 -6.250971555709838867e-02 1.294679760932922363e+00 6.212622299790382385e-02 -1.256598758697509766e+01
0.000000000000000000e+00 -5.292233824729919434e-02 4.985437728464603424e-03 7.447476983070373535e-01 5.368932615965604782e-03 -5.553010702133178711e-01 2.300971187651157379e-03 1.263616681098937988e+00 -7.669904152862727642e-04 1.622184664011001587e-01 1.264767169952392578e+00 9.027476906776428223e-01 -9.775292277336120605e-01 -6.174272671341896057e-02 1.294296264648437500e+00 6.174272671341896057e-02 -1.256598758697509766e+01
0.000000000000000000e+00 -5.253884196281433105e-02 4.985437728464603424e-03 7.447476983070373535e-01 4.985437728464603424e-03 -5.549175739288330078e-01 1.917475950904190540e-03 1.264000177383422852e+00 -1.533980830572545528e-03 1.629854589700698853e-01 1.265917658805847168e+00 9.015972018241882324e-01 -9.775292277336120605e-01 -6.289321184158325195e-02 1.294296264648437500e+00 6.097573786973953247e-02 -1.256598758697509766e+01
0.000000000000000000e+00 -5.292233824729919434e-02 5.368932615965604782e-03 7.443642020225524902e-01 5.752427969127893448e-03 -5.549175739288330078e-01 1.917475950904190540e-03 1.263616681098937988e+00 -7.669904152862727642e-04 1.622184664011001587e-01 1.265534162521362305e+00 9.019806981086730957e-01 -9.779127240180969238e-01 -6.174272671341896057e-02 1.293912768363952637e+00 6.174272671341896057e-02 -1.256598758697509766e+01
0.000000000000000000e+00 -5.253884196281433105e-02 4.601942375302314758e-03 7.451311945915222168e-01 4.985437728464603424e-03 -5.545340776443481445e-01 1.533980830572545528e-03 1.263233184814453125e+00 -1.150485593825578690e-03 1.622184664011001587e-01 1.265917658805847168e+00 9.019806981086730957e-01 -9.767622947692871094e-01 -6.212622299790382385e-02 1.295446753501892090e+00 6.174272671341896057e-02 -1.256598758697509766e+01
0.000000000000000000e+00 -5.215534567832946777e-02 4.601942375302314758e-03 7.443642020225524902e-01 5.368932615965604782e-03 -5.553010702133178711e-01 2.300971187651157379e-03 1.263616681098937988e+00 -1.150485593825578690e-03 1.626019626855850220e-01 1.264383673667907715e+00 9.019806981086730957e-01 -9.771457910537719727e-01 -6.212622299790382385e-02 1.295063257217407227e+00 6.174272671341896057e-02 -1.256598758697509766e+01
0.000000000000000000e+00 -5.330583080649375916e-02 4.601942375302314758e-03 7.447476983070373535e-01 4.985437728464603424e-03 -5.549175739288330078e-01 1.917475950904190540e-03 1.264383673667907715e+00 -7.669904152862727642e-04 1.622184664011001587e-01 1.265150666236877441e+00 9.019806981086730957e-01 -9.771457910537719727e-01 -6.174272671341896057e-02 1.294296264648437500e+00 6.174272671341896057e-02 -1.256598758697509766e+01
0.000000000000000000e+00 -5.292233824729919434e-02 4.985437728464603424e-03 7.447476983070373535e-01 5.368932615965604782e-03 -5.553010702133178711e-01 1.533980830572545528e-03 1.264000177383422852e+00 -7.669904152862727642e-04 1.626019626855850220e-01 1.264767169952392578e+00 9.023641943931579590e-01 -9.771457910537719727e-01 -6.212622299790382385e-02 1.293912768363952637e+00 6.174272671341896057e-02 -1.256598758697509766e+01
0.000000000000000000e+00 -5.292233824729919434e-02 5.368932615965604782e-03 7.443642020225524902e-01 4.985437728464603424e-03 -5.549175739288330078e-01 1.917475950904190540e-03 1.264383673667907715e+00 -3.834952076431363821e-04 1.626019626855850220e-01 1.265917658805847168e+00 9.015972018241882324e-01 -9.775292277336120605e-01 -6.174272671341896057e-02 1.294679760932922363e+00 6.135923042893409729e-02 -1.256598758697509766e+01
0.000000000000000000e+00 -5.253884196281433105e-02 4.985437728464603424e-03 7.447476983070373535e-01 4.985437728464603424e-03 -5.549175739288330078e-01 1.917475950904190540e-03 1.264000177383422852e+00 -7.669904152862727642e-04 1.622184664011001587e-01 1.264767169952392578e+00 9.015972018241882324e-01 -9.775292277336120605e-01 -6.212622299790382385e-02 1.293912768363952637e+00 6.135923042893409729e-02 -1.256598758697509766e+01
0.000000000000000000e+00 -5.253884196281433105e-02 5.368932615965604782e-03 7.443642020225524902e-01 5.368932615965604782e-03 -5.545340776443481445e-01 2.300971187651157379e-03 1.264000177383422852e+00 -7.669904152862727642e-04 1.622184664011001587e-01 1.265534162521362305e+00 9.012137055397033691e-01 -9.775292277336120605e-01 -6.212622299790382385e-02 1.294679760932922363e+00 6.174272671341896057e-02 -1.256598758697509766e+01
0.000000000000000000e+00 -5.292233824729919434e-02 4.985437728464603424e-03 7.443642020225524902e-01 5.752427969127893448e-03 -5.549175739288330078e-01 2.300971187651157379e-03 1.264000177383422852e+00 -3.834952076431363821e-04 1.626019626855850220e-01 1.265150666236877441e+00 9.019806981086730957e-01 -9.767622947692871094e-01 -6.250971555709838867e-02 1.294296264648437500e+00 6.174272671341896057e-02 -1.256598758697509766e+01
0.000000000000000000e+00 -5.292233824729919434e-02 4.601942375302314758e-03 7.447476983070373535e-01 5.368932615965604782e-03 -5.549175739288330078e-01 2.300971187651157379e-03 1.263616681098937988e+00 0.000000000000000000e+00 1.622184664011001587e-01 1.264767169952392578e+00 9.015972018241882324e-01 -9.767622947692871094e-01 -6.135923042893409729e-02 1.295063257217407227e+00 6.212622299790382385e-02 -1.256598758697509766e+01
0.000000000000000000e+00 -5.253884196281433105e-02 4.985437728464603424e-03 7.447476983070373535e-01 4.985437728464603424e-03 -5.545340776443481445e-01 1.917475950904190540e-03 1.264000177383422852e+00 0.000000000000000000e+00 1.626019626855850220e-01 1.265150666236877441e+00 9.019806981086730957e-01 -9.775292277336120605e-01 -6.212622299790382385e-02 1.295063257217407227e+00 6.174272671341896057e-02 -1.256598758697509766e+01
0.000000000000000000e+00 -5.292233824729919434e-02 4.985437728464603424e-03 7.443642020225524902e-01 5.752427969127893448e-03 -5.545340776443481445e-01 1.917475950904190540e-03 1.264000177383422852e+00 0.000000000000000000e+00 1.626019626855850220e-01 1.265917658805847168e+00 9.012137055397033691e-01 -9.782962203025817871e-01 -6.212622299790382385e-02 1.295063257217407227e+00 6.212622299790382385e-02 -1.256598758697509766e+01
0.000000000000000000e+00 -5.253884196281433105e-02 4.601942375302314758e-03 7.443642020225524902e-01 5.368932615965604782e-03 -5.553010702133178711e-01 2.684466307982802391e-03 1.264000177383422852e+00 -3.834952076431363821e-04 1.618349701166152954e-01 1.264767169952392578e+00 9.019806981086730957e-01 -9.779127240180969238e-01 -6.212622299790382385e-02 1.295063257217407227e+00 6.135923042893409729e-02 -1.256598758697509766e+01
0.000000000000000000e+00 -5.292233824729919434e-02 4.985437728464603424e-03 7.443642020225524902e-01 5.752427969127893448e-03 -5.549175739288330078e-01 1.917475950904190540e-03 1.263616681098937988e+00 -3.834952076431363821e-04 1.622184664011001587e-01 1.265150666236877441e+00 9.019806981086730957e-01 -9.771457910537719727e-01 -6.212622299790382385e-02 1.294296264648437500e+00 6.174272671341896057e-02 -1.256598758697509766e+01
0.000000000000000000e+00 -5.253884196281433105e-02 5.368932615965604782e-03 7.443642020225524902e-01 5.752427969127893448e-03 -5.541505813598632812e-01 2.300971187651157379e-03 1.264000177383422852e+00 -7.669904152862727642e-04 1.626019626855850220e-01 1.265917658805847168e+00 9.015972018241882324e-01 -9.779127240180969238e-01 -6.174272671341896057e-02 1.294679760932922363e+00 6.174272671341896057e-02 -1.256598758697509766e+01
0.000000000000000000e+00 -5.292233824729919434e-02 4.601942375302314758e-03 7.443642020225524902e-01 5.368932615965604782e-03 -5.553010702133178711e-01 1.917475950904190540e-03 1.263233184814453125e+00 -7.669904152862727642e-04 1.618349701166152954e-01 1.265534162521362305e+00 9.019806981086730957e-01 -9.775292277336120605e-01 -6.250971555709838867e-02 1.294679760932922363e+00 6.250971555709838867e-02 -1.256598758697509766e+01
0.000000000000000000e+00 -5.253884196281433105e-02 4.985437728464603424e-03 7.447476983070373535e-01 5.368932615965604782e-03 -5.545340776443481445e-01 1.917475950904190540e-03 1.264000177383422852e+00 -7.669904152862727642e-04 1.626019626855850220e-01 1.265150666236877441e+00 9.019806981086730957e-01 -9.779127240180969238e-01 -6.250971555709838867e-02 1.294679760932922363e+00 6.212622299790382385e-02 -1.256598758697509766e+01
0.000000000000000000e+00 -5.292233824729919434e-02 4.601942375302314758e-03 7.447476983070373535e-01 4.985437728464603424e-03 -5.549175739288330078e-01 1.917475950904190540e-03 1.263616681098937988e+00 0.000000000000000000e+00 1.622184664011001587e-01 1.265534162521362305e+00 9.023641943931579590e-01 -9.779127240180969238e-01 -6.212622299790382385e-02 1.294679760932922363e+00 6.135923042893409729e-02 -1.256598758697509766e+01
0.000000000000000000e+00 -5.253884196281433105e-02 4.985437728464603424e-03 7.451311945915222168e-01 4.985437728464603424e-03 -5.545340776443481445e-01 1.917475950904190540e-03 1.263616681098937988e+00 -1.533980830572545528e-03 1.614514738321304321e-01 1.264767169952392578e+00 9.015972018241882324e-01 -9.779127240180969238e-01 -6.135923042893409729e-02 1.295063257217407227e+00 6.250971555709838867e-02 -1.256598758697509766e+01
0.000000000000000000e+00 -5.253884196281433105e-02 5.368932615965604782e-03 7.435972094535827637e-01 5.752427969127893448e-03 -5.549175739288330078e-01 2.300971187651157379e-03 1.264000177383422852e+00 -7.669904152862727642e-04 1.626019626855850220e-01 1.264767169952392578e+00 9.019806981086730957e-01 -9.771457910537719727e-01 -6.135923042893409729e-02 1.295063257217407227e+00 6.174272671341896057e-02 -1.256598758697509766e+01
0.000000000000000000e+00 -5.292233824729919434e-02 4.985437728464603424e-03 7.435972094535827637e-01 5.368932615965604782e-03 -5.545340776443481445e-01 1.917475950904190540e-03 1.264383673667907715e+00 -1.533980830572545528e-03 1.626019626855850220e-01 1.265150666236877441e+00 9.019806981086730957e-01 -9.775292277336120605e-01 -6.135923042893409729e-02 1.295446753501892090e+00 6.135923042893409729e-02 -1.256598758697509766e+01
0.000000000000000000e+00 -5.215534567832946777e-02 4.985437728464603424e-03 7.443642020225524902e-01 4.985437728464603424e-03 -5.553010702133178711e-01 2.300971187651157379e-03 1.264000177383422852e+00 -3.834952076431363821e-04 1.629854589700698853e-01 1.265150666236877441e+00 9.019806981086730957e-01 -9.771457910537719727e-01 -6.212622299790382385e-02 1.295446753501892090e+00 6.212622299790382385e-02 -1.256598758697509766e+01
0.000000000000000000e+00 -5.253884196281433105e-02 4.601942375302314758e-03 7.447476983070373535e-01 4.985437728464603424e-03 -5.549175739288330078e-01 1.533980830572545528e-03 1.264383673667907715e+00 -1.150485593825578690e-03 1.622184664011001587e-01 1.265534162521362305e+00 9.012137055397033691e-01 -9.775292277336120605e-01 -6.174272671341896057e-02 1.294679760932922363e+00 6.212622299790382385e-02 -1.256598758697509766e+01
0.000000000000000000e+00 -5.292233824729919434e-02 4.985437728464603424e-03 7.435972094535827637e-01 5.368932615965604782e-03 -5.549175739288330078e-01 1.533980830572545528e-03 1.264000177383422852e+00 -1.150485593825578690e-03 1.626019626855850220e-01 1.265150666236877441e+00 9.019806981086730957e-01 -9.775292277336120605e-01 -6.212622299790382385e-02 1.295063257217407227e+00 6.135923042893409729e-02 -1.256598758697509766e+01
0.000000000000000000e+00 -5.292233824729919434e-02 4.985437728464603424e-03 7.451311945915222168e-01 5.368932615965604782e-03 -5.553010702133178711e-01 1.917475950904190540e-03 1.264000177383422852e+00 -7.669904152862727642e-04 1.626019626855850220e-01 1.265150666236877441e+00 9.015972018241882324e-01 -9.775292277336120605e-01 -6.250971555709838867e-02 1.295063257217407227e+00 6.135923042893409729e-02 -1.256598758697509766e+01
0.000000000000000000e+00 -5.253884196281433105e-02 5.368932615965604782e-03 7.443642020225524902e-01 4.985437728464603424e-03 -5.553010702133178711e-01 1.917475950904190540e-03 1.264000177383422852e+00 -7.669904152862727642e-04 1.626019626855850220e-01 1.264383673667907715e+00 9.012137055397033691e-01 -9.775292277336120605e-01 -6.174272671341896057e-02 1.296213746070861816e+00 6.289321184158325195e-02 -1.256598758697509766e+01
0.000000000000000000e+00 -5.253884196281433105e-02 5.368932615965604782e-03 7.443642020225524902e-01 5.368932615965604782e-03 -5.553010702133178711e-01 2.300971187651157379e-03 1.264383673667907715e+00 -1.150485593825578690e-03 1.622184664011001587e-01 1.265150666236877441e+00 9.015972018241882324e-01 -9.779127240180969238e-01 -6.250971555709838867e-02 1.295063257217407227e+00 6.174272671341896057e-02 -1.256598758697509766e+01
0.000000000000000000e+00 -5.215534567832946777e-02 4.601942375302314758e-03 7.443642020225524902e-01 5.368932615965604782e-03 -5.549175739288330078e-01 1.533980830572545528e-03 1.264383673667907715e+00 -7.669904152862727642e-04 1.618349701166152954e-01 1.265150666236877441e+00 9.019806981086730957e-01 -9.779127240180969238e-01 -6.212622299790382385e-02 1.296213746070861816e+00 6.174272671341896057e-02 -1.256598758697509766e+01
0.000000000000000000e+00 -5.253884196281433105e-02 5.752427969127893448e-03 7.447476983070373535e-01 5.368932615965604782e-03 -5.549175739288330078e-01 1.533980830572545528e-03 1.264000177383422852e+00 -3.834952076431363821e-04 1.629854589700698853e-01 1.265150666236877441e+00 9.015972018241882324e-01 -9.782962203025817871e-01 -6.174272671341896057e-02 1.296213746070861816e+00 6.212622299790382385e-02 -1.256598758697509766e+01
0.000000000000000000e+00 -5.253884196281433105e-02 4.985437728464603424e-03 7.447476983070373535e-01 4.985437728464603424e-03 -5.553010702133178711e-01 2.300971187651157379e-03 1.264767169952392578e+00 -7.669904152862727642e-04 1.626019626855850220e-01 1.264383673667907715e+00 9.019806981086730957e-01 -9.782962203025817871e-01 -6.212622299790382385e-02 1.296597242355346680e+00 6.174272671341896057e-02 -1.256598758697509766e+01
0.000000000000000000e+00 -5.292233824729919434e-02 4.218447022140026093e-03 7.443642020225524902e-01 5.752427969127893448e-03 -5.549175739288330078e-01 2.684466307982802391e-03 1.264000177383422852e+00 -7.669904152862727642e-04 1.622184664011001587e-01 1.264767169952392578e+00 9.027476906776428223e-01 -9.779127240180969238e-01 -6.250971555709838867e-02 1.295446753501892090e+00 6.250971555709838867e-02 -1.256598758697509766e+01
0.000000000000000000e+00 -5.330583080649375916e-02 4.985437728464603424e-03 7.443642020225524902e-01 5.368932615965604782e-03 -5.549175739288330078e-01 1.917475950904190540e-03 1.264000177383422852e+00 -7.669904152862727642e-04 1.622184664011001587e-01 1.264383673667907715e+00 9.012137055397033691e-01 -9.786797165870666504e-01 -6.250971555709838867e-02 1.296213746070861816e+00 6.174272671341896057e-02 -1.256598758697509766e+01
0.000000000000000000e+00 -5.253884196281433105e-02 5.368932615965604782e-03 7.443642020225524902e-01 5.368932615965604782e-03 -5.553010702133178711e-01 2.300971187651157379e-03 1.264000177383422852e+00 0.000000000000000000e+00 1.622184664011001587e-01 1.263616681098937988e+00 9.019806981086730957e-01 -9.786797165870666504e-01 -6.212622299790382385e-02 1.296980738639831543e+00 6.174272671341896057e-02 -1.256598758697509766e+01
0.000000000000000000e+00 -5.292233824729919434e-02 4.601942375302314758e-03 7.447476983070373535e-01 4.985437728464603424e-03 -5.549175739288330078e-01 2.300971187651157379e-03 1.264000177383422852e+00 -3.834952076431363821e-04 1.626019626855850220e-01 1.263616681098937988e+00 9.023641943931579590e-01 -9.790632128715515137e-01 -6.174272671341896057e-02 1.296597242355346680e+00 6.174272671341896057e-02 -1.256598758697509766e+01
0.000000000000000000e+00 -5.215534567832946777e-02 4.218447022140026093e-03 7.447476983070373535e-01 5.368932615965604782e-03 -5.541505813598632812e-01 1.917475950904190540e-03 1.264000177383422852e+00 -7.669904152862727642e-04 1.626019626855850220e-01 1.263233184814453125e+00 9.023641943931579590e-01 -9.798302054405212402e-01 -6.289321184158325195e-02 1.296980738639831543e+00 6.174272671341896057e-02 -1.256598758697509766e+01
0.000000000000000000e+00 -5.253884196281433105e-02 4.985437728464603424e-03 7.435972094535827637e-01 4.985437728464603424e-03 -5.549175739288330078e-01 1.917475950904190540e-03 1.264000177383422852e+00 -3.834952076431363821e-04 1.626019626855850220e-01 1.262849688529968262e+00 9.012137055397033691e-01 -9.802137017250061035e-01 -6.289321184158325195e-02 1.295830249786376953e+00 6.174272671341896057e-02 -1.256598758697509766e+01
0.000000000000000000e+00 -5.215534567832946777e-02 4.601942375302314758e-03 7.455146908760070801e-01 5.368932615965604782e-03 -5.545340776443481445e-01 1.917475950904190540e-03 1.264383673667907715e+00 -7.669904152862727642e-04 1.626019626855850220e-01 1.262082695960998535e+00 9.023641943931579590e-01 -9.794467091560363770e-01 -6.250971555709838867e-02 1.296980738639831543e+00 6.174272671341896057e-02 -1.256598758697509766e+01
0.000000000000000000e+00 -5.292233824729919434e-02 5.368932615965604782e-03 7.447476983070373535e-01 4.985437728464603424e-03 -5.545340776443481445e-01 2.300971187651157379e-03 1.264383673667907715e+00 -1.150485593825578690e-03 1.629854589700698853e-01 1.263233184814453125e+00 9.023641943931579590e-01 -9.802137017250061035e-01 -6.250971555709838867e-02 1.296213746070861816e+00 6.174272671341896057e-02 -1.256598758697509766e+01
0.000000000000000000e+00 -5.253884196281433105e-02 4.601942375302314758e-03 7.451311945915222168e-01 4.985437728464603424e-03 -5.549175739288330078e-01 1.917475950904190540e-03 1.264000177383422852e+00 -7.669904152862727642e-04 1.622184664011001587e-01 1.261699199676513672e+00 9.015972018241882324e-01 -9.805971980094909668e-01 -6.327670812606811523e-02 1.295830249786376953e+00 6.097573786973953247e-02 -1.256598758697509766e+01
0.000000000000000000e+00 -5.330583080649375916e-02 4.601942375302314758e-03 7.443642020225524902e-01 4.985437728464603424e-03 -5.549175739288330078e-01 1.917475950904190540e-03 1.263616681098937988e+00 -7.669904152862727642e-04 1.618349701166152954e-01 1.261315703392028809e+00 9.015972018241882324e-01 -9.809806942939758301e-01 -6.289321184158325195e-02 1.296980738639831543e+00 6.135923042893409729e-02 -1.256598758697509766e+01
0.000000000000000000e+00 -5.253884196281433105e-02 4.985437728464603424e-03 7.435972094535827637e-01 5.752427969127893448e-03 -5.549175739288330078e-01 2.300971187651157379e-03 1.263616681098937988e+00 0.000000000000000000e+00 1.622184664011001587e-01 1.260548710823059082e+00 9.012137055397033691e-01 -9.813641905784606934e-01 -6.212622299790382385e-02 1.296980738639831543e+00 6.135923042893409729e-02 -1.256598758697509766e+01
0.000000000000000000e+00 -5.215534567832946777e-02 5.368932615965604782e-03 7.443642020225524902e-01 5.368932615965604782e-03 -5.553010702133178711e-01 2.300971187651157379e-03 1.264383673667907715e+00 -7.669904152862727642e-04 1.622184664011001587e-01 1.259781718254089355e+00 9.008302092552185059e-01 -9.813641905784606934e-01 -6.250971555709838867e-02 1.297747731208801270e+00 6.174272671341896057e-02 -1.256598758697509766e+01
0.000000000000000000e+00 -5.292233824729919434e-02 5.752427969127893448e-03 7.443642020225524902e-01 5.752427969127893448e-03 -5.549175739288330078e-01 2.684466307982802391e-03 1.264000177383422852e+00 0.000000000000000000e+00 1.626019626855850220e-01 1.258631229400634766e+00 9.000632166862487793e-01 -9.825146794319152832e-01 -6.212622299790382385e-02 1.297747731208801270e+00 6.174272671341896057e-02 -1.256598758697509766e+01
0.000000000000000000e+00 -5.330583080649375916e-02 4.601942375302314758e-03 7.443642020225524902e-01 4.985437728464603424e-03 -5.549175739288330078e-01 2.684466307982802391e-03 1.264000177383422852e+00 -7.669904152862727642e-04 1.629854589700698853e-01 1.257864236831665039e+00 8.996797204017639160e-01 -9.828981757164001465e-01 -6.212622299790382385e-02 1.298898220062255859e+00 6.174272671341896057e-02 -1.256598758697509766e+01
0.000000000000000000e+00 -5.253884196281433105e-02 3.834951901808381081e-03 7.447476983070373535e-01 5.368932615965604782e-03 -5.549175739288330078e-01 1.917475950904190540e-03 1.264383673667907715e+00 -3.834952076431363821e-04 1.622184664011001587e-01 1.257097244262695312e+00 8.996797204017639160e-01 -9.832816720008850098e-01 -6.174272671341896057e-02 1.300048708915710449e+00 6.212622299790382385e-02 -1.256598758697509766e+01
0.000000000000000000e+00 -5.292233824729919434e-02 4.218447022140026093e-03 7.451311945915222168e-01 4.985437728464603424e-03 -5.545340776443481445e-01 1.917475950904190540e-03 1.264383673667907715e+00 -7.669904152862727642e-04 1.629854589700698853e-01 1.255946755409240723e+00 8.996797204017639160e-01 -9.840486645698547363e-01 -6.289321184158325195e-02 1.300432205200195312e+00 6.212622299790382385e-02 -1.256598758697509766e+01
0.000000000000000000e+00 -5.253884196281433105e-02 4.985437728464603424e-03 7.447476983070373535e-01 5.752427969127893448e-03 -5.545340776443481445e-01 1.917475950904190540e-03 1.264000177383422852e+00 -7.669904152862727642e-04 1.618349701166152954e-01 1.255179762840270996e+00 8.989127278327941895e-01 -9.844321608543395996e-01 -6.212622299790382385e-02 1.302733182907104492e+00 6.212622299790382385e-02 -1.256598758697509766e+01
0.000000000000000000e+00 -5.215534567832946777e-02 4.601942375302314758e-03 7.443642020225524902e-01 5.368932615965604782e-03 -5.541505813598632812e-01 2.684466307982802391e-03 1.263616681098937988e+00 -3.834952076431363821e-04 1.622184664011001587e-01 1.253645777702331543e+00 8.989127278327941895e-01 -9.844321608543395996e-01 -6.212622299790382385e-02 1.303883671760559082e+00 6.212622299790382385e-02 -1.256598758697509766e+01
0.000000000000000000e+00 -5.253884196281433105e-02 4.601942375302314758e-03 7.443642020225524902e-01 5.752427969127893448e-03 -5.541505813598632812e-01 2.300971187651157379e-03 1.263616681098937988e+00 -7.669904152862727642e-04 1.622184664011001587e-01 1.252111792564392090e+00 8.985292315483093262e-01 -9.851991534233093262e-01 -6.212622299790382385e-02 1.306568145751953125e+00 6.174272671341896057e-02 -1.256598758697509766e+01
0.000000000000000000e+00 -5.253884196281433105e-02 5.368932615965604782e-03 7.443642020225524902e-01 5.752427969127893448e-03 -5.549175739288330078e-01 1.917475950904190540e-03 1.264383673667907715e+00 -3.834952076431363821e-04 1.622184664011001587e-01 1.250194311141967773e+00 8.973787426948547363e-01 -9.855826497077941895e-01 -6.289321184158325195e-02 1.308102130889892578e+00 6.135923042893409729e-02 -1.256598758697509766e+01
0.000000000000000000e+00 -5.253884196281433105e-02 5.368932615965604782e-03 7.443642020225524902e-01 5.368932615965604782e-03 -5.549175739288330078e-01 2.300971187651157379e-03 1.264383673667907715e+00 0.000000000000000000e+00 1.618349701166152954e-01 1.247893333435058594e+00 8.981457352638244629e-01 -9.855826497077941895e-01 -6.289321184158325195e-02 1.310019612312316895e+00 6.212622299790382385e-02 -1.256598758697509766e+01
0.000000000000000000e+00 -5.292233824729919434e-02 5.368932615965604782e-03 7.443642020225524902e-01 5.368932615965604782e-03 -5.553010702133178711e-01 2.300971187651157379e-03 1.264767169952392578e+00 -7.669904152862727642e-04 1.614514738321304321e-01 1.245592355728149414e+00 8.973787426948547363e-01 -9.863496422767639160e-01 -6.327670812606811523e-02 1.313087582588195801e+00 6.135923042893409729e-02 -1.256598758697509766e+01
0.000000000000000000e+00 -5.253884196281433105e-02 4.218447022140026093e-03 7.443642020225524902e-01 5.752427969127893448e-03 -5.553010702133178711e-01 2.300971187651157379e-03 1.263616681098937988e+00 -3.834952076431363821e-04 1.614514738321304321e-01 1.244058370590209961e+00 8.969952464103698730e-01 -9.875001311302185059e-01 -6.289321184158325195e-02 1.313854575157165527e+00 6.135923042893409729e-02 -1.256598758697509766e+01
0.000000000000000000e+00 -5.292233824729919434e-02 4.985437728464603424e-03 7.443642020225524902e-01 4.985437728464603424e-03 -5.549175739288330078e-01 1.917475950904190540e-03 1.264000177383422852e+00 -3.834952076431363821e-04 1.622184664011001587e-01 1.240606904029846191e+00 8.954612612724304199e-01 -9.878836274147033691e-01 -6.366020441055297852e-02 1.315388560295104980e+00 6.212622299790382385e-02 -1.256598758697509766e+01
0.000000000000000000e+00 -5.253884196281433105e-02 4.985437728464603424e-03 7.447476983070373535e-01 5.368932615965604782e-03 -5.549175739288330078e-01 2.300971187651157379e-03 1.263616681098937988e+00 -1.150485593825578690e-03 1.606844812631607056e-01 1.237922549247741699e+00 8.950777649879455566e-01 -9.875001311302185059e-01 -6.366020441055297852e-02 1.315772056579589844e+00 6.212622299790382385e-02 -1.256598758697509766e+01
0.000000000000000000e+00 -5.292233824729919434e-02 4.218447022140026093e-03 7.443642020225524902e-01 5.752427969127893448e-03 -5.553010702133178711e-01 2.684466307982802391e-03 1.263616681098937988e+00 -7.669904152862727642e-04 1.606844812631607056e-01 1.235621571540832520e+00 8.939272761344909668e-01 -9.882671236991882324e-01 -6.289321184158325195e-02 1.317306041717529297e+00 6.174272671341896057e-02 -1.256598758697509766e+01
0.000000000000000000e+00 -5.253884196281433105e-02 4.985437728464603424e-03 7.447476983070373535e-01 4.985437728464603424e-03 -5.553010702133178711e-01 1.917475950904190540e-03 1.263233184814453125e+00 -3.834952076431363821e-04 1.603009849786758423e-01 1.233704090118408203e+00 8.935437798500061035e-01 -9.882671236991882324e-01 -6.366020441055297852e-02 1.317689538002014160e+00 6.174272671341896057e-02 -1.256598758697509766e+01
0.000000000000000000e+00 -5.292233824729919434e-02 4.218447022140026093e-03 7.447476983070373535e-01 5.752427969127893448e-03 -5.549175739288330078e-01 2.300971187651157379e-03 1.264383673667907715e+00 -7.669904152862727642e-04 1.599175035953521729e-01 1.232170104980468750e+00 8.912428617477416992e-01 -9.890341162681579590e-01 -6.327670812606811523e-02 1.319223523139953613e+00 6.250971555709838867e-02 -1.256598758697509766e+01
0.000000000000000000e+00 -5.253884196281433105e-02 4.985437728464603424e-03 7.447476983070373535e-01 4.985437728464603424e-03 -5.545340776443481445e-01 1.533980830572545528e-03 1.264000177383422852e+00 -3.834952076431363821e-04 1.599175035953521729e-01 1.229869127273559570e+00 8.904758691787719727e-01 -9.894176125526428223e-01 -6.404370069503784180e-02 1.319990515708923340e+00 6.174272671341896057e-02 -1.256598758697509766e+01
0.000000000000000000e+00 -5.292233824729919434e-02 4.985437728464603424e-03 7.451311945915222168e-01 4.985437728464603424e-03 -5.549175739288330078e-01 2.300971187651157379e-03 1.264000177383422852e+00 -3.834952076431363821e-04 1.606844812631607056e-01 1.227184653282165527e+00 8.893253803253173828e-01 -9.898011088371276855e-01 -6.404370069503784180e-02 1.320757508277893066e+00 6.059224158525466919e-02 -1.256598758697509766e+01
0.000000000000000000e+00 -5.292233824729919434e-02 4.601942375302314758e-03 7.447476983070373535e-01 5.368932615965604782e-03 -5.545340776443481445e-01 2.684466307982802391e-03 1.263616681098937988e+00 -1.150485593825578690e-03 1.603009849786758423e-01 1.224500179290771484e+00 8.877913951873779297e-01 -9.901846051216125488e-01 -6.327670812606811523e-02 1.322674989700317383e+00 5.867476388812065125e-02 -1.256598758697509766e+01
0.000000000000000000e+00 -5.292233824729919434e-02 5.752427969127893448e-03 7.443642020225524902e-01 5.368932615965604782e-03 -5.549175739288330078e-01 2.300971187651157379e-03 1.264383673667907715e+00 -1.150485593825578690e-03 1.599175035953521729e-01 1.221432209014892578e+00 8.866409063339233398e-01 -9.905681014060974121e-01 -6.366020441055297852e-02 1.324208855628967285e+00 5.560680478811264038e-02 -1.256598758697509766e+01
0.000000000000000000e+00 -5.215534567832946777e-02 4.218447022140026093e-03 7.455146908760070801e-01 4.985437728464603424e-03 -5.553010702133178711e-01 2.300971187651157379e-03 1.263616681098937988e+00 -1.533980830572545528e-03 1.606844812631607056e-01 1.218364238739013672e+00 8.851069211959838867e-01 -9.913350939750671387e-01 -6.366020441055297852e-02 1.326126337051391602e+00 5.177185311913490295e-02 -1.256598758697509766e+01
0.000000000000000000e+00 -5.215534567832946777e-02 4.218447022140026093e-03 7.443642020225524902e-01 5.752427969127893448e-03 -5.545340776443481445e-01 1.917475950904190540e-03 1.264767169952392578e+00 -1.150485593825578690e-03 1.599175035953521729e-01 1.216063261032104492e+00 8.828059434890747070e-01 -9.917185902595520020e-01 -6.327670812606811523e-02 1.327660322189331055e+00 4.985437542200088501e-02 -1.256598758697509766e+01
0.000000000000000000e+00 -5.253884196281433105e-02 4.601942375302314758e-03 7.443642020225524902e-01 5.752427969127893448e-03 -5.553010702133178711e-01 1.150485593825578690e-03 1.264000177383422852e+00 -3.834952076431363821e-04 1.603009849786758423e-01 1.213378787040710449e+00 8.816554546356201172e-01 -9.917185902595520020e-01 -6.366020441055297852e-02 1.330344796180725098e+00 4.870389029383659363e-02 -1.256598758697509766e+01
0.000000000000000000e+00 -5.330583080649375916e-02 4.218447022140026093e-03 7.443642020225524902e-01 4.985437728464603424e-03 -5.549175739288330078e-01 2.300971187651157379e-03 1.264383673667907715e+00 -7.669904152862727642e-04 1.603009849786758423e-01 1.210694313049316406e+00 8.801214694976806641e-01 -9.932525753974914551e-01 -6.327670812606811523e-02 1.331495285034179688e+00 4.832039400935173035e-02 -1.256598758697509766e+01
0.000000000000000000e+00 -5.292233824729919434e-02 4.601942375302314758e-03 7.447476983070373535e-01 5.752427969127893448e-03 -5.553010702133178711e-01 1.150485593825578690e-03 1.264383673667907715e+00 -1.150485593825578690e-03 1.599175035953521729e-01 1.207626342773437500e+00 8.789709806442260742e-01 -9.928690791130065918e-01 -6.327670812606811523e-02 1.333796262741088867e+00 4.908738657832145691e-02 -1.256598758697509766e+01
0.000000000000000000e+00 -5.292233824729919434e-02 4.985437728464603424e-03 7.447476983070373535e-01 5.368932615965604782e-03 -5.549175739288330078e-01 1.917475950904190540e-03 1.263616681098937988e+00 -7.669904152862727642e-04 1.606844812631607056e-01 1.204941868782043457e+00 8.759030103683471680e-01 -9.940195679664611816e-01 -6.289321184158325195e-02 1.335713744163513184e+00 4.755340516567230225e-02 -1.256598758697509766e+01
0.000000000000000000e+00 -5.292233824729919434e-02 4.985437728464603424e-03 7.435972094535827637e-01 5.368932615965604782e-03 -5.545340776443481445e-01 1.533980830572545528e-03 1.264000177383422852e+00 -3.834952076431363821e-04 1.610679775476455688e-01 1.202257394790649414e+00 8.751360177993774414e-01 -9.947865605354309082e-01 -6.366020441055297852e-02 1.337247729301452637e+00 4.716990888118743896e-02 -1.256598758697509766e+01
0.000000000000000000e+00 -5.292233824729919434e-02 4.601942375302314758e-03 7.443642020225524902e-01 4.985437728464603424e-03 -5.549175739288330078e-01 1.917475950904190540e-03 1.264000177383422852e+00 -7.669904152862727642e-04 1.599175035953521729e-01 1.199189424514770508e+00 8.728350400924682617e-01 -9.955535531044006348e-01 -6.327670812606811523e-02 1.339932203292846680e+00 4.640292003750801086e-02 -1.256598758697509766e+01
0.000000000000000000e+00 -5.330583080649375916e-02 4.601942375302314758e-03 7.443642020225524902e-01 5.368932615965604782e-03 -5.549175739288330078e-01 1.917475950904190540e-03 1.264383673667907715e+00 -1.150485593825578690e-03 1.599175035953521729e-01 1.197272062301635742e+00 8.716846108436584473e-01 -9.963205456733703613e-01 -6.327670812606811523e-02 1.341466188430786133e+00 4.601942375302314758e-02 -1.256598758697509766e+01
0.000000000000000000e+00 -5.253884196281433105e-02 4.985437728464603424e-03 7.451311945915222168e-01 4.985437728464603424e-03 -5.549175739288330078e-01 2.300971187651157379e-03 1.264767169952392578e+00 -7.669904152862727642e-04 1.610679775476455688e-01 1.193820595741271973e+00 8.686166405677795410e-01 -9.963205456733703613e-01 -6.289321184158325195e-02 1.343767166137695312e+00 4.563592746853828430e-02 -1.256598758697509766e+01
0.000000000000000000e+00 -5.292233824729919434e-02 4.985437728464603424e-03 7.447476983070373535e-01 4.985437728464603424e-03 -5.545340776443481445e-01 1.917475950904190540e-03 1.263616681098937988e+00 -3.834952076431363821e-04 1.606844812631607056e-01 1.191136121749877930e+00 8.663156628608703613e-01 -9.978545308113098145e-01 -6.366020441055297852e-02 1.346068143844604492e+00 4.410194605588912964e-02 -1.256598758697509766e+01
0.000000000000000000e+00 -5.330583080649375916e-02 4.601942375302314758e-03 7.447476983070373535e-01 5.368932615965604782e-03 -5.553010702133178711e-01 1.533980830572545528e-03 1.264767169952392578e+00 -1.533980830572545528e-03 1.603009849786758423e-01 1.188451647758483887e+00 8.647816777229309082e-01 -9.982380270957946777e-01 -6.289321184158325195e-02 1.349136114120483398e+00 4.333495721220970154e-02 -1.256598758697509766e+01
0.000000000000000000e+00 -5.292233824729919434e-02 5.368932615965604782e-03 7.447476983070373535e-01 6.135923322290182114e-03 -5.545340776443481445e-01 1.917475950904190540e-03 1.263616681098937988e+00 0.000000000000000000e+00 1.603009849786758423e-01 1.185383677482604980e+00 8.628641963005065918e-01 -9.986214637756347656e-01 -6.404370069503784180e-02 1.351437091827392578e+00 4.141747951507568359e-02 -1.256598758697509766e+01
0.000000000000000000e+00 -5.215534567832946777e-02 4.985437728464603424e-03 7.447476983070373535e-01 5.368932615965604782e-03 -5.553010702133178711e-01 1.533980830572545528e-03 1.263616681098937988e+00 -1.533980830572545528e-03 1.599175035953521729e-01 1.182699203491210938e+00 8.597962260246276855e-01 -1.000155448913574219e+00 -6.366020441055297852e-02 1.354505062103271484e+00 3.988350182771682739e-02 -1.256598758697509766e+01
0.000000000000000000e+00 -5.253884196281433105e-02 4.218447022140026093e-03 7.451311945915222168e-01 4.601942375302314758e-03 -5.545340776443481445e-01 2.684466307982802391e-03 1.263616681098937988e+00 -3.834952076431363821e-04 1.599175035953521729e-01 1.181165218353271484e+00 8.578787446022033691e-01 -1.000538945198059082e+00 -6.327670812606811523e-02 1.356039047241210938e+00 3.834952041506767273e-02 -1.256598758697509766e+01
0.000000000000000000e+00 -5.253884196281433105e-02 4.985437728464603424e-03 7.443642020225524902e-01 5.368932615965604782e-03 -5.549175739288330078e-01 1.533980830572545528e-03 1.263616681098937988e+00 -7.669904152862727642e-04 1.603009849786758423e-01 1.177713751792907715e+00 8.559612631797790527e-01 -1.001689434051513672e+00 -6.327670812606811523e-02 1.358723521232604980e+00 3.604855015873908997e-02 -1.256598758697509766e+01
0.000000000000000000e+00 -5.253884196281433105e-02 4.601942375302314758e-03 7.447476983070373535e-01 5.368932615965604782e-03 -5.545340776443481445e-01 2.300971187651157379e-03 1.264000177383422852e+00 -7.669904152862727642e-04 1.603009849786758423e-01 1.175029277801513672e+00 8.528932929039001465e-01 -1.002072930335998535e+00 -6.289321184158325195e-02 1.361791491508483887e+00 3.413107246160507202e-02 -1.256598758697509766e+01
0.000000000000000000e+00 -5.292233824729919434e-02 4.985437728464603424e-03 7.447476983070373535e-01 5.368932615965604782e-03 -5.549175739288330078e-01 2.300971187651157379e-03 1.264000177383422852e+00 -1.533980830572545528e-03 1.610679775476455688e-01 1.171961307525634766e+00 8.509758710861206055e-01 -1.003223419189453125e+00 -6.327670812606811523e-02 1.363325476646423340e+00 3.183010220527648926e-02 -1.256598758697509766e+01
0.000000000000000000e+00 -5.253884196281433105e-02 4.985437728464603424e-03 7.435972094535827637e-01 5.752427969127893448e-03 -5.545340776443481445e-01 2.300971187651157379e-03 1.264383673667907715e+00 0.000000000000000000e+00 1.599175035953521729e-01 1.169276833534240723e+00 8.486748933792114258e-01 -1.003990411758422852e+00 -6.289321184158325195e-02 1.366776823997497559e+00 3.029612079262733459e-02 -1.256598758697509766e+01
0.000000000000000000e+00 -5.253884196281433105e-02 4.218447022140026093e-03 7.447476983070373535e-01 5.368932615965604782e-03 -5.549175739288330078e-01 2.300971187651157379e-03 1.264000177383422852e+00 -1.533980830572545528e-03 1.599175035953521729e-01 1.166592359542846680e+00 8.456069231033325195e-01 -1.005140900611877441e+00 -6.327670812606811523e-02 1.368694305419921875e+00 2.684466354548931122e-02 -1.256598758697509766e+01
0.000000000000000000e+00 -5.215534567832946777e-02 4.985437728464603424e-03 7.443642020225524902e-01 5.368932615965604782e-03 -5.549175739288330078e-01 1.533980830572545528e-03 1.263616681098937988e+00 -7.669904152862727642e-04 1.606844812631607056e-01 1.164291381835937500e+00 8.429224491119384766e-01 -1.006291389465332031e+00 -6.250971555709838867e-02 1.371378779411315918e+00 2.377670258283615112e-02 -1.256598758697509766e+01
0.000000000000000000e+00 -5.253884196281433105e-02 4.985437728464603424e-03 7.447476983070373535e-01 5.752427969127893448e-03 -5.541505813598632812e-01 1.533980830572545528e-03 1.264383673667907715e+00 -7.669904152862727642e-04 1.603009849786758423e-01 1.161223411560058594e+00 8.402379751205444336e-01 -1.008208870887756348e+00 -6.404370069503784180e-02 1.374830245971679688e+00 2.109223604202270508e-02 -1.256598758697509766e+01
0.000000000000000000e+00 -5.292233824729919434e-02 4.985437728464603424e-03 7.435972094535827637e-01 5.368932615965604782e-03 -5.549175739288330078e-01 1.917475950904190540e-03 1.263616681098937988e+00 -7.669904152862727642e-04 1.606844812631607056e-01 1.159689426422119141e+00 8.383204936981201172e-01 -1.007825374603271484e+00 -6.327670812606811523e-02 1.376364231109619141e+00 1.840776950120925903e-02 -1.256598758697509766e+01
0.000000000000000000e+00 -5.292233824729919434e-02 4.601942375302314758e-03 7.443642020225524902e-01 4.985437728464603424e-03 -5.549175739288330078e-01 1.533980830572545528e-03 1.263616681098937988e+00 -7.669904152862727642e-04 1.603009849786758423e-01 1.157004952430725098e+00 8.344855308532714844e-01 -1.009742856025695801e+00 -6.250971555709838867e-02 1.379815697669982910e+00 1.495631225407123566e-02 -1.256598758697509766e+01
0.000000000000000000e+00 -5.253884196281433105e-02 4.601942375302314758e-03 7.451311945915222168e-01 5.368932615965604782e-03 -5.549175739288330078e-01 2.300971187651157379e-03 1.262849688529968262e+00 -1.150485593825578690e-03 1.603009849786758423e-01 1.154704093933105469e+00 8.318010568618774414e-01 -1.010126352310180664e+00 -6.289321184158325195e-02 1.381733179092407227e+00 1.150485593825578690e-02 -1.256598758697509766e+01
0.000000000000000000e+00 -5.253884196281433105e-02 4.985437728464603424e-03 7.447476983070373535e-01 4.985437728464603424e-03 -5.549175739288330078e-01 2.300971187651157379e-03 1.264383673667907715e+00 0.000000000000000000e+00 1.603009849786758423e-01 1.151636123657226562e+00 8.287331461906433105e-01 -1.010893344879150391e+00 -6.289321184158325195e-02 1.384034156799316406e+00 8.820389397442340851e-03 -1.256598758697509766e+01
0.000000000000000000e+00 -5.292233824729919434e-02 4.601942375302314758e-03 7.443642020225524902e-01 5.368932615965604782e-03 -5.549175739288330078e-01 1.917475950904190540e-03 1.264000177383422852e+00 0.000000000000000000e+00 1.599175035953521729e-01 1.149718642234802246e+00 8.256651759147644043e-01 -1.012810826301574707e+00 -6.366020441055297852e-02 1.387102127075195312e+00 5.368932615965604782e-03 -1.256598758697509766e+01
0.000000000000000000e+00 -5.330583080649375916e-02 4.601942375302314758e-03 7.447476983070373535e-01 5.752427969127893448e-03 -5.556845664978027344e-01 1.917475950904190540e-03 1.263616681098937988e+00 -7.669904152862727642e-04 1.606844812631607056e-01 1.147801160812377930e+00 8.229807019233703613e-01 -1.013961315155029297e+00 -6.327670812606811523e-02 1.388636112213134766e+00 1.917475950904190540e-03 -1.256598758697509766e+01
0.000000000000000000e+00 -5.215534567832946777e-02 4.985437728464603424e-03 7.443642020225524902e-01 5.752427969127893448e-03 -5.545340776443481445e-01 1.917475950904190540e-03 1.264383673667907715e+00 -1.150485593825578690e-03 1.599175035953521729e-01 1.145883679389953613e+00 8.191457390785217285e-01 -1.015111804008483887e+00 -6.327670812606811523e-02 1.390937089920043945e+00 -1.917475950904190540e-03 -1.256598758697509766e+01
0.000000000000000000e+00 -5.253884196281433105e-02 4.601942375302314758e-03 7.447476983070373535e-01 4.601942375302314758e-03 -5.549175739288330078e-01 1.533980830572545528e-03 1.264000177383422852e+00 -3.834952076431363821e-04 1.591505110263824463e-01 1.143199205398559570e+00 8.164612650871276855e-01 -1.016262292861938477e+00 -6.289321184158325195e-02 1.393621563911437988e+00 -5.752427969127893448e-03 -1.256598758697509766e+01
0.000000000000000000e+00 -5.292233824729919434e-02 4.985437728464603424e-03 7.447476983070373535e-01 4.985437728464603424e-03 -5.553010702133178711e-01 2.300971187651157379e-03 1.264383673667907715e+00 -1.150485593825578690e-03 1.603009849786758423e-01 1.142048716545104980e+00 8.133932948112487793e-01 -1.017029285430908203e+00 -6.289321184158325195e-02 1.395922541618347168e+00 -9.970875456929206848e-03 -1.256598758697509766e+01
0.000000000000000000e+00 -5.292233824729919434e-02 4.218447022140026093e-03 7.443642020225524902e-01 4.601942375302314758e-03 -5.549175739288330078e-01 1.150485593825578690e-03 1.264767169952392578e+00 -7.669904152862727642e-04 1.603009849786758423e-01 1.139747738838195801e+00 8.099418282508850098e-01 -1.019330263137817383e+00 -6.327670812606811523e-02 1.397456526756286621e+00 -1.342233177274465561e-02 -1.256598758697509766e+01
0.000000000000000000e+00 -5.253884196281433105e-02 5.368932615965604782e-03 7.443642020225524902e-01 5.368932615965604782e-03 -5.549175739288330078e-01 1.917475950904190540e-03 1.264383673667907715e+00 -7.669904152862727642e-04 1.606844812631607056e-01 1.138213753700256348e+00 8.057234287261962891e-01 -1.020097255706787109e+00 -6.289321184158325195e-02 1.399757504463195801e+00 -1.764077879488468170e-02 -1.256598758697509766e+01
0.000000000000000000e+00 -5.292233824729919434e-02 4.985437728464603424e-03 7.443642020225524902e-01 4.985437728464603424e-03 -5.545340776443481445e-01 1.917475950904190540e-03 1.264000177383422852e+00 -3.834952076431363821e-04 1.595340073108673096e-01 1.136296272277832031e+00 8.018884658813476562e-01 -1.021631240844726562e+00 -6.327670812606811523e-02 1.402058482170104980e+00 -2.070873975753784180e-02 -1.256598758697509766e+01
0.000000000000000000e+00 -5.292233824729919434e-02 4.601942375302314758e-03 7.435972094535827637e-01 4.985437728464603424e-03 -5.549175739288330078e-01 2.300971187651157379e-03 1.264000177383422852e+00 -3.834952076431363821e-04 1.599175035953521729e-01 1.134378790855407715e+00 7.988204956054687500e-01 -1.023165225982666016e+00 -6.212622299790382385e-02 1.404359459877014160e+00 -2.377670258283615112e-02 -1.256598758697509766e+01
0.000000000000000000e+00 -5.330583080649375916e-02 4.601942375302314758e-03 7.447476983070373535e-01 4.985437728464603424e-03 -5.549175739288330078e-01 1.917475950904190540e-03 1.264000177383422852e+00 -1.150485593825578690e-03 1.603009849786758423e-01 1.133611798286437988e+00 7.949855327606201172e-01 -1.024315714836120605e+00 -6.327670812606811523e-02 1.406276941299438477e+00 -2.684466354548931122e-02 -1.256598758697509766e+01
0.000000000000000000e+00 -5.253884196281433105e-02 5.368932615965604782e-03 7.447476983070373535e-01 6.135923322290182114e-03 -5.553010702133178711e-01 2.300971187651157379e-03 1.264000177383422852e+00 0.000000000000000000e+00 1.599175035953521729e-01 1.131694316864013672e+00 7.915340662002563477e-01 -1.025466203689575195e+00 -6.250971555709838867e-02 1.407810926437377930e+00 -2.991262450814247131e-02 -1.256598758697509766e+01
0.000000000000000000e+00 -5.253884196281433105e-02 5.368932615965604782e-03 7.447476983070373535e-01 4.985437728464603424e-03 -5.549175739288330078e-01 2.684466307982802391e-03 1.264000177383422852e+00 -1.150485593825578690e-03 1.595340073108673096e-01 1.130927324295043945e+00 7.876991629600524902e-01 -1.027767181396484375e+00 -6.289321184158325195e-02 1.408961296081542969e+00 -3.374757617712020874e-02 -1.256598758697509766e+01
0.000000000000000000e+00 -5.292233824729919434e-02 4.601942375302314758e-03 7.447476983070373535e-01 4.985437728464603424e-03 -5.549175739288330078e-01 2.300971187651157379e-03 1.264000177383422852e+00 -3.834952076431363821e-04 1.603009849786758423e-01 1.129776835441589355e+00 7.838642001152038574e-01 -1.029301166534423828e+00 -6.327670812606811523e-02 1.409728288650512695e+00 -3.643204271793365479e-02 -1.256598758697509766e+01
0.000000000000000000e+00 -5.253884196281433105e-02 4.601942375302314758e-03 7.443642020225524902e-01 4.985437728464603424e-03 -5.553010702133178711e-01 2.300971187651157379e-03 1.263616681098937988e+00 -7.669904152862727642e-04 1.587670147418975830e-01 1.129009842872619629e+00 7.796457409858703613e-01 -1.030835032463073730e+00 -6.250971555709838867e-02 1.410495281219482422e+00 -3.911650925874710083e-02 -1.256598758697509766e+01
0.000000000000000000e+00 -5.292233824729919434e-02 4.218447022140026093e-03 7.435972094535827637e-01 4.985437728464603424e-03 -5.549175739288330078e-01 2.300971187651157379e-03 1.264383673667907715e+00 -7.669904152862727642e-04 1.595340073108673096e-01 1.128242850303649902e+00 7.758107781410217285e-01 -1.032369017601013184e+00 -6.250971555709838867e-02 1.411645770072937012e+00 -4.141747951507568359e-02 -1.256598758697509766e+01
