24 23 23 28 41 23 31 23 
23 24 25 26 37 27 34 23 
22 26 24 33 38 31 37 22 
22 24 29 33 33 30 40 25 
24 22 27 36 31 33 40 24 
26 21 28 34 33 34 38 24 
27 20 31 33 31 33 36 24 
24 19 29 31 32 37 29 26 
23 19 26 33 27 39 27 25 
24 20 24 29 30 37 30 25 
23 21 27 28 30 36 30 25 
23 20 22 31 34 36 29 28 
23 21 22 27 32 30 29 28 
24 21 21 26 32 27 29 27 
24 21 24 30 36 29 27 25 
22 19 21 33 36 30 28 23 
22 24 20 31 30 33 30 19 
22 22 21 32 30 31 38 17 
22 25 21 31 33 32 36 20 
24 24 19 29 28 32 35 21 
26 26 21 28 28 30 37 23 
26 22 27 33 27 25 37 24 
26 25 27 33 27 27 28 30 
25 22 28 34 25 28 30 33 
23 21 28 33 25 29 29 34 
21 20 27 38 28 29 32 34 
21 20 21 33 29 28 29 31 
21 18 24 33 31 30 31 27 
23 18 23 32 32 31 31 27 
24 19 24 33 31 28 33 26 
26 21 29 28 58 68 53 28 
32 26 33 37 97 112 81 51 
36 25 33 37 99 116 87 80 
37 24 35 38 103 123 91 92 
52 48 39 43 113 156 101 153 
58 53 37 44 116 172 104 190 
70 55 35 39 105 183 112 269 
70 58 37 54 123 219 158 276 
74 60 35 58 138 231 159 285 
91 75 33 58 142 226 192 283 
90 105 37 59 135 220 247 291 
85 109 41 61 137 210 268 248 
85 110 37 50 120 179 261 251 
85 112 41 45 99 161 288 260 
84 130 43 54 87 145 323 294 
96 117 40 52 82 132 328 329 
97 121 37 51 58 108 366 329 
100 129 38 48 60 99 368 318 
104 141 35 47 61 117 435 347 
93 121 35 35 53 131 428 316 
82 113 38 41 57 125 437 286 
76 118 57 43 56 131 438 269 
86 170 89 46 60 170 529 288 
80 168 93 49 66 184 546 294 
80 173 93 49 74 198 590 319 
112 218 116 44 72 212 623 342 
117 218 109 41 72 213 617 349 
115 196 91 41 73 190 628 363 
125 223 190 60 82 212 680 366 
121 220 194 62 83 199 679 345 
99 204 215 71 95 236 700 310 
108 221 222 78 98 243 778 328 
108 252 234 82 95 257 799 342 
127 246 169 76 95 254 772 304 
132 261 172 76 97 300 757 301 
147 271 143 82 97 318 758 385 
149 280 150 83 101 339 824 403 
149 247 135 88 143 348 784 385 
131 285 172 96 143 350 791 393 
136 275 184 107 147 332 883 394 
118 250 174 107 148 320 882 378 
112 230 171 105 150 323 757 376 
110 243 185 99 115 309 754 377 
101 183 148 86 119 306 708 371 
88 168 122 75 136 334 625 430 
98 282 204 78 129 340 639 383 
131 345 239 83 124 328 646 418 
135 352 236 82 121 330 601 433 
142 353 238 83 120 335 575 495 
144 355 237 78 117 317 532 446 
159 354 230 59 116 281 422 491 
136 303 195 52 137 303 403 465 
135 284 183 58 145 320 426 439 
145 277 182 79 167 313 415 389 
158 289 206 112 176 357 466 407 
144 178 138 112 179 407 472 422 
146 149 176 129 197 385 462 445 
146 141 189 127 198 390 430 463 
148 205 210 123 177 379 470 446 
147 323 220 99 158 316 385 480 
147 328 226 107 180 317 392 478 
136 338 257 86 146 324 361 436 
134 338 255 91 157 298 382 433 
132 308 259 86 161 297 350 571 
128 165 247 95 179 328 337 526 
133 180 318 89 196 291 299 486 
141 185 268 102 192 270 310 588 
144 197 281 100 185 272 308 585 
140 200 266 113 211 325 294 461 
142 207 260 113 217 305 310 511 
146 211 199 114 215 295 321 531 
158 200 215 104 228 344 315 436 
161 241 196 106 229 344 308 432 
161 241 224 93 216 299 297 425 
159 246 251 78 197 310 268 392 
145 223 222 77 173 318 268 365 
154 228 216 80 160 273 255 330 
149 189 210 75 149 277 223 318 
146 194 173 68 128 268 196 305 
142 201 126 72 130 223 189 292 
139 202 149 64 123 236 175 245 
102 183 134 58 144 265 173 222 
95 157 133 53 159 288 162 261 
90 153 129 52 174 298 161 355 
79 148 120 65 182 317 212 337 
81 149 80 66 179 289 194 352 
106 170 96 73 177 273 216 397 
194 266 193 83 161 234 224 442 
198 273 225 93 163 228 248 399 
213 268 238 87 152 221 240 452 
229 271 250 92 174 263 260 505 
229 265 299 103 166 273 239 553 
175 179 322 170 193 286 244 517 
167 148 314 179 183 281 242 518 
150 128 312 180 204 309 234 489 
131 116 304 184 197 294 238 433 
124 105 280 188 214 276 240 385 
113 102 217 143 228 338 287 419 
124 103 221 132 231 347 285 420 
143 119 286 140 208 309 260 410 
137 119 318 133 204 280 243 482 
130 120 289 115 180 291 250 469 
138 111 282 95 128 200 179 434 
130 110 266 85 135 197 161 439 
103 85 185 66 168 231 247 492 
114 85 133 90 177 241 288 424 
122 122 190 96 181 257 296 397 
112 135 222 105 187 275 303 404 
119 133 223 107 189 300 322 489 
133 134 230 115 207 331 320 465 
126 147 257 100 198 323 289 472 
118 111 226 100 215 356 306 528 
110 88 193 92 220 350 321 541 
109 94 219 94 229 360 331 444 
104 98 231 89 199 353 288 420 
96 78 206 92 201 364 300 420 
103 85 215 107 187 318 276 387 
115 100 208 115 208 347 287 355 
111 106 195 115 203 362 286 363 
110 109 189 109 211 352 302 397 
118 112 212 105 247 398 338 411 
122 115 196 81 265 431 356 395 
117 108 204 66 252 410 332 421 
112 102 192 78 296 397 345 437 
122 100 187 94 286 380 325 387 
112 93 147 97 253 324 268 346 
124 91 143 105 231 278 264 328 
121 87 157 108 223 278 271 305 
133 93 163 105 184 328 244 263 
124 97 177 102 189 359 253 249 
127 94 179 108 206 373 257 240 
108 86 181 103 210 376 231 228 
113 87 199 100 212 383 217 240 
105 88 235 101 196 360 206 254 
105 90 249 101 212 393 312 285 
103 93 259 94 196 400 321 311 
116 102 260 92 199 402 324 364 
120 111 231 95 206 432 345 373 
115 108 233 89 191 406 367 366 
108 113 256 87 160 337 276 359 
120 117 252 86 163 324 270 365 
120 109 259 99 208 385 300 347 
122 104 262 96 199 352 281 315 
129 103 232 98 204 332 267 316 
130 102 218 95 226 357 289 356 
129 100 224 94 222 337 277 366 
145 103 270 82 182 295 247 389 
139 100 272 91 197 305 241 397 
134 91 260 93 187 298 228 391 
139 73 232 95 157 266 205 356 
128 67 231 104 162 297 200 375 
97 69 223 117 154 259 186 335 
94 61 222 112 139 247 197 363 
92 63 226 106 170 310 237 374 
92 63 237 106 170 315 248 369 
93 62 222 92 164 288 259 338 
90 60 170 80 161 284 271 336 
87 65 158 81 169 300 295 346 
91 63 179 80 139 240 245 345 
76 57 149 78 140 238 226 340 
84 56 170 84 149 297 276 322 
89 50 160 78 153 291 256 320 
89 49 168 84 137 257 214 269 
90 50 135 88 169 292 216 284 
95 49 129 86 176 292 234 328 
86 49 93 90 173 246 165 326 
88 60 130 100 174 248 177 310 
92 60 112 101 202 268 230 374 
86 57 112 98 177 238 238 354 
79 56 107 103 180 235 223 310 
80 58 108 96 179 245 226 317 
75 51 95 97 207 251 281 334 
69 51 116 86 181 230 265 323 
68 52 120 86 189 273 314 324 
76 52 119 74 180 283 311 322 
88 49 122 73 187 277 308 306 
84 58 171 73 146 273 258 323 
115 74 158 80 148 274 255 387 
119 74 156 79 136 230 185 386 
125 77 160 82 142 234 197 393 
120 91 162 89 124 211 189 397 
118 90 141 83 126 196 199 427 
93 93 167 76 115 181 172 422 
89 112 172 75 102 156 163 454 
81 121 170 71 81 103 141 455 
76 116 183 65 72 100 135 459 
80 123 171 68 81 122 135 420 
75 120 165 70 86 118 127 310 
89 128 160 72 145 175 145 258 
106 150 199 86 151 173 143 288 
111 199 201 82 154 174 142 300 
113 203 194 80 150 158 119 280 
134 201 182 81 146 161 117 282 
138 219 209 86 92 91 88 344 
125 255 216 81 91 88 89 311 
130 256 225 83 82 82 90 302 
127 253 223 81 69 67 83 332 
109 259 248 77 69 60 78 338 
99 237 231 70 63 50 63 263 
121 212 196 62 54 48 60 264 
113 165 192 67 55 49 59 257 
114 166 189 59 54 55 57 223 
113 161 162 62 55 56 56 214 
114 159 154 63 51 54 61 236 
87 110 145 59 51 54 60 240 
88 117 112 50 53 53 57 240 
97 115 124 58 61 54 63 228 
119 129 134 64 59 50 66 294 
115 124 151 62 63 51 65 281 
120 119 151 63 65 51 62 282 
119 116 149 64 61 49 66 299 
116 105 140 57 53 44 58 312 
108 127 143 49 53 47 55 236 
140 163 184 53 47 47 59 246 
139 178 187 53 41 50 67 249 
140 176 186 49 46 51 62 228 
134 177 172 49 44 48 64 211 
124 144 150 45 45 45 66 233 
93 102 70 39 46 45 58 221 
90 74 67 43 41 45 62 221 
89 65 66 45 41 47 63 211 
87 90 63 43 44 45 60 242 
83 89 64 41 46 49 60 213 
79 95 52 40 51 47 64 223 
87 109 38 34 54 44 54 220 
82 110 36 31 53 50 61 235 
79 91 34 37 50 50 62 212 
85 93 37 36 47 44 59 252 
75 87 38 38 42 53 59 242 
63 64 38 38 42 67 64 263 
63 62 39 38 39 72 69 250 
64 55 38 34 47 78 74 231 
48 41 31 34 49 82 77 226 
52 36 29 30 54 83 83 226 
51 36 28 30 58 72 84 191 
55 48 27 30 61 62 75 207 
56 45 27 31 55 56 69 232 
62 54 32 31 55 53 81 207 
59 59 35 34 55 44 102 221 
62 60 33 34 50 68 117 253 
56 52 32 37 50 74 118 256 
57 51 32 35 55 79 123 244 
51 41 26 34 56 86 122 252 
52 35 24 34 52 92 111 236 
46 34 25 39 55 81 108 247 
49 31 27 40 67 95 133 252 
51 34 29 42 68 95 150 271 
53 33 29 43 71 96 165 267 
52 29 29 41 69 99 182 272 
60 31 28 37 73 102 187 281 
60 30 25 38 60 97 184 266 
70 28 24 38 60 107 194 307 
77 32 24 38 56 107 184 302 
77 32 26 41 64 121 162 309 
71 31 27 40 59 127 170 275 
79 33 29 39 73 143 180 277 
67 33 30 43 76 140 166 208 
62 28 30 44 78 142 165 219 
68 30 31 41 73 125 164 283 
67 29 32 42 72 126 166 274 
61 28 31 44 58 111 160 301 
59 26 35 38 52 106 150 298 
61 26 36 40 47 98 149 292 
55 25 34 39 50 98 149 212 
56 28 34 48 85 107 136 204 
52 27 33 43 87 99 128 207 
54 28 26 43 86 95 127 228 
45 26 29 42 87 95 163 215 
43 26 30 45 86 93 167 245 
40 21 28 35 51 77 168 262 
48 25 33 38 45 88 167 270 
49 24 34 39 70 89 173 275 
47 24 29 39 72 94 131 275 
47 26 28 36 78 99 141 255 
51 29 29 38 82 104 150 288 
44 27 26 35 88 103 145 257 
45 29 31 32 74 116 139 241 
47 30 32 38 74 117 146 280 
52 28 33 40 66 121 138 294 
53 28 32 39 65 117 130 292 
61 30 35 43 68 112 156 301 
61 29 31 42 65 101 163 293 
61 28 31 38 63 98 166 255 
64 31 32 36 66 91 164 246 
62 31 31 35 66 105 191 266 
56 30 28 32 60 114 172 239 
52 30 25 32 60 115 182 236 
51 29 25 32 63 124 215 242 
63 27 24 33 61 126 226 281 
62 27 25 36 68 128 204 252 
61 25 23 35 64 119 197 255 
64 27 24 34 60 116 234 261 
64 27 26 36 60 121 217 265 
47 25 25 38 64 134 236 248 
49 23 23 37 52 115 244 250 
49 23 23 38 54 119 245 252 
47 22 29 39 56 121 197 246 
57 29 31 45 73 112 187 273 
58 29 30 50 75 93 165 270 
53 29 32 48 77 97 141 252 
51 29 33 47 77 87 141 265 
52 29 28 47 77 100 147 273 
39 23 24 40 62 89 142 246 
34 25 30 30 55 99 115 251 
34 25 29 30 55 102 132 279 
35 24 31 31 56 115 140 273 
33 24 33 32 64 120 137 283 
45 28 34 34 65 134 171 311 
44 26 33 35 65 128 179 286 
48 28 34 35 64 127 163 255 
51 32 33 38 61 118 152 242 
56 31 32 38 54 98 149 266 
47 28 31 35 52 94 96 228 
57 30 31 35 54 112 148 262 
54 30 29 36 60 123 177 240 
53 29 30 40 65 120 182 252 
48 28 28 39 72 130 183 205 
51 26 29 39 71 129 190 209 
40 28 26 44 71 110 151 149 
