time,.header.seq,.header.stamp.secs,.header.stamp.nsecs,.header.frame_id,.pose.position.x,.pose.position.y,.pose.position.z,.pose.orientation.x,.pose.orientation.y,.pose.orientation.z,.pose.orientation.w,.twist.linear.x,.twist.linear.y,.twist.linear.z,.twist.angular.x,.twist.angular.y,.twist.angular.z,.wrench.force.x,.wrench.force.y,.wrench.force.z,.wrench.torque.x,.wrench.torque.y,.wrench.torque.z
2017/07/09/10:01:39.125615,408379,1499565701,929561452,,0.783199935202,0.391267435239,0.16571208474,0.626990615429,0.776464031592,0.0546419087867,0.031632856529,0.019665500519,-0.0518690513217,0.00771571908262,0.0054756887735,-0.0193225206762,-0.0786537582184,5.52723455429,2.4313082695,-0.454447299242,-0.850704550743,2.30978894234,-0.163637623191
2017/07/09/10:01:39.135590,408380,1499565701,939587645,,0.783546569566,0.391164467244,0.16592463112,0.627378598491,0.776115105692,0.0551388091716,0.0316409322804,-0.000493568957909,-0.0558190053065,-0.0167170009552,-0.00722286783905,0.0301491266767,-0.0637392677374,5.56872844696,2.53999233246,-0.495819121599,-0.927305996418,2.30503535271,-0.193033337593
2017/07/09/10:01:39.145863,408381,1499565701,949562452,,0.783819986676,0.390543862163,0.165905347969,0.627742665505,0.775809580702,0.0551043930354,0.0319710222373,0.0223749473445,-0.0416509017687,0.00996276942556,0.013124921833,-0.0334174439419,-0.0739756334916,4.55650424957,2.03626704216,-0.461762279272,-0.659613370895,1.97555100918,-0.161938011646
2017/07/09/10:01:39.155878,408382,1499565701,959568817,,0.783870345658,0.390268317902,0.165906222018,0.627742630107,0.775809563182,0.0550924923375,0.0319926446096,0.0242667936068,-0.0545573350143,0.00364819929187,-0.00660664356226,-0.0340293128909,-0.0805857551197,4.12764453888,2.91386222839,-0.311388403177,-1.21392035484,1.76717889309,-0.327165007591
2017/07/09/10:01:39.165932,408383,1499565701,969568358,,0.784433445974,0.388863804074,0.165908682897,0.62839647354,0.775252925789,0.0551932547585,0.0324727228278,0.0334654893186,-0.0764271626681,0.00836585423883,-0.00677948822062,-0.0498240291424,-0.102099037027,1.93698275089,2.31598854065,0.257023841143,-0.952132463455,0.948850333691,-0.276012331247
2017/07/09/10:01:39.175502,408384,1499565701,979568163,,0.78452346237,0.388877992559,0.166268104794,0.628585036712,0.775068980381,0.0556203613471,0.0324854225242,0.0330025361001,-0.0696122844989,0.0117451551183,0.00911866589997,-0.0588768838834,-0.0953764540124,0.778015017509,1.57241868973,0.784788191319,-0.647392511368,0.593277752399,-0.26261484623
2017/07/09/10:01:39.185471,408385,1499565701,989564170,,0.784903703431,0.388778490198,0.166478276865,0.628582862339,0.775036442224,0.0559146236322,0.0327971532736,0.0460348783156,-0.0650695620151,0.0262141639815,0.00942386637456,-0.102776823178,-0.0983539714408,0.631544828415,1.5331581831,1.18198609352,-0.650292336941,0.616046965122,-0.244452446699
2017/07/09/10:01:39.195548,408386,1499565701,999581996,,0.785700891321,0.386874759305,0.166859160343,0.629421640091,0.77430923102,0.0559603550966,0.0337942657836,0.0440651905499,-0.0941808964959,0.00352428446951,-0.0260219898249,-0.0701442444668,-0.127464728603,1.19186031818,1.76960206032,0.942679941654,-0.681987822056,0.847044408321,-0.246391102672
2017/07/09/10:01:39.205827,408387,1499565702,9562006,,0.785166878415,0.386283699547,0.166628577972,0.629582746996,0.774231328832,0.0554999976348,0.0333341326982,0.029777914547,-0.0796932395741,-0.00305696854105,-0.0136307065273,-0.043997901707,-0.104605926465,1.34240996838,1.71186137199,0.842646360397,-0.55909705162,0.892809271812,-0.188804909587
2017/07/09/10:01:39.215811,408388,1499565702,19569360,,0.78662582155,0.384308394266,0.167283079732,0.630620979789,0.773287327342,0.056030785726,0.034705046795,0.0277252247709,-0.0976500729212,0.0130402929562,-0.0212846467824,-0.041255690062,-0.115685626091,1.09290957451,1.57920610905,0.568268656731,-0.454438149929,0.748314619064,-0.173962652683
2017/07/09/10:01:39.225603,408389,1499565702,29565870,,0.78652724353,0.383837806937,0.166434399792,0.631156038479,0.772877426893,0.0560542599091,0.0340654962851,0.0398568580977,-0.0860404096286,0.01762867106,-0.00692428953519,-0.064343341649,-0.115101221228,0.0671899467707,1.37741470337,0.504266381264,-0.416059732437,0.324080765247,-0.210219442844
2017/07/09/10:01:39.235509,408390,1499565702,39596468,,0.786821624121,0.384167317659,0.167081588818,0.630792142324,0.773133740204,0.0564690214847,0.0343036813282,0.0386800807929,-0.0729811586391,0.0102404977082,0.00542223011945,-0.0704306962845,-0.106028852824,0.603866577148,1.56592774391,0.242136865854,-0.540671110153,0.472330480814,-0.234057277441
2017/07/09/10:01:39.245852,408391,1499565702,49566707,,0.787824050378,0.382928613338,0.167218439871,0.631052710908,0.772831044223,0.0570610045167,0.0353368774105,0.060314044101,-0.101660746781,0.0272428521874,-0.0147067133802,-0.113666520581,-0.136617240083,0.404835164547,1.45889115334,0.159144625068,-0.511031866074,0.413762181997,-0.239779263735
2017/07/09/10:01:39.255699,408392,1499565702,59586862,,0.788238758323,0.381082800473,0.167071594096,0.632466969139,0.77166039367,0.0571178831272,0.0355431739835,0.0712789328922,-0.0937949243786,0.0323652265091,0.00964190780771,-0.150182329227,-0.129636704322,0.562313139439,1.4897916317,0.187384352088,-0.443349301815,0.516874432564,-0.190670102835
2017/07/09/10:01:39.265567,408393,1499565702,69566663,,0.78833353731,0.380368690024,0.166960728035,0.632757642649,0.771438255493,0.0568831747376,0.0355680764573,0.0568968424642,-0.115485684408,0.0190381897226,-0.00432331600619,-0.113395380133,-0.1563260064,0.658817589283,1.50698840618,-0.0172016248107,-0.526952385902,0.489597171545,-0.220375090837
2017/07/09/10:01:39.275656,408394,1499565702,79567331,,0.789476317899,0.378663538305,0.167807589425,0.633601298976,0.770648450451,0.057573655451,0.0365463261035,0.045706582702,-0.129361896276,0.000961354870952,-0.0224061270755,-0.0707746322411,-0.159494609988,1.07726836205,1.76260566711,-0.269577264786,-0.55223929882,0.607925891876,-0.19685664773
2017/07/09/10:01:39.285801,408395,1499565702,89567891,,0.790066491634,0.377593853386,0.167698543635,0.633915390521,0.770342658086,0.0578355951702,0.0371283008552,0.060301590201,-0.130922825912,0.00563096960662,-0.0193417201468,-0.10398678623,-0.165687270401,0.81168961525,1.08355510235,-0.373027086258,-0.221810370684,0.503235936165,-0.0972917824984
2017/07/09/10:01:39.295458,408396,1499565702,99569669,,0.790438276032,0.376365156301,0.167760328087,0.634775917705,0.769613109233,0.0579663846914,0.0373509657629,0.074609744772,-0.140395699024,0.0318567597878,-0.0143302951025,-0.14130935697,-0.1734615829,0.734388530254,0.0428683161736,-0.590270578861,0.339169204235,0.488482177258,0.0426007211208
2017/07/09/10:01:39.305936,408397,1499565702,109566722,,0.791014419353,0.374331958983,0.167935757099,0.63535372615,0.769099636993,0.0579763320927,0.038080650748,0.0716205430945,-0.137089990451,0.0302033691899,0.000133196279261,-0.143880619583,-0.179755322707,0.728032231331,-0.766758561134,-0.688512802124,0.752389609814,0.462112337351,0.177352547646
2017/07/09/10:01:39.315589,408398,1499565702,119566340,,0.791826937053,0.372889399767,0.168383557731,0.636036357062,0.768467415282,0.0584110781172,0.0387779589159,0.0619344982547,-0.167475231022,0.0192600918843,-0.0289926677293,-0.110532956262,-0.201917743519,1.21049535275,-0.505683898926,-0.82110440731,0.537953197956,0.621973574162,0.136485353112
2017/07/09/10:01:39.325570,408399,1499565702,129559423,,0.792502437774,0.371624957879,0.168449259319,0.636654296333,0.767903065859,0.0586587328604,0.0394378176964,0.0589722464951,-0.139637433024,0.0226140116216,-0.0308767804879,-0.115791993044,-0.156456652089,1.91176152229,0.435733914375,-0.98764872551,0.0240959376097,0.836001634598,0.00589413940907
2017/07/09/10:01:39.335579,408400,1499565702,139565496,,0.793026317501,0.370097151609,0.168856675031,0.637205042251,0.767412239693,0.0587678189925,0.0399315908669,0.0442389608892,-0.120791495831,0.00221777868067,-0.0230193859717,-0.0729968663035,-0.129842136324,2.96248722076,1.09438848495,-1.12455058098,-0.367673456669,1.25630581379,-0.0866257697344
2017/07/09/10:01:39.345567,408401,1499565702,149565646,,0.792923011757,0.368389110951,0.168889404859,0.637759861168,0.766969841241,0.0583008704086,0.0402570567504,0.0488595020324,-0.17984698834,0.00974172806351,-0.069361979477,-0.0717740917571,-0.19787131888,2.18686246872,1.46367323399,-1.25258040428,-0.495827555656,0.91995626688,-0.119827315211
2017/07/09/10:01:39.355525,408402,1499565702,159561479,,0.793528318572,0.366490154477,0.168920499149,0.638573619279,0.766277395935,0.0581484698951,0.040760773907,0.0582528436595,-0.195868406984,0.0346838121337,-0.0836689403051,-0.101443867198,-0.219217040915,1.45073926449,1.27946007252,-1.15328240395,-0.31682652235,0.652404010296,-0.0934118777514
2017/07/09/10:01:39.365436,408403,1499565702,169563608,,0.793901015752,0.36463167435,0.16909831975,0.639227632497,0.765727913957,0.0578782123004,0.0412178138688,0.0446779644742,-0.188482789953,0.0237307419223,-0.0879539499255,-0.0669376753093,-0.197007856553,0.351532787085,0.923852801323,-0.970491290092,-0.0653335899115,0.283914208412,-0.0912800133228
2017/07/09/10:01:39.375549,408404,1499565702,179568669,,0.793490713258,0.363140590645,0.168690934567,0.639339417264,0.76569582042,0.0570125520805,0.0412866688947,0.023257350149,-0.187506772398,0.0138008083946,-0.127163018847,-0.0237299673761,-0.158006668628,-0.145611643791,0.923829317093,-0.61502635479,-0.0535591393709,0.109740883112,-0.109242878854
2017/07/09/10:01:39.385539,408405,1499565702,189573320,,0.794630217024,0.360854226981,0.169907806145,0.640895483848,0.764284519466,0.0576804299318,0.0423688575603,0.0395534471655,-0.1972517788,0.0252147797723,-0.111119867149,-0.06258316136,-0.181933415915,-0.497829020023,0.75185996294,-0.394663065672,-0.00857612490654,-0.0176300518215,-0.0909588634968
2017/07/09/10:01:39.395447,408406,1499565702,199561905,,0.79486236536,0.358344500601,0.169760885944,0.64171397704,0.763612329721,0.0570644548689,0.042930520154,0.0483803335704,-0.229211575727,0.0353109723924,-0.0883726586024,-0.0785263935557,-0.274964909346,0.249951064587,0.72928583622,-0.464545458555,-0.087656468153,0.217768415809,-0.119811408222
2017/07/09/10:01:39.406001,408407,1499565702,209563674,,0.795031328713,0.3566353332,0.169896665499,0.642202459282,0.763197243231,0.0568575328383,0.0432803671017,0.0331602933296,-0.245621310145,0.013533984005,-0.129997321874,-0.039267340201,-0.229696345347,1.28960752487,1.17339098454,-0.488398134708,-0.319855451584,0.563552975655,-0.116189107299
2017/07/09/10:01:39.415524,408408,1499565702,219567046,,0.795630756244,0.354001009928,0.170366465175,0.642940087053,0.762540320349,0.0564065328596,0.0444815394648,0.0373559565247,-0.239169216318,0.0233774940005,-0.112881854892,-0.0496704932982,-0.237156655743,0.826479315758,1.11867845058,-0.60179400444,-0.288231730461,0.326662778854,-0.109431922436
2017/07/09/10:01:39.425525,408409,1499565702,229561730,,0.795922504289,0.351464093522,0.170358775882,0.6435471146,0.762038982526,0.055574048726,0.0453345950525,0.0371985740508,-0.237211367456,0.027832421778,-0.15288681629,-0.0574869489605,-0.210823781226,0.391985714436,0.807571768761,-0.408636271954,-0.198640391231,0.156766042113,-0.0658657029271
2017/07/09/10:01:39.435618,408410,1499565702,239566365,,0.796341104402,0.349445431791,0.170787393215,0.644524238468,0.761189896051,0.0555064064494,0.045798329884,0.0280252825395,-0.235382692737,0.0230007163192,-0.171356050804,-0.0368655887051,-0.187581072717,0.0365429967642,0.714758098125,-0.347058832645,-0.175609856844,0.0108836740255,-0.0747518390417
2017/07/09/10:01:39.445536,408411,1499565702,249562604,,0.796999895487,0.34738066743,0.17131859369,0.644987030581,0.760737221793,0.0553093492524,0.0470264356012,0.0385325214278,-0.233711361651,0.028859318477,-0.142482332372,-0.0711146288412,-0.20644638931,0.281721204519,0.673498094082,-0.333219915628,-0.0908763110638,0.124681688845,-0.0443722195923
2017/07/09/10:01:39.455592,408412,1499565702,259569077,,0.79709787606,0.344500998046,0.171230154881,0.645868517695,0.760012338807,0.054684914505,0.0473778728575,0.0507252496776,-0.275477461845,0.0183571723753,-0.16430634618,-0.080787736079,-0.265431958966,0.827067494392,0.739093184471,-0.405262798071,-0.102609083056,0.364521563053,-0.0519370287657
2017/07/09/10:01:39.465626,408413,1499565702,269568914,,0.797810699923,0.341516120953,0.171654871005,0.646870384637,0.759106391151,0.0542888937895,0.0486714331325,0.0605978152353,-0.287768759409,0.0411881897059,-0.19015782621,-0.116831331326,-0.261628422251,0.835200250149,0.614325404167,-0.378665685654,0.0109759755433,0.369501829147,-0.0393630899489
2017/07/09/10:01:39.475525,408414,1499565702,279570821,,0.79842755683,0.339078217925,0.17234639348,0.647599256843,0.758431281143,0.0538114943011,0.0500151717231,0.0519047309691,-0.267347336016,0.0364391156872,-0.182587915869,-0.0962272418172,-0.237232994018,0.449048966169,0.710535347462,-0.283932894468,-0.0032536610961,0.25559514761,-0.0561905652285
2017/07/09/10:01:39.485590,408415,1499565702,289565288,,0.799246851256,0.33602918168,0.172262629799,0.648434626878,0.757651334307,0.0535826440743,0.0512434439041,0.0558133282749,-0.277407302965,0.0412095800246,-0.191430355829,-0.112708608797,-0.227471159835,0.302235901356,0.784992754459,-0.259959429502,-0.0609390437603,0.178904145956,-0.0311176292598
2017/07/09/10:01:39.495573,408416,1499565702,299568476,,0.799777214861,0.333673649465,0.173079694292,0.649426925759,0.756756845615,0.0535781377372,0.0518953549931,0.0579008278842,-0.28838053043,0.0358499248475,-0.186805300548,-0.113468615851,-0.236237158201,0.234163865447,0.756220936775,-0.315641760826,-0.11632694304,0.154442504048,-0.047929033637
2017/07/09/10:01:39.505622,408417,1499565702,309562261,,0.799817152433,0.33103859547,0.173232419151,0.649680661243,0.756548846253,0.0524950839433,0.0528502393758,0.0499423939731,-0.284788599262,0.0290671887709,-0.168952006248,-0.0886382424569,-0.257598564105,0.254996716976,0.8405854702,-0.351157039404,-0.213084369898,0.165372222662,-0.0659046247602
2017/07/09/10:01:39.515784,408418,1499565702,319568485,,0.800327038916,0.327734152651,0.173547613742,0.650972301001,0.755391594915,0.0520263991219,0.0539616109446,0.0410877245429,-0.319416848862,0.027748637968,-0.203724470308,-0.0688953326807,-0.286344122325,0.126602053642,0.581317007542,-0.593045413494,-0.0720964297652,0.0813613384962,-0.018090352416
2017/07/09/10:01:39.526412,408419,1499565702,329564160,,0.800621237764,0.324500050377,0.173668167215,0.652151753958,0.754356047882,0.0513739321985,0.054824829442,0.0530578298954,-0.322810200937,0.0459086603214,-0.202032902577,-0.106702065904,-0.294653403019,0.292720556259,0.583055496216,-0.747763395309,-0.0566548556089,0.137896373868,-0.0324389673769
2017/07/09/10:01:39.535451,408420,1499565702,339568662,,0.801703635102,0.321478374839,0.174159028528,0.653194027728,0.753358792812,0.0511594594808,0.0563098671443,0.0598574312156,-0.298001631929,0.0501297203338,-0.190066452986,-0.124774865862,-0.283749321741,-0.985653400421,-0.280630975962,-0.622406840324,0.139679133892,-0.377411186695,-0.00811424106359
2017/07/09/10:01:39.545707,408421,1499565702,349561649,,0.802269075374,0.318932221135,0.174732598597,0.653960549633,0.752626335811,0.0512896678372,0.057083869366,0.0411166102595,-0.306046892456,0.0372792750101,-0.214004776479,-0.0831812777187,-0.251422329333,-0.633562684059,-0.169376730919,-0.405836373568,0.0756310746074,-0.233630478382,-0.0153590291739
2017/07/09/10:01:39.555585,408422,1499565702,359575865,,0.802627898691,0.316231573103,0.174898007887,0.655056818245,0.751652196305,0.0506882950906,0.0578812353199,0.0555716860475,-0.318165177015,0.0424172493514,-0.187142347453,-0.113228887851,-0.276811363296,-1.21332085133,0.0889686644077,-0.558202981949,0.0027914904058,-0.433811664581,-0.0365159511566
2017/07/09/10:01:39.565601,408423,1499565702,369571960,,0.802582881262,0.312602282991,0.174885332163,0.655873765256,0.750942931211,0.0497078487858,0.0586808987927,0.0456204049672,-0.322538140749,0.0319118237373,-0.177724835508,-0.0899094889221,-0.302580054493,-1.26714611053,0.0392232835293,-0.36165702343,-0.055505245924,-0.434511393309,-0.0426050759852
2017/07/09/10:01:39.575547,408424,1499565702,379569210,,0.803436068008,0.309599205001,0.175769589542,0.656838811874,0.749997564767,0.0496577058003,0.0600045024425,0.0401845814716,-0.314060308702,0.0368994860694,-0.183671053075,-0.0839848271387,-0.280332266862,-1.68685042858,0.0499176383018,-0.0729393362999,0.047316711396,-0.563685059547,-0.0470056608319
2017/07/09/10:01:39.585867,408425,1499565702,389563686,,0.803904160159,0.306882368381,0.176086668077,0.658046208703,0.748904889498,0.0493847220236,0.0606448920152,0.0486089365988,-0.291669539368,0.0350646118575,-0.15395360521,-0.101752174719,-0.273136085998,-1.90187036991,-0.338076919317,-0.172635018826,0.252594202757,-0.591446399689,0.0510745160282
2017/07/09/10:01:39.595529,408426,1499565702,399569238,,0.804087497852,0.304363970974,0.176323609623,0.659070787434,0.747962881692,0.0489701611139,0.0614747759769,0.0382531692587,-0.294193219616,0.0322462099932,-0.139997219034,-0.0805374770917,-0.310004001689,-1.15976142883,-0.142396852374,-0.253155708313,0.126409232616,-0.292222052813,-0.00586743652821
2017/07/09/10:01:39.605540,408427,1499565702,409569832,,0.804201094626,0.301145360982,0.176307673655,0.660008692352,0.74711887599,0.0484789055047,0.062062121137,0.0458692632933,-0.306378971096,0.048309671462,-0.151429770898,-0.110620514547,-0.310479944109,-1.37594389915,-0.00986870378256,-0.597601950169,0.0521880760789,-0.390750348568,-0.0511255450547
2017/07/09/10:01:39.615719,408428,1499565702,419568474,,0.805278276114,0.297195839654,0.177090616359,0.661719992622,0.745483873567,0.0485950842055,0.0633952948222,0.042496476405,-0.336729170278,0.0312269701031,-0.134162592105,-0.0865623972181,-0.358793115168,-1.15273916721,-0.232839435339,-0.554903268814,0.0950580984354,-0.34402602911,-0.0363816805184
2017/07/09/10:01:39.625613,408429,1499565702,429565379,,0.805262610203,0.294929830708,0.177424060168,0.662539226765,0.744755084547,0.0482532919685,0.0636651934115,0.0320254003875,-0.33214912796,0.0237567738482,-0.118544588479,-0.0626008999128,-0.361008317708,-1.38775777817,-0.200875267386,-0.512685716152,0.213100224733,-0.438327848911,0.02642223984
2017/07/09/10:01:39.635529,408430,1499565702,439564314,,0.805377781026,0.291578357164,0.177674953664,0.664259951551,0.743201770202,0.04791952944,0.0641370737739,0.020572308274,-0.328832046848,0.0322481452979,-0.0917446899895,-0.0398529675904,-0.382667263505,-1.3276412487,-0.560132980347,-0.467219293118,0.228168621659,-0.426742255688,0.0373580157757
2017/07/09/10:01:39.645614,408431,1499565702,449561175,,0.805830415938,0.288000499384,0.178457455855,0.665365465047,0.74213275052,0.0477339937626,0.0651862283604,0.031296761264,-0.310104625166,0.049032547845,-0.0675932103158,-0.0815696609398,-0.382211037008,-1.41192448139,-0.593091607094,-0.512676596642,0.175483927131,-0.456708788872,0.0223437696695
2017/07/09/10:01:39.655561,408432,1499565702,459568340,,0.805979668327,0.285772010121,0.178236578194,0.666501259093,0.741113204087,0.0476905845054,0.0652142507848,0.0279124986791,-0.309973181588,0.047325348735,-0.0516128737644,-0.0700887627016,-0.387740043072,-1.70042872429,-0.531807541847,-0.587359786034,0.24821510911,-0.550649881363,0.0215440317988
2017/07/09/10:01:39.665821,408433,1499565702,469562725,,0.805835953456,0.283819665843,0.17842114513,0.667375151913,0.740336382498,0.0475779868756,0.0651826857609,0.0162674213132,-0.304323555051,0.0211482704387,-0.0696694402701,-0.038778094233,-0.363817383575,-1.66286540031,-0.145631581545,-0.294437944889,0.184286266565,-0.518861711025,0.0170635282993
2017/07/09/10:01:39.675534,408434,1499565702,479573316,,0.806458522795,0.280617581825,0.17870934359,0.668858095912,0.738932412009,0.0475902110646,0.065900757408,0.00886692513201,-0.279952978404,0.0173365370597,-0.0306909316446,-0.0218435508608,-0.351395057266,-1.85070979595,0.550099790096,-0.360828071833,-0.231616467237,-0.632581889629,-0.12532633543
2017/07/09/10:01:39.685481,408435,1499565702,489563162,,0.806821360746,0.277849084544,0.179141525141,0.670289653379,0.737573861804,0.0475665921811,0.0665882742366,0.0174902994754,-0.277603960959,0.0263974603942,-0.0457913805095,-0.0408333134723,-0.345280123869,-1.6518638134,1.72291696072,-0.338548541069,-0.841616034508,-0.533179938793,-0.284989714622
2017/07/09/10:01:39.695652,408436,1499565702,499567537,,0.806283859949,0.274114641494,0.178755600484,0.671898692135,0.736198878872,0.0463100259406,0.0664736019137,0.0330444906744,-0.291655801615,0.0297475994239,-0.0560321035599,-0.069026383304,-0.368627257553,-2.18481659889,1.62253654003,-0.561621189117,-0.866814672947,-0.692527830601,-0.278953194618
2017/07/09/10:01:39.705676,408437,1499565702,509561399,,0.807100251427,0.271612443357,0.179596303992,0.673312159103,0.734773439857,0.0473143229782,0.067231564951,0.0253155982247,-0.302158073339,0.0273074557599,-0.0439677625635,-0.0599314966266,-0.386815406252,-3.33662343025,1.20248055458,-0.319138884544,-0.478952229023,-1.14138352871,-0.143095090985
2017/07/09/10:01:39.715519,408438,1499565702,519568875,,0.807131390704,0.268392036129,0.17934150804,0.674562509941,0.733628943012,0.0466671562643,0.0676473996804,0.0206708271422,-0.316723354117,0.0219767620095,-0.0536329730133,-0.056464322519,-0.403829159001,-3.74168109894,0.495918810368,-0.393284738064,-0.04830371961,-1.20519053936,-0.0396269112825
2017/07/09/10:01:39.725503,408439,1499565702,529563269,,0.807869074841,0.265295093311,0.180716060065,0.67594348806,0.732221834241,0.0471860917996,0.0687390656877,0.0143271196116,-0.30427857388,0.0192228762658,-0.059304682067,-0.0433019940858,-0.381547798741,-4.11818790436,-0.0418090820312,-0.0363467670977,0.0934449359775,-1.33430767059,-0.0604406297207
2017/07/09/10:01:39.736373,408440,1499565702,539568780,,0.8073898846,0.263195438836,0.179941904547,0.676891332017,0.731422656696,0.0466004136266,0.0683185433199,0.0363834847965,-0.297463303126,0.0410307491935,-0.0642149900689,-0.108308145282,-0.359007502151,-4.40218877792,-0.233435422182,-0.254110813141,0.173331543803,-1.39804828167,-0.0461065433919
2017/07/09/10:01:39.745578,408441,1499565702,549562753,,0.807878666755,0.260353707059,0.18060300814,0.678245572402,0.730082455625,0.0468690750014,0.0690350730783,0.0198597847169,-0.293785995988,0.0204268405117,-0.0327506295831,-0.0632206521864,-0.370150130727,-3.82529449463,0.00172899663448,-0.138642713428,-0.00420076772571,-1.19210135937,-0.113163352013
2017/07/09/10:01:39.755553,408442,1499565702,559595345,,0.807612177944,0.257277689473,0.180168453119,0.679466911852,0.728988394918,0.0463779403753,0.0689182299492,0.00243543769442,-0.29441240521,0.0202054026201,-0.0324581587607,-0.0240673146846,-0.381422932269,-3.88152003288,-0.259610652924,-0.47070851922,-0.00304509699345,-1.23354327679,-0.0587349198759
2017/07/09/10:01:39.765516,408443,1499565702,569562613,,0.807807580106,0.254663110035,0.180727538252,0.680775527382,0.727708713034,0.0463573297023,0.0695392570843,0.00197619140434,-0.281995911512,0.0223608998828,-0.0353850793428,-0.0273466689523,-0.352990416997,-4.35374593735,-0.117474749684,-0.393212676048,-0.0359947867692,-1.44697797298,-0.0507505945861
2017/07/09/10:01:39.775879,408444,1499565702,579568112,,0.808320152952,0.252238505619,0.181084693806,0.681870499214,0.726613063602,0.0465662885438,0.0701260213849,0.01587415499,-0.282868235396,0.0251464412007,-0.0407031430006,-0.0504896057936,-0.362789130333,-4.85429525375,-0.163315862417,-0.611399590969,0.00923818722367,-1.69490492344,-0.0244905166328
2017/07/09/10:01:39.785786,408445,1499565702,589563014,,0.80826541353,0.24939580405,0.181740964319,0.682913065921,0.725609960961,0.0460867241417,0.0706819836063,0.00968156037663,-0.300299094302,0.0259699190294,-0.0842152693169,-0.0377496045835,-0.349573911394,-5.4950094223,-0.405401438475,-0.558498620987,0.276218354702,-1.92070639133,0.0533377826214
2017/07/09/10:01:39.798334,408446,1499565702,599575930,,0.80826020167,0.245952621001,0.181227133375,0.684255238954,0.72434797331,0.0453815845218,0.0711005858727,0.0115413192291,-0.316909582746,0.0193195549206,-0.107732873561,-0.0493037401548,-0.358987976573,-5.05811595917,-0.465161859989,-0.60321110487,0.269705295563,-1.72546005249,0.0411508344114
2017/07/09/10:01:39.805473,408447,1499565702,609561422,,0.808112436854,0.243673038842,0.181326943774,0.685055818591,0.72358907103,0.0452071041104,0.0712299055013,-0.00410596103224,-0.304900213989,-0.00188615057065,-0.112476239143,-0.00261236782119,-0.32424310961,-4.27372407913,-0.0666953772306,-0.40077650547,0.164474233985,-1.3968462944,-0.00895500928164
2017/07/09/10:01:39.815552,408448,1499565702,619560644,,0.808107288929,0.240415987055,0.181226016557,0.686366979393,0.722332636613,0.0443451011679,0.0718988434151,0.00481749666734,-0.29875976229,0.00559818110709,-0.107539031613,-0.0145845238709,-0.330232277103,-3.8328974247,-0.217266246676,-0.145911976695,0.225432708859,-1.2639964819,0.0323956273496
2017/07/09/10:01:39.825748,408449,1499565702,629564137,,0.808913440754,0.237448863856,0.182010069411,0.687194742162,0.72137863024,0.044440672176,0.0734934339526,0.00960905972632,-0.294297469812,0.0185041397557,-0.0935049872034,-0.0314894098554,-0.329418391933,-3.69646978378,-0.420592010021,0.0368231534958,0.298124700785,-1.24677276611,0.0619667470455
2017/07/09/10:01:39.835677,408450,1499565702,639569366,,0.808656781557,0.23433777963,0.18180700308,0.688489940914,0.720208703767,0.0434835396692,0.0734180226936,0.023506386101,-0.30264433401,0.0248851827662,-0.128771485789,-0.0621899473876,-0.325750248191,-5.31213855743,-0.308736503124,0.570187687874,0.309299528599,-1.89115035534,0.0547213628888
2017/07/09/10:01:39.846222,408451,1499565702,649564919,,0.808525787309,0.230556762648,0.18188808222,0.689686299983,0.719022850109,0.0425369906269,0.0743609646548,0.0230147392606,-0.332493745718,0.0193900278765,-0.178108920542,-0.0546677027036,-0.335930392754,-6.20072317123,-0.582610964775,0.194427087903,0.360166937113,-2.20414829254,0.0957190766931
2017/07/09/10:01:39.855795,408452,1499565702,659571169,,0.809134558433,0.227928793723,0.182246118113,0.690305751732,0.718333714592,0.0425889722298,0.0752384413116,0.0116467785583,-0.333987390045,0.0204819798165,-0.200654050652,-0.0355004964184,-0.296748268644,-6.6848988533,-0.205560639501,0.490357637405,0.243086665869,-2.41770648956,0.0531435534358
2017/07/09/10:01:39.865917,408453,1499565702,669564924,,0.809818348556,0.225216241161,0.182769798654,0.691191297618,0.717354633862,0.0423919644405,0.076549596505,0.0300918519235,-0.298310205652,0.0183053179154,-0.1809284715,-0.0716121337037,-0.264405808826,-6.4629740715,-0.138131439686,1.15771853924,0.170476257801,-2.30366063118,0.0636643022299
2017/07/09/10:01:39.875817,408454,1499565702,679565869,,0.809549017544,0.221673062378,0.182418328512,0.692286829066,0.716305949522,0.0410263983914,0.0772111884112,0.0364373649806,-0.330411579322,0.0229232849439,-0.204570345085,-0.0844875640764,-0.305855065905,-7.44143152237,-0.508448779583,1.12358033657,0.265560567379,-2.62864923477,0.119376391172
2017/07/09/10:01:39.885809,408455,1499565702,689568733,,0.810007836304,0.219214908609,0.182699846335,0.692813927364,0.715710953131,0.0406546766824,0.0781913734498,0.031146588074,-0.313342148193,0.0194758571411,-0.219255169514,-0.0721105506278,-0.26266085516,-8.28446960449,-0.20265775919,1.55591368675,0.214349925518,-2.98307275772,0.113319538534
2017/07/09/10:01:39.895438,408456,1499565702,699562640,,0.810845207356,0.215588483621,0.183864453859,0.693584280658,0.714764987444,0.0402369081101,0.0802050470691,0.0303299652406,-0.316782014531,0.0203567098172,-0.250984392306,-0.0778625890906,-0.257234169232,-9.10248279572,-0.552636802197,2.08608484268,0.386602252722,-3.30729961395,0.206466123462
2017/07/09/10:01:39.905499,408457,1499565702,709562720,,0.811077536806,0.212747836761,0.183767970547,0.694646043608,0.713661642089,0.0393577705978,0.0812705395791,0.0407154226763,-0.352615583183,0.0394059218729,-0.278841078142,-0.102282695406,-0.28857986213,-9.3019657135,-0.780029475689,2.01590943336,0.410537481308,-3.39749979973,0.195590540767
2017/07/09/10:01:39.915653,408458,1499565702,719569603,,0.81098768734,0.209049268578,0.18384321974,0.695460393751,0.712809117543,0.0384727040805,0.0822061658963,0.0383817068283,-0.355863354891,0.0366111331218,-0.304920313393,-0.0921744777918,-0.269935248263,-9.20924091339,-0.184899821877,1.76843595505,0.284556567669,-3.32408452034,0.183346316218
2017/07/09/10:01:39.925594,408459,1499565702,729563040,,0.81117971573,0.205984799603,0.183562894077,0.695699151125,0.712500080345,0.0368992109781,0.0835749655174,0.0322394428126,-0.31264656289,0.0256683731766,-0.278819821103,-0.0792076635761,-0.228488701934,-9.256690979,-0.276873111725,1.31472480297,0.345327317715,-3.37066364288,0.240520551801
2017/07/09/10:01:39.935530,408460,1499565702,739569333,,0.811955922323,0.202415411915,0.184700414788,0.696797718468,0.711226685246,0.0364769317844,0.0854340399376,0.0396483062057,-0.323185217032,0.0273007125193,-0.312822724778,-0.087563136659,-0.222506780747,-8.74482631683,-0.589945197105,1.67486894131,0.425161451101,-3.21714496613,0.26817470789
2017/07/09/10:01:39.945494,408461,1499565702,749564437,,0.812903199466,0.198663492807,0.185576576606,0.697265702177,0.710541361726,0.0359741362389,0.0875064304239,0.045347491561,-0.373537357852,0.0411934551538,-0.333225944207,-0.111256835729,-0.292466149212,-9.35261058807,-0.807574808598,1.4808164835,0.505798220634,-3.48355722427,0.309080898762
2017/07/09/10:01:39.955754,408462,1499565702,759565829,,0.812975742327,0.19591641763,0.185514060419,0.697772264487,0.709970079543,0.0348710597081,0.0885458201238,0.0521144690634,-0.359310637229,0.0601055807437,-0.348245127808,-0.134805687752,-0.246057061793,-9.53973197937,-0.457900702953,1.61905872822,0.376301079988,-3.58701205254,0.267232209444
2017/07/09/10:01:39.965454,408463,1499565702,769562065,,0.813531575465,0.192388279613,0.18591004831,0.698680329338,0.708895874817,0.0337876793303,0.090392636815,0.0471464100884,-0.373557659015,0.0497444334743,-0.374760501702,-0.113899217828,-0.271559617179,-9.72704792023,-0.156940609217,1.37501120567,0.264453589916,-3.64463424683,0.307711720467
2017/07/09/10:01:39.975798,408464,1499565702,779581577,,0.814095010425,0.188801687878,0.186572529095,0.699562630163,0.707839652682,0.033064777204,0.0920970850732,0.0495662001098,-0.312632818226,0.0364137714175,-0.344192260957,-0.106448211694,-0.206044594807,-9.55232048035,-0.587797820568,1.14255821705,0.30203473568,-3.62901473045,0.327928781509
2017/07/09/10:01:39.986043,408465,1499565702,789565764,,0.814199004941,0.185990455866,0.186765161488,0.699976273988,0.707342959804,0.0318128087018,0.0932046043521,0.0393929482174,-0.337239958249,0.0383407698949,-0.352675825487,-0.0821153360147,-0.248532811088,-9.67227268219,-0.327858090401,1.45819866657,0.282061576843,-3.71774768829,0.363376319408
2017/07/09/10:01:39.995579,408466,1499565702,799568571,,0.814438116895,0.182755769918,0.186758816105,0.700856076444,0.706353856829,0.0308016863817,0.0944258713008,0.0327235933726,-0.35582797655,0.0376369410845,-0.372945735205,-0.0780420260978,-0.260830537823,-9.38680076599,-0.220209211111,1.17183852196,0.329536020756,-3.64296531677,0.369025588036
2017/07/09/10:01:40.005957,408467,1499565702,809561230,,0.814938538419,0.179449485198,0.187270721764,0.701236779351,0.705747953017,0.02930928279,0.0965803915888,0.0272000485433,-0.34559111742,0.0247334156414,-0.39001557218,-0.0493646481418,-0.243884053086,-9.30254650116,-0.393032640219,1.06577146053,0.46467000246,-3.6811645031,0.440921545029
2017/07/09/10:01:40.015684,408468,1499565702,819594719,,0.815878025652,0.176011079588,0.187634996968,0.702498930304,0.704229864474,0.0283835314637,0.0987417138125,0.0352633107055,-0.338424538159,0.0334770667575,-0.398288576212,-0.0685772336656,-0.308939263936,-9.49480438232,-0.757154762745,1.40365588665,0.510620832443,-3.74924325943,0.461454451084
2017/07/09/10:01:40.025726,408469,1499565702,829564490,,0.815364831641,0.172551786026,0.187535948272,0.704630114558,0.702065206572,0.0266757852743,0.0994447075455,0.0399614997634,-0.360692365463,0.0386659713269,-0.401502716148,-0.0973013436123,-0.46473465442,-10.0361766815,-1.00769591331,0.837721168995,0.61669754982,-3.84669685364,0.514409244061
2017/07/09/10:01:40.037333,408470,1499565702,839567835,,0.816325707547,0.169933307246,0.188342895568,0.705942357397,0.700465378831,0.026008730424,0.101573554794,0.0518758521092,-0.334806902822,0.0489056306196,-0.361087800179,-0.137462318276,-0.54374557355,-9.43574714661,-0.469869911671,1.34109032154,0.539860665798,-3.57726931572,0.481532901525
2017/07/09/10:01:40.045897,408471,1499565702,849564655,,0.817017244087,0.16664334625,0.188905368407,0.706633454915,0.699492762375,0.0250427418395,0.103691353842,0.0558509635377,-0.328344473402,0.0501440286087,-0.376289938723,-0.143434576962,-0.499886911033,-9.80676269531,-0.338170945644,1.2503721714,0.552046656609,-3.72367715836,0.596028983593
2017/07/09/10:01:40.055790,408472,1499565702,859580732,,0.816973199666,0.163594774623,0.188928738132,0.70699367467,0.699023125646,0.0233514122833,0.10479181902,0.0458998882966,-0.344430223784,0.0395040358374,-0.421901600503,-0.0966853163822,-0.333216917759,-9.80403995514,-0.538245081902,1.03014075756,0.521547079086,-3.75460982323,0.602654457092
2017/07/09/10:01:40.066476,408473,1499565702,869563728,,0.817615847329,0.160508739816,0.189678877541,0.707790410629,0.697989922564,0.0226703803039,0.106437101042,0.0364430786456,-0.338136694145,0.0414787204572,-0.440911580371,-0.0531303745463,-0.224252320087,-9.20094299316,-0.150611519814,1.15765237808,0.27492582798,-3.58000874519,0.501268565655
2017/07/09/10:01:40.075547,408474,1499565702,879565794,,0.81756034656,0.157683158108,0.189370384557,0.707970871402,0.697668709852,0.0206181734561,0.107752064774,0.0245356017248,-0.341185195114,0.0236971803519,-0.420583316596,-0.0130218816787,-0.211988565033,-8.81304931641,0.0625993832946,0.703584909439,0.239593490958,-3.55810117722,0.533950090408
2017/07/09/10:01:40.085949,408475,1499565702,889561679,,0.818451363474,0.15410681126,0.190329249769,0.708646216019,0.6967023689,0.0198068542839,0.109699763966,0.0416634491268,-0.310430490791,0.0408098618052,-0.417283423773,-0.0385612610985,-0.170748125344,-8.39421367645,-0.643636584282,0.681456148624,0.329787105322,-3.48593425751,0.544048249722
2017/07/09/10:01:40.095445,408476,1499565702,899578073,,0.81866538189,0.151497847375,0.18991784698,0.709237593778,0.696008459428,0.018412295749,0.110522610094,0.0335387657267,-0.322846932846,0.0275726974536,-0.398257275303,-0.0207858921837,-0.207720035511,-8.19281578064,-0.281876325607,0.48161059618,0.297804772854,-3.52278017998,0.587026834488
2017/07/09/10:01:40.105620,408477,1499565702,909561209,,0.819149861443,0.148144766142,0.190127191801,0.709631612268,0.695339572808,0.0167854404822,0.112445997458,0.048868364543,-0.293598552482,0.0228216986804,-0.399146106114,-0.0395261932407,-0.181345947129,-7.9799041748,-0.510333240032,0.515501022339,0.334730863571,-3.33744454384,0.60611730814
2017/07/09/10:01:40.115801,408478,1499565702,919568609,,0.819165842534,0.145157589904,0.19051561423,0.710127348093,0.694659727961,0.015280621072,0.113725610391,0.0462513169673,-0.321853844641,0.0250415626756,-0.397919227991,-0.0460211933912,-0.222765634518,-8.89662837982,-0.755877435207,0.919915020466,0.473673403263,-3.59500026703,0.694806933403
2017/07/09/10:01:40.125519,408479,1499565702,929569212,,0.819417278,0.141778615934,0.190673486236,0.710634537963,0.693921753694,0.0136931437855,0.115254722326,0.041846059327,-0.299813954559,0.0351043400847,-0.39569098689,-0.0293560037227,-0.213201655607,-8.91217422485,-1.24284422398,1.14687764645,0.637038469315,-3.56515526772,0.760546028614
2017/07/09/10:01:40.135461,408480,1499565702,939569213,,0.820073790092,0.139587970522,0.191732796958,0.710950203347,0.693338296786,0.0127621107291,0.116914255332,0.0330532508271,-0.294309662271,0.0241514793511,-0.388058592821,0.000686964865236,-0.196976085809,-8.36110115051,-0.436096817255,0.998615205288,0.449694097042,-3.39230632782,0.678387403488
2017/07/09/10:01:40.145478,408481,1499565702,949562219,,0.820409655982,0.136755869336,0.191713502987,0.711492613083,0.692646960972,0.0113104542603,0.117858061283,0.031888913319,-0.297952430373,0.0317764968009,-0.393704065224,0.00976315133053,-0.205218166287,-8.74762535095,-1.03361523151,1.13399636745,0.648568511009,-3.51269292831,0.786706149578
2017/07/09/10:01:40.155638,408482,1499565702,959568930,,0.820870116661,0.133999145842,0.191879525059,0.711948278582,0.691948171215,0.0100055612695,0.119320013911,0.0450307646139,-0.291280473127,0.0462273731694,-0.405380924761,-0.0192181221732,-0.188013414213,-7.98130655289,-0.416341483593,0.612458646297,0.384887576103,-3.2784280777,0.655652999878
2017/07/09/10:01:40.165464,408483,1499565702,969560525,,0.821184630417,0.131755204176,0.191967112802,0.712456078381,0.691276216829,0.00859683326483,0.12028974554,0.040669723335,-0.2889098502,0.0331583466017,-0.390187520563,0.000321431899513,-0.218414632976,-8.25150680542,0.126275360584,0.0776125341654,0.196361377835,-3.40775609016,0.668221354485
2017/07/09/10:01:40.175780,408484,1499565702,979568625,,0.820675375232,0.128315159079,0.1916687083,0.71297377652,0.690643498584,0.00617060658173,0.121003617603,0.0175899753218,-0.301912000365,0.0188491046738,-0.377080509399,0.0603501310597,-0.248440344564,-8.77056121826,-0.513297796249,0.364517241716,0.250768750906,-3.53744602203,0.711032629013
2017/07/09/10:01:40.185488,408485,1499565702,989563322,,0.821136194102,0.126182267911,0.192351510432,0.713372009286,0.690056252686,0.00498948019991,0.122056747391,0.0157105208026,-0.265263694715,0.0130498884604,-0.348821309063,0.0801087956536,-0.215367928009,-8.39111614227,-0.064788967371,0.708576917648,0.240230560303,-3.39690685272,0.681235253811
2017/07/09/10:01:40.195561,408486,1499565702,999582507,,0.821226492337,0.122871814917,0.192394873222,0.714295817586,0.688909060408,0.00320072418837,0.123189069447,0.0246296893117,-0.28478809843,0.0288275611174,-0.379257027546,0.0517219571826,-0.224346520299,-8.18030643463,-0.494231551886,0.679372489452,0.335199713707,-3.35400676727,0.73560577631
2017/07/09/10:01:40.205973,408487,1499565703,9566463,,0.821584513299,0.120930142486,0.192579364131,0.714529756485,0.68851814102,0.0017279141792,0.12404439083,0.0190974556736,-0.280952891652,0.0220139759847,-0.37063277913,0.0707334416921,-0.230941563372,-8.10408687592,0.111620880663,0.676272451878,0.135779246688,-3.35269451141,0.653287351131
2017/07/09/10:01:40.215632,408488,1499565703,19568967,,0.821712484535,0.1177060013,0.192894225898,0.715394758968,0.687420240811,0.000210428499541,0.125154732573,0.0196582637551,-0.281629126913,0.0253519643937,-0.373705302892,0.0662635452439,-0.23025774067,-8.94180297852,-0.0144616663456,0.473126381636,0.169702857733,-3.65320563316,0.746441602707
2017/07/09/10:01:40.225733,408489,1499565703,29561482,,0.821785551068,0.115104355926,0.192485308992,0.715954757521,0.686683369933,-0.00164904341256,0.125984186696,0.0150245003254,-0.276648629052,0.00883337354331,-0.363541852638,0.0869410635439,-0.234429854189,-8.43996143341,-0.0752641931176,0.135748565197,0.13262809813,-3.45007109642,0.699376940727
2017/07/09/10:01:40.235622,408490,1499565703,39567281,,0.821625044786,0.11306226359,0.192450812797,0.716327549121,0.686209018361,-0.00323203726567,0.126418271726,0.00743771888881,-0.27031827296,0.00189483875504,-0.332020207491,0.115241047778,-0.2521890268,-7.62891340256,0.305612832308,0.147653758526,-0.032550893724,-3.17240834236,0.587345004082
2017/07/09/10:01:40.245883,408491,1499565703,49562058,,0.822217667992,0.111015233951,0.193413872597,0.716813226868,0.68548970709,-0.00429713695524,0.127531148646,0.00532166278022,-0.274413338284,0.00787865724857,-0.334960392169,0.115967333382,-0.25881494304,-6.46101331711,0.727549791336,0.394346147776,-0.168000757694,-2.75136494637,0.479769051075
2017/07/09/10:01:40.255726,408492,1499565703,59561028,,0.822648340298,0.106711162117,0.193686503434,0.717904318447,0.684043397273,-0.00602647172093,0.129080214756,0.00566007052941,-0.27461084956,0.01137866529,-0.325911634947,0.132141371438,-0.266226985155,-5.23012828827,-0.404350847006,0.104714557528,0.0171352978796,-2.3256752491,0.458065032959
2017/07/09/10:01:40.265536,408493,1499565703,69562360,,0.82209736557,0.104439240127,0.193256195925,0.718487620623,0.683419685798,-0.00818374386469,0.129019759774,0.0061785385782,-0.273552221265,0.0161023404217,-0.34999334032,0.128228660885,-0.255819275151,-5.67551088333,-0.120502471924,-0.665104746819,-0.186818450689,-2.40885305405,0.420444846153
2017/07/09/10:01:40.275855,408494,1499565703,79569452,,0.822395436723,0.103065254471,0.193421854763,0.718921953171,0.682912623508,-0.00923486468413,0.129214129165,-0.00227405387905,-0.262934470009,0.0143719022552,-0.340030174806,0.15482597675,-0.248887935314,-6.12232303619,0.142013669014,-0.207679763436,-0.0377742871642,-2.61268210411,0.504434585571
2017/07/09/10:01:40.285595,408495,1499565703,89562456,,0.821864823301,0.100910659607,0.193067296988,0.719189675574,0.68248161906,-0.0119056409713,0.129781762613,-0.0118458462934,-0.254388433199,0.00742511231571,-0.326051404019,0.178839586752,-0.256496437523,-6.37239217758,0.896262943745,-0.298254042864,-0.167657583952,-2.6676774025,0.480587422848
2017/07/09/10:01:40.295595,408496,1499565703,99568242,,0.821919342716,0.0983032472538,0.193238322773,0.720152963423,0.681355142566,-0.01334647885,0.130218088125,-0.0023693484145,-0.244220833471,0.0158738051303,-0.310330667335,0.160004600291,-0.250951769051,-5.79584932327,0.764717161655,0.313810676336,-0.048193000257,-2.37023758888,0.459336310625
2017/07/09/10:01:40.305667,408497,1499565703,109577182,,0.82196614758,0.0957296632636,0.193395543839,0.720815432411,0.680528146421,-0.0149344711647,0.130703924571,-0.0053520255379,-0.278216566436,0.0219705809413,-0.33929036295,0.154380202881,-0.265692012622,-5.13761043549,0.796416342258,0.191997379065,-0.0952248871326,-2.18811750412,0.413441479206
2017/07/09/10:01:40.315473,408498,1499565703,119567914,,0.821727869747,0.0929507183156,0.193684697373,0.721530242532,0.679649130504,-0.0169591156994,0.131086066808,-0.034416298969,-0.253686675112,-0.0165669944827,-0.290689913478,0.24874482689,-0.282199189974,-4.24486589432,-0.194660067558,0.514502942562,0.210640639067,-1.87201619148,0.430048763752
2017/07/09/10:01:40.325583,408499,1499565703,129564185,,0.821367726101,0.0904580782932,0.193188726439,0.72236626976,0.678667122713,-0.0191637193923,0.13126561134,-0.0287889387971,-0.241999376259,0.0010404091007,-0.283583097371,0.233092238165,-0.281150464249,-3.99101853371,0.0219624899328,-0.160170391202,0.115602947772,-1.78504991531,0.412141919136
2017/07/09/10:01:40.335854,408500,1499565703,139568380,,0.821103895355,0.0874584682471,0.193795151368,0.723295863268,0.677518527543,-0.020976940972,0.131801771468,-0.0115821412447,-0.273206460733,0.0202603669363,-0.327992071357,0.186459989019,-0.291467113485,-4.15644454956,-0.441345959902,0.138295203447,0.109116278589,-1.80005264282,0.401962041855
2017/07/09/10:01:40.345620,408501,1499565703,149570241,,0.821137429818,0.0858500771085,0.193730908145,0.723504068031,0.677197932953,-0.0226571597158,0.132028316132,-0.0171913682331,-0.259369511819,0.0130152383017,-0.31640345146,0.213202038358,-0.268261431143,-3.88698339462,0.581686854362,-0.219107851386,-0.128380835056,-1.74290168285,0.332006335258
2017/07/09/10:01:40.355642,408502,1499565703,159604659,,0.821182400407,0.0824073194494,0.194248469009,0.724587678574,0.675772696709,-0.0245993520875,0.133036950951,-0.00892420198066,-0.256265385131,0.0139610042553,-0.314194197308,0.199444256409,-0.261323031094,-2.65961742401,0.732872605324,-0.103044018149,-0.278969913721,-1.27191329002,0.189201101661
2017/07/09/10:01:40.365598,408503,1499565703,169603777,,0.820861579863,0.0802242874096,0.194029637245,0.725225847978,0.675009553005,-0.0266631275718,0.133036274768,-0.00474273580663,-0.266068457065,0.0289022892209,-0.307891668608,0.171472166733,-0.29878678599,-2.57183623314,0.386993974447,-0.0816055610776,-0.0186819862574,-1.14596438408,0.245759025216
2017/07/09/10:01:40.375978,408504,1499565703,179609928,,0.82134491551,0.0780135111335,0.194773625125,0.725773975372,0.674198072599,-0.0279145460414,0.133902478304,-0.0063539125654,-0.272088988276,0.0215885643626,-0.321648376707,0.173154219295,-0.293242528986,-1.64657831192,0.629296898842,0.319011300802,-0.1103400141,-0.821756541729,0.141551673412
2017/07/09/10:01:40.385906,408505,1499565703,189603634,,0.820857146751,0.0753727189218,0.194847378871,0.726521744859,0.673261063846,-0.0301852637216,0.134069176211,0.00255500721519,-0.25826201657,0.042430761524,-0.30636276806,0.147500796472,-0.293659051011,-1.96358907223,0.784667372704,0.18373966217,-0.0648091211915,-0.838533878326,0.182767882943
2017/07/09/10:01:40.396210,408506,1499565703,199601893,,0.821163562583,0.0718838523703,0.195451030856,0.727752376897,0.671696445983,-0.0316887425442,0.13489323916,-0.0123770344791,-0.256459307827,0.0253364948467,-0.299382643062,0.205136205457,-0.289899111044,-1.8241969347,0.0229934416711,0.0913970768452,-0.0180467907339,-0.87251406908,0.130555003881
2017/07/09/10:01:40.406206,408507,1499565703,209603033,,0.82098971944,0.069878142627,0.195806845613,0.72835282445,0.670922455896,-0.0333586886761,0.135101514352,-0.00851091559899,-0.273445493644,0.0339899240045,-0.308665876449,0.184135440386,-0.318848016408,-2.23187756538,-0.117263749242,0.0533939749002,0.00692637823522,-1.03661894798,0.225622221828
2017/07/09/10:01:40.415661,408508,1499565703,219610467,,0.821163537931,0.0688899971575,0.195438926975,0.728440685304,0.670750003271,-0.0348628157137,0.135104349249,-0.00932526609564,-0.25793342344,0.0434842996336,-0.289967112727,0.178446190692,-0.307677705559,-2.02174782753,0.97080540657,-1.05621361732,-0.26210308075,-1.0288772583,0.151134699583
2017/07/09/10:01:40.425870,408509,1499565703,229604795,,0.820975525961,0.0647427019974,0.196412914743,0.729563404381,0.669212061215,-0.0370225276756,0.136094777848,0.00173185045937,-0.254152966028,0.0436171785783,-0.276154117227,0.141193586199,-0.308726058401,-0.600370943546,0.157341659069,0.0954083949327,-0.0508037060499,-0.460355579853,0.0619007535279
2017/07/09/10:01:40.435642,408510,1499565703,239609859,,0.820362609712,0.0631681705918,0.19641953677,0.730404849829,0.668285735363,-0.038690669347,0.135668579126,-0.0126541852464,-0.26441227266,0.0319378716478,-0.270367050968,0.171237697153,-0.324263448654,0.426140964031,0.602490961552,0.000204311683774,-0.13083730638,0.0125492010266,-0.0496140606701
2017/07/09/10:01:40.446141,408511,1499565703,249632804,,0.820325027,0.0599286276615,0.196806002043,0.731577535601,0.66679587984,-0.0402216861454,0.136234283481,-0.0245660342055,-0.23664088513,0.024924973835,-0.247505486081,0.20901303893,-0.296651376715,0.52225279808,-0.159398600459,0.525251328945,0.0214713457972,0.0496691279113,-0.0685448497534
2017/07/09/10:01:40.455561,408512,1499565703,259609900,,0.820097481105,0.0575999944844,0.197390230399,0.732160140955,0.665938356002,-0.0421756493531,0.136707163691,-0.00907418112744,-0.249105531174,0.0489175952808,-0.259199129572,0.15496456442,-0.328674641477,0.169319212437,0.105978265405,0.268935859203,-0.0690260082483,-0.0702674388885,-0.0380539819598
2017/07/09/10:01:40.465586,408513,1499565703,269605058,,0.820698139755,0.0556938385506,0.198033736792,0.732824410991,0.665019765344,-0.0431617372118,0.137310446792,-0.00542646201425,-0.248771374293,0.0517269695139,-0.246583725117,0.14600245846,-0.336634659299,-0.777126610279,0.331636488438,0.321944475174,-0.0330599583685,-0.466669976711,0.100948996842
2017/07/09/10:01:40.475660,408514,1499565703,279610348,,0.820065840824,0.0534183913002,0.198038132872,0.733690815622,0.664029578977,-0.0449023033707,0.136917086105,-0.0111231991589,-0.26720537367,0.0459176121454,-0.255922942304,0.150353077906,-0.333681286078,-0.543027102947,0.358955681324,-0.202945336699,-0.111254036427,-0.39123916626,0.0638809353113
2017/07/09/10:01:40.485592,408515,1499565703,289602856,,0.819741775417,0.051530036761,0.197598579628,0.734247063077,0.663304787705,-0.046830421299,0.136802487594,-0.00875437876025,-0.286864611975,0.0514572211531,-0.275140642945,0.138172836182,-0.347883830251,-0.0579131916165,1.12667906284,-0.882836341858,-0.288700073957,-0.173868864775,-0.0524842478335
2017/07/09/10:01:40.495534,408516,1499565703,299601934,,0.819835980272,0.0478982584711,0.198568875653,0.735735513471,0.661462987708,-0.0478903581462,0.13735531918,-0.000993500454982,-0.257923375587,0.044232332404,-0.247333042098,0.122375577358,-0.323843434471,1.04133057594,0.340930402279,-0.352137893438,-0.0821719765663,0.244808703661,-0.10520888865
2017/07/09/10:01:40.505936,408517,1499565703,309603976,,0.820331714949,0.0458459341689,0.199893179441,0.736433749487,0.660403645918,-0.0487357604745,0.138409474845,-0.00727618011947,-0.238515272773,0.037242045796,-0.219681821702,0.141377523013,-0.320097591794,1.23956954479,0.254264444113,-0.0713567733765,-0.0827231109142,0.316333830357,-0.153061240911
2017/07/09/10:01:40.515720,408518,1499565703,319607408,,0.819809479038,0.0436492985296,0.19971409424,0.737277330117,0.659330268871,-0.0507148342304,0.138324765082,-0.00482860632892,-0.251221668424,0.0536046207813,-0.22249467911,0.118995841194,-0.329742429923,0.595419645309,0.316076010466,0.0434079729021,-0.0958694592118,0.160262420774,-0.0990706309676
2017/07/09/10:01:40.525869,408519,1499565703,329610250,,0.820138223682,0.0410347503821,0.200449233498,0.738209174304,0.65809965492,-0.0515746958927,0.138896039939,-0.011144620176,-0.250314986047,0.065042395202,-0.222074413238,0.112447902529,-0.35219360752,1.11300981045,0.215195119381,-0.0874305441976,-0.0470487400889,0.297098845243,-0.130927458405
2017/07/09/10:01:40.535608,408520,1499565703,339608691,,0.819579453003,0.0388603364578,0.200324532353,0.739210825206,0.656888245314,-0.0532103270746,0.138686157058,-0.0187914920098,-0.243131672906,0.0408602683939,-0.185445857229,0.132951915165,-0.369281028688,3.16491508484,0.431747108698,-0.983867287636,-0.202218800783,1.07737314701,-0.401611417532
2017/07/09/10:01:40.545618,408521,1499565703,349607282,,0.81965106427,0.0365331361792,0.200888505106,0.739939999121,0.655932305511,-0.0542375172313,0.138924080034,-0.0259882403412,-0.256671455763,0.0290940987774,-0.176030939394,0.142345535778,-0.371875153315,3.42805480957,0.328401476145,-0.129747539759,-0.0477282293141,1.17140316963,-0.395745396614
2017/07/09/10:01:40.555617,408522,1499565703,359609333,,0.819731338699,0.0354647721352,0.201047094743,0.740754920578,0.654991714727,-0.0548357474707,0.138784156437,-0.0141487284332,-0.234279328348,0.0425561362475,-0.133901820026,0.103250573313,-0.352921866846,3.08921265602,0.661095261574,-0.3054292202,-0.0142411831766,1.10925221443,-0.378966987133
2017/07/09/10:01:40.565523,408523,1499565703,369603734,,0.819085781265,0.0322938701427,0.201163552869,0.742331024029,0.653178027459,-0.0559960532468,0.138446947345,-0.016618355092,-0.228008593265,0.0458513322197,-0.120429528957,0.0931849843486,-0.378691624061,2.50766658783,0.210525646806,0.0569301471114,0.147450208664,0.892952799797,-0.27472820878
2017/07/09/10:01:40.575577,408524,1499565703,379604919,,0.819077567839,0.0308343630492,0.201876143657,0.743308377364,0.652040840655,-0.0564583840011,0.138375753421,-0.0283566278803,-0.216579392364,0.033345842897,-0.0775379369992,0.113224946632,-0.371321178453,2.93508434296,-0.0727404877543,0.687234282494,0.197353810072,1.04764974117,-0.325790911913
2017/07/09/10:01:40.585875,408525,1499565703,389602190,,0.819325639141,0.028911116731,0.202600908882,0.744397185836,0.650739037869,-0.0568032071684,0.138509674637,-0.0243755931222,-0.218344069779,0.0284901587306,-0.0429517286287,0.0938541552862,-0.386546684027,2.73245382309,0.482900887728,0.502616763115,0.0294876340777,0.942718565464,-0.357603311539
2017/07/09/10:01:40.595674,408526,1499565703,399610276,,0.8187326774,0.0263856054677,0.203071190462,0.745870093389,0.649100418738,-0.0573818055033,0.138035425085,-0.0232248661637,-0.196284626596,0.0285865480499,-0.00462351728077,0.0844505367586,-0.37581660936,3.17596435547,-0.00683845439926,0.469689011574,-0.00598648842424,1.10325610638,-0.368218034506
2017/07/09/10:01:40.605792,408527,1499565703,409609002,,0.818211414431,0.0239460938767,0.203138973912,0.747354544597,0.647402415829,-0.0583291167978,0.137582741586,-0.0385743671799,-0.200233312673,0.0281406078971,-0.0116710605004,0.114923730702,-0.379632270555,3.29989552498,-0.528166234493,0.0583939738572,-0.071321181953,1.15973567963,-0.379204571247
2017/07/09/10:01:40.615941,408528,1499565703,419615614,,0.817712318693,0.0225444063362,0.203139526356,0.747733843833,0.64692594291,-0.0596899768622,0.137178824313,-0.03536504404,-0.20732103432,0.0272260104976,-0.0390954600925,0.115422390365,-0.366178579331,4.1003575325,-0.152358800173,-0.125068634748,-0.233767718077,1.45116639137,-0.468320578337
2017/07/09/10:01:40.625807,408529,1499565703,429607761,,0.817392810843,0.0200214598487,0.203759351818,0.748929423347,0.645498664119,-0.060287901851,0.137118789216,-0.0343714972121,-0.214217836777,0.0292976568333,-0.076385787115,0.115438815463,-0.351288774654,4.86996603012,-0.522785127163,0.0359937623143,-0.0741448700428,1.76533842087,-0.572672307491
2017/07/09/10:01:40.635818,408530,1499565703,439603695,,0.817120559744,0.017357863121,0.203983153851,0.750381445589,0.643743170677,-0.0609729808252,0.137130273581,-0.0303904327418,-0.224867164447,0.0376307638876,-0.087057060171,0.0810437019671,-0.385255294949,6.6707701683,1.25519144535,-0.285333514214,-0.321713447571,2.35199642181,-0.810627818108
2017/07/09/10:01:40.645513,408531,1499565703,449602062,,0.817340595198,0.017438330584,0.203958179382,0.750992144082,0.64317305429,-0.0610107998806,0.136443776187,-0.0282598402109,-0.214303394648,0.0369332824012,-0.0633101715999,0.0733305116687,-0.365254398806,6.56348276138,0.943897306919,-0.350445091724,-0.131114006042,2.27936387062,-0.722171783447
2017/07/09/10:01:40.655736,408532,1499565703,459606562,,0.817177819063,0.0151701863921,0.204727135923,0.752007891438,0.641954146212,-0.0613588240783,0.136433500592,-0.0210893620104,-0.196653155999,0.0367130415043,-0.0278100327596,0.0524130955247,-0.369226770888,5.8582277298,0.716903626919,-0.249455571175,-0.0181627497077,2.04751372337,-0.664929270744
2017/07/09/10:01:40.665575,408533,1499565703,469603661,,0.816354023824,0.0121485355192,0.204748697215,0.753748541169,0.639816910225,-0.0625204822555,0.136340189874,-0.0286371219291,-0.219613239207,0.0414836057094,-0.0100910356699,0.0361382981289,-0.392505133754,4.50269937515,0.349608570337,0.06071902439,0.155042499304,1.58454918861,-0.510022163391
2017/07/09/10:01:40.675817,408534,1499565703,479610551,,0.816053393397,0.0103147280833,0.204658986847,0.75448399171,0.6389910489,-0.0629122871866,0.135964663793,-0.0286291215749,-0.22052856215,0.0338011380461,-0.0323259130166,0.0407981020535,-0.380440163937,4.63104867935,0.390988111496,0.64833343029,0.0330573171377,1.7054284811,-0.621282756329
2017/07/09/10:01:40.685616,408535,1499565703,489603294,,0.816354831703,0.00854135792428,0.205679879845,0.755385892398,0.637832214773,-0.0629102173764,0.136398401431,-0.0250443534022,-0.227619985479,0.0485403599869,-0.041904022091,0.0124474039133,-0.381080058277,3.66472578049,0.52505582571,0.870910465717,-0.113097846508,1.41779482365,-0.56167781353
2017/07/09/10:01:40.695592,408536,1499565703,499621261,,0.815594409439,0.00592581123694,0.205313861932,0.756883328269,0.636120580724,-0.0636057403431,0.135766505309,-0.025629967578,-0.207235882786,0.0359855413188,-0.00245926541046,0.0190800778684,-0.377557447998,3.26858234406,0.694498896599,0.880486369133,-0.110034398735,1.26953542233,-0.497064530849
2017/07/09/10:01:40.705568,408537,1499565703,509602687,,0.815713283833,0.00448351967797,0.206073633448,0.757887188027,0.634923157727,-0.0634621531851,0.135838687859,-0.0173960424104,-0.204172031157,0.0413570901237,0.00985219449457,-0.0126047267077,-0.388790327735,3.41225528717,0.714405655861,0.665938615799,-0.0542719587684,1.31572806835,-0.483247160912
2017/07/09/10:01:40.715774,408538,1499565703,519611514,,0.814786409733,0.0021318537876,0.206161579274,0.759257240113,0.633286003575,-0.064445587847,0.135366344484,-0.0399015073696,-0.22489386627,0.0515126025342,-0.00704867199806,0.0123401342012,-0.40549387036,3.4415640831,0.687040567398,0.485144913197,-0.067064255476,1.24957585335,-0.493665933609
2017/07/09/10:01:40.725790,408539,1499565703,529607005,,0.814735049547,0.000344123731462,0.206334379382,0.760336403944,0.632042812816,-0.0644031311387,0.13513945503,-0.0542452713244,-0.217211456463,0.0150179666923,0.0197715235057,0.0668661771067,-0.398154258896,4.1576757431,0.426547408104,0.494389474392,0.128567457199,1.43699359894,-0.505088269711
2017/07/09/10:01:40.735791,408540,1499565703,539602333,,0.814593358722,-0.00286449013895,0.207719513408,0.761663945519,0.630267300587,-0.0645528067321,0.135882666483,-0.0416208757429,-0.223135079252,0.0367458576442,0.0153932516059,0.0117953404675,-0.409234233557,2.62647771835,-0.238723382354,0.25668874383,0.517200708389,0.790864646435,-0.234276860952
2017/07/09/10:01:40.745599,408541,1499565703,549618107,,0.814454791755,-0.00449591283746,0.207830582564,0.762740007347,0.629078752691,-0.0642814928176,0.135482448258,-0.0262736695691,-0.211488848729,0.057517144842,0.0148963054412,-0.0365860492137,-0.370708099256,1.07475244999,-1.04835784435,0.239049747586,0.970622003078,0.170830726624,0.0372650772333
2017/07/09/10:01:40.755812,408542,1499565703,559638321,,0.814165064505,-0.00662664450974,0.208026844834,0.764067819022,0.627495557486,-0.0642348343657,0.135364616216,-0.0116205002881,-0.237333354542,0.0597265273623,0.0258298542659,-0.096279699535,-0.390625263741,0.626550376415,-1.74503684044,0.288264781237,1.25549900532,0.0669119805098,0.117668703198
2017/07/09/10:01:40.765852,408543,1499565703,569603242,,0.814275213067,-0.00846271612883,0.208749792971,0.765206655993,0.626112702807,-0.0637438897405,0.135566859994,-0.0180205039112,-0.230877335035,0.034494067484,0.044138602237,-0.0832500914926,-0.382885323995,0.448633879423,-1.54850900173,0.485053658485,1.13183951378,0.082778275013,0.0697601735592
2017/07/09/10:01:40.775479,408544,1499565703,579602410,,0.814222710949,-0.0104390197357,0.208792473492,0.766395848864,0.624697419861,-0.0635320271036,0.13547773985,0.0014394726753,-0.197429148864,0.0375653314452,0.0618995745238,-0.118799641212,-0.369381175245,1.54018759727,-0.622062325478,0.724357783794,0.649024248123,0.636621594429,-0.163965716958
2017/07/09/10:01:40.785936,408545,1499565703,589602005,,0.813669080586,-0.0120813715221,0.208301194162,0.767123028001,0.623901253309,-0.0639887926661,0.134814392567,-0.00304180521267,-0.194861866779,0.0275448144012,0.0592629531204,-0.0999576456013,-0.353965076704,1.980661273,0.386402726173,0.541979908943,0.0357843413949,0.853238344193,-0.334770977497
2017/07/09/10:01:40.795650,408546,1499565703,599608918,,0.813964128859,-0.0144284849584,0.209454528381,0.768700488775,0.621954436632,-0.0630053758258,0.135286954022,-0.013971831987,-0.202601366817,0.0332950288063,0.0565515530352,-0.0815480940249,-0.352803798638,2.68159389496,0.728751301765,0.452886104584,-0.212736219168,1.0573759079,-0.461950361729
2017/07/09/10:01:40.806007,408547,1499565703,609605204,,0.813806097044,-0.0159632999472,0.20948277662,0.769319781747,0.621213317402,-0.062999986397,0.135174292706,-0.0146747407252,-0.210974514715,0.0326908911824,0.0262343589525,-0.0780831916958,-0.338569153847,2.4484462738,0.638446033001,0.176163226366,-0.193111404777,0.850380837917,-0.398612469435
2017/07/09/10:01:40.815754,408548,1499565703,619602786,,0.813465253272,-0.0187944065822,0.210413938545,0.770611749028,0.619494838222,-0.0629728074475,0.135713312534,-0.0369995902141,-0.23485772691,0.0352766875584,-0.0050724187365,-0.0455277159171,-0.348966633175,2.67912340164,0.397020578384,0.311465203762,0.00615963712335,0.903033494949,-0.413308471441
2017/07/09/10:01:40.825562,408549,1499565703,629604032,,0.813149087276,-0.0205553001537,0.21009260692,0.771513409648,0.618464089752,-0.0630401818923,0.135259616617,-0.025482439161,-0.23597794508,0.0370272779389,-0.0249195714789,-0.0679628880049,-0.326031392934,2.56086063385,0.114731170237,0.304536104202,0.176653027534,0.798342049122,-0.374355584383
2017/07/09/10:01:40.835614,408550,1499565703,639610460,,0.813113066301,-0.0238232766402,0.21097169645,0.772754242628,0.616707146377,-0.0627649073292,0.136322201114,-0.0293305142883,-0.253722303291,0.0284508595194,-0.0093230615187,-0.0858283290482,-0.357568665168,0.789474070072,-2.21769809723,1.0080935955,0.786321103573,0.225734129548,-0.11442065239
2017/07/09/10:01:40.845929,408551,1499565703,649604157,,0.813377581791,-0.0248666996842,0.211245476922,0.773217875344,0.61610073599,-0.0623289372401,0.136634929443,-0.0203539974637,-0.256266876039,0.0337270759779,-0.0216729451531,-0.118065179538,-0.35521465649,-1.05684137344,-0.898206651211,1.08434641361,0.544598340988,-0.451988190413,0.0504199638963
2017/07/09/10:01:40.855955,408552,1499565703,659609872,,0.812772320041,-0.0281109580648,0.211267275587,0.774606297111,0.614334877326,-0.0622732383133,0.136747163652,0.00173186221907,-0.218438090386,0.0304946877427,0.0229777820777,-0.163687811396,-0.310143275897,-0.807861804962,-1.39607656002,0.797460913658,0.464838147163,-0.171212464571,-0.0265354439616
2017/07/09/10:01:40.865537,408553,1499565703,669604052,,0.812679868618,-0.0296822879993,0.210981612493,0.775184098346,0.613633731245,-0.0621053278175,0.136697424286,0.0126360595514,-0.207710308509,0.0238356249574,0.0149737835513,-0.178326493865,-0.275009350427,-0.690687954426,-0.441206157207,0.289384484291,0.306067168713,-0.165113836527,-0.0491468384862
2017/07/09/10:01:40.875643,408554,1499565703,679610143,,0.812549417102,-0.0321417103911,0.211206821944,0.776605568977,0.611831301822,-0.0615666214922,0.136951814385,0.00577734038361,-0.220524744831,0.0283247281834,0.00678425561218,-0.182164989043,-0.297222697878,-1.28275585175,-1.21779704094,-0.447433233261,0.446016073227,-0.317880600691,0.024484321475
2017/07/09/10:01:40.885508,408555,1499565703,689602671,,0.812649007199,-0.0342691379175,0.211617871594,0.777338864585,0.61087908038,-0.0608989152435,0.137340310478,-0.00112526727686,-0.22762749115,0.0252202272022,-0.00580802036378,-0.161024455312,-0.287789124049,-1.1680085659,-1.49376654625,-0.32362049818,0.47573107481,-0.294793099165,0.0192254334688
2017/07/09/10:01:40.895499,408556,1499565703,699612893,,0.812577715716,-0.0368096465437,0.212023716581,0.778612804491,0.609153953071,-0.0605015201364,0.1379606038,-0.0261770518659,-0.259395854436,0.0243250457826,-0.013563518361,-0.135204320152,-0.348986481612,-0.738803863525,-1.01247406006,-0.213614806533,0.405659973621,-0.171685069799,-0.0538438111544
2017/07/09/10:01:40.905661,408557,1499565703,709605158,,0.812052388985,-0.0384524007411,0.212159100924,0.779348627644,0.608217459982,-0.0607480018984,0.137829308304,-0.0314556056248,-0.227347412938,0.012296318706,-0.0109449967177,-0.0915487358525,-0.319983608678,-0.904732108116,-0.440445512533,-0.0528822988272,0.175539433956,-0.248912066221,-0.0453423857689
2017/07/09/10:01:40.915557,408558,1499565703,719606064,,0.812194439003,-0.0402325961885,0.212227630536,0.780014446592,0.607283364633,-0.0605644624641,0.138261795282,-0.0280332109352,-0.203171959626,0.0137410552194,0.00411709891831,-0.0825300996812,-0.298107736028,1.1143579483,1.22562026978,0.45571026206,-0.576894581318,0.470003098249,-0.403846412897
2017/07/09/10:01:40.925649,408559,1499565703,729604351,,0.811723260644,-0.042015701046,0.212058919028,0.780929875238,0.606164437065,-0.0604073992734,0.138072992694,-0.0474842349701,-0.223077847764,0.0142096735961,-0.0187873437752,-0.051648396162,-0.322397818819,1.85093784332,2.80593395233,0.22991515696,-1.24206066132,0.711976826191,-0.598227918148
2017/07/09/10:01:40.935615,408560,1499565703,739635817,,0.81134028758,-0.0442887140299,0.212360070982,0.781559082581,0.60527187232,-0.0605122711486,0.138382173904,-0.0382801102675,-0.198021128697,0.0182189294259,0.00259419385351,-0.0602561385028,-0.298686610733,1.35287106037,2.03243613243,0.371505260468,-1.00947785378,0.464293181896,-0.480941742659
2017/07/09/10:01:40.945547,408561,1499565703,749604096,,0.810667874251,-0.0471424730254,0.213163088093,0.782895393839,0.603385412397,-0.0607198058727,0.138974643685,-0.052485416873,-0.213024521837,0.0126899120492,-0.0194300732044,-0.0274310925075,-0.294258675079,1.04936122894,0.648428797722,0.268867522478,-0.546414732933,0.315462261438,-0.35862082243
2017/07/09/10:01:40.955493,408562,1499565703,759603730,,0.810165322109,-0.0488659122545,0.212757169695,0.783879342207,0.602204099849,-0.0605269503177,0.138635808041,-0.0583425421846,-0.265322914776,0.0208737132721,-0.0575184097769,-0.0615568352593,-0.34058225958,-0.443059980869,0.830151557922,-0.351692199707,-0.274484425783,-0.328518271446,-0.090022444725
2017/07/09/10:01:40.965606,408563,1499565703,769610763,,0.809723165579,-0.0509373218481,0.212940431059,0.784558656379,0.601212789056,-0.0608129162237,0.138970091013,-0.0355127589147,-0.230110654434,0.0232817392878,-0.0434381101415,-0.0977155337314,-0.305636185406,-1.21771299839,0.338929176331,-0.760087013245,-0.0247466415167,-0.64702296257,0.0512159913778
2017/07/09/10:01:40.976191,408564,1499565703,779606036,,0.80907605214,-0.0537144534492,0.212706311292,0.785843912223,0.599510898844,-0.0608015979155,0.139065428777,-0.0316650435775,-0.212876312884,0.00691426874598,0.00475372709609,-0.105255144948,-0.292123628487,-1.70758152008,-0.765639603138,-0.612947642803,0.247907206416,-0.790448725224,0.184290736914
2017/07/09/10:01:40.985986,408565,1499565703,789605296,,0.809371506004,-0.0546981717281,0.213017433784,0.786421355059,0.59883303502,-0.0598881734879,0.1391181338,-0.0541897842978,-0.221619706332,-0.00614254184646,0.0185652315774,-0.0679643863644,-0.340450612686,-1.76655495167,0.633794844151,-0.103000499308,-0.118971012533,-0.881073772907,0.163318842649
2017/07/09/10:01:40.995749,408566,1499565703,799611240,,0.808438898611,-0.0569120940639,0.212753392647,0.787202518225,0.597789306289,-0.0604218210455,0.138958066081,-0.0359530512106,-0.173271991206,-0.00131374685883,0.0472332389827,-0.0682488621591,-0.274866780683,-1.27263951302,0.259119093418,-0.516095101833,-0.217118859291,-0.652578532696,0.0669481754303
2017/07/09/10:01:41.005599,408567,1499565703,809605456,,0.807383662689,-0.0588581465749,0.212481726606,0.788498139803,0.596243385634,-0.0605247946544,0.138207300265,-0.0532308056515,-0.182223016125,-0.0159309526183,0.0526091248042,-0.0316340274917,-0.280291130707,-1.24159145355,0.48465180397,-0.495581150055,-0.437625050545,-0.634638786316,0.00515110045671
2017/07/09/10:01:41.015679,408568,1499565703,819610321,,0.80706709122,-0.0608584405276,0.212691100927,0.788972204939,0.595485345825,-0.0606987700775,0.138692905559,-0.0741478225349,-0.205722518482,-0.0245712530149,0.0431245263662,0.00174476553312,-0.309413275229,-1.60434865952,0.636680662632,-0.406088113785,-0.384824633598,-0.881297767162,0.0927268490195
2017/07/09/10:01:41.025586,408569,1499565703,829604584,,0.806083033929,-0.0626138247888,0.212131449365,0.789934422443,0.594320838582,-0.0610199519771,0.138068513888,-0.0634938064653,-0.169623071672,-0.00446700674945,0.0285361216275,-0.00420756726632,-0.256457628003,-2.3420214653,0.406728118658,-0.566147506237,-0.391058385372,-1.15142178535,0.194039344788
2017/07/09/10:01:41.035592,408570,1499565703,839610632,,0.805316178962,-0.0649980624108,0.21194030856,0.790796234323,0.593074749678,-0.0616348433686,0.138220125733,-0.081146228602,-0.211107152929,-0.0176118270083,-0.019727771012,0.0276856599382,-0.289504295575,-1.90346312523,0.172428011894,-0.503444433212,-0.242581725121,-1.05406165123,0.14653134346
2017/07/09/10:01:41.045554,408571,1499565703,849604777,,0.804957263795,-0.066027937187,0.211616229837,0.791366322833,0.592474503719,-0.0612134340396,0.137717903781,-0.0523598081299,-0.187235607771,-0.0224675282972,0.00125052857933,-0.0173942361594,-0.250615754116,-1.67496061325,0.227317601442,-1.13723814487,-0.269406855106,-0.941877841949,0.143476426601
2017/07/09/10:01:41.055620,408572,1499565703,859607689,,0.804596308641,-0.0678256369834,0.211309803546,0.792186955384,0.591395794762,-0.0610343144599,0.137715845551,-0.0593493472781,-0.178156686159,-0.0302116072697,0.0315428048814,-0.00505571069654,-0.262536509921,-2.22229933739,0.115210175514,-1.15359306335,-0.309721648693,-1.1488827467,0.170731574297
2017/07/09/10:01:41.065650,408573,1499565703,869606889,,0.804240364766,-0.0694299387562,0.211461701987,0.792765199572,0.590578807205,-0.061037042907,0.137893039055,-0.06034680803,-0.182691100908,-0.0302036650484,0.020014039143,-0.000280686022094,-0.260975526085,-3.09639620781,0.750851154327,-0.676250755787,-0.400598704815,-1.47806191444,0.306508898735
2017/07/09/10:01:41.075610,408574,1499565703,879603770,,0.803111979085,-0.0717744521737,0.210838398762,0.793787009187,0.589121160284,-0.0618390238568,0.137892630982,-0.0545928657144,-0.16499268244,-0.0292847750515,0.0219863776785,-0.00567818228022,-0.236842731545,-3.3917195797,0.55981194973,-0.893595814705,-0.516427099705,-1.5259822607,0.28566339612
2017/07/09/10:01:41.085701,408575,1499565703,889605357,,0.802267317479,-0.0729794018963,0.20999442798,0.794230192209,0.588693434531,-0.0621636755524,0.137018682542,-0.0598928572325,-0.18364057338,-0.0317094270235,0.0103298774973,-0.00954049205884,-0.258357310952,-3.55018353462,1.02567541599,-0.902226150036,-0.608626484871,-1.58665299416,0.267879456282
2017/07/09/10:01:41.095682,408576,1499565703,899616717,,0.802901812215,-0.0734184294175,0.209791628865,0.794357887939,0.588543150145,-0.0613875118271,0.137273739942,-0.0684515998776,-0.179528851047,-0.0388778823764,0.0353530357984,0.00831269723487,-0.262956074518,-3.61299920082,1.53914499283,-0.925201416016,-0.547466397285,-1.75085234642,0.377354830503
2017/07/09/10:01:41.105653,408577,1499565703,909602798,,0.801621315429,-0.0751528907504,0.208745595848,0.795259919909,0.587502598573,-0.0619291561925,0.136261278688,-0.0469715612619,-0.151229842718,-0.0332143295259,0.0392850907944,-0.018434067288,-0.209889654279,-3.43779325485,1.17040848732,-1.30513656139,-0.534868240356,-1.53681635857,0.320459485054
2017/07/09/10:01:41.115501,408578,1499565703,919614377,,0.801322703792,-0.077327363554,0.209464850989,0.796046324309,0.586240633894,-0.061990301836,0.137074327295,-0.0655918954628,-0.169326064347,-0.0401333187394,0.0292447829429,0.0154311557894,-0.244965391481,-3.20661735535,0.534749686718,-0.913117706776,-0.26551926136,-1.50872433186,0.359046667814
2017/07/09/10:01:41.125647,408579,1499565703,929606327,,0.800371540661,-0.0791411299863,0.209084842231,0.796744037152,0.585305355819,-0.0624806082009,0.13679456609,-0.0642027440133,-0.171681808518,-0.0397724557833,-0.00259417235254,0.0244007174538,-0.234858612871,-3.99396920204,0.686469972134,-0.87584900856,-0.329063236713,-1.75609469414,0.421240389347
2017/07/09/10:01:41.135443,408580,1499565703,939601877,,0.79980421535,-0.0805539222841,0.20841336112,0.797310975627,0.584581501203,-0.0626370912517,0.136514729591,-0.0674467330335,-0.161972722117,-0.0520213187377,0.0176101715654,0.0340329292679,-0.22105890599,-3.92576384544,0.863012909889,-1.08270847797,-0.410996556282,-1.76077628136,0.406341046095
2017/07/09/10:01:41.145801,408581,1499565703,949604342,,0.799448405097,-0.0816851399081,0.208225143089,0.797772811248,0.584001965744,-0.0624652280674,0.136375734363,-0.072113008595,-0.154106157731,-0.0531233476562,0.0222172323389,0.0510085599753,-0.210342814454,-3.31760120392,0.972806930542,-1.11057293415,-0.412701189518,-1.54467856884,0.316713571548
2017/07/09/10:01:41.155663,408582,1499565703,959603515,,0.798228483423,-0.084287938439,0.207764548792,0.798743029304,0.582680071861,-0.0630117980867,0.136099303068,-0.0662498669568,-0.117509616921,-0.0497308654866,0.0319944256334,0.0707700764729,-0.167352278458,-3.54859542847,0.149678140879,-0.865806281567,-0.281562209129,-1.5759704113,0.333421230316
2017/07/09/10:01:41.165843,408583,1499565703,969604039,,0.798279548987,-0.0842807195989,0.207331588694,0.799164213751,0.582221398015,-0.0627574296449,0.135706699089,-0.0751902882927,-0.176220837388,-0.0327289248651,-0.00394148911713,0.031459353736,-0.242206886334,-3.8771314621,1.27952265739,-1.1102129221,-0.481168329716,-1.86892080307,0.417135626078
2017/07/09/10:01:41.175767,408584,1499565703,979609135,,0.797240234847,-0.0861411060212,0.206706012002,0.799660864431,0.581508796492,-0.0636157554274,0.135436542934,-0.0559300733856,-0.123969117619,-0.0440468311735,0.0194337193012,0.0354275038156,-0.189683910903,-4.10032463074,1.15393280983,-1.12279164791,-0.524027764797,-1.95358216763,0.427365392447
2017/07/09/10:01:41.185476,408585,1499565703,989604651,,0.796942482488,-0.0875376023219,0.206308924497,0.800201437848,0.580817952535,-0.0634241623319,0.135297969354,-0.0660170605484,-0.14141104596,-0.0495023089783,0.0190168486903,0.0491322090853,-0.206853840941,-4.09076690674,1.27252054214,-1.72108507156,-0.656563937664,-2.0125541687,0.455026477575
2017/07/09/10:01:41.195823,408586,1499565703,999639360,,0.795684952626,-0.0886166839724,0.205779742743,0.800834836253,0.580093957674,-0.0639920954425,0.134385925735,-0.0647442130386,-0.111918875413,-0.0487155678432,0.0665919851347,0.0568159291448,-0.185360228255,-4.56120252609,1.32833194733,-1.61296486855,-0.67282563448,-2.20310616493,0.508582651615
2017/07/09/10:01:41.205648,408587,1499565704,9602561,,0.795256950446,-0.0895176965376,0.20537502042,0.801363397695,0.579429696397,-0.0639940836625,0.134099548934,-0.0724837752022,-0.129137377587,-0.048631711642,0.0460835785112,0.0594978353982,-0.198247873195,-3.93288302422,1.02991366386,-1.67317068577,-0.619129419327,-1.99151718616,0.452739983797
2017/07/09/10:01:41.215814,408588,1499565704,19618708,,0.794436474562,-0.0906655034831,0.204626105211,0.801839664617,0.578872103911,-0.0643945644342,0.133467522759,-0.0919832799507,-0.146317043779,-0.0541916141906,0.0378961664397,0.0882039381446,-0.231586752761,-3.54887199402,0.766230344772,-1.61332261562,-0.577751338482,-1.89577949047,0.40307033062
2017/07/09/10:01:41.225510,408589,1499565704,29602434,,0.794144527912,-0.0908722551968,0.204303392166,0.8022533677,0.578426415566,-0.0643410765689,0.13293848824,-0.0711975594522,-0.105467604225,-0.0554361691241,0.0439274530352,0.0855384029402,-0.162160671795,-3.93610548973,1.21659684181,-1.64569079876,-0.647783815861,-2.10253500938,0.458057522774
2017/07/09/10:01:41.235665,408590,1499565704,39620409,,0.792603409571,-0.0931307309503,0.204099509767,0.802897364906,0.577481971999,-0.0654402904864,0.132619613273,-0.089899663766,-0.112112461852,-0.0708722733534,0.0562680359042,0.127596244592,-0.191471566832,-3.71695590019,0.603421807289,-1.31826710701,-0.532775819302,-1.90660631657,0.401312828064
2017/07/09/10:01:41.245916,408591,1499565704,49612365,,0.791046197737,-0.0942795961569,0.202659914218,0.803518659212,0.576728164152,-0.0668577582817,0.131424613866,-0.0933670552801,-0.111597690738,-0.0506197727875,0.0343661534697,0.126333703154,-0.193486640016,-4.9239616394,1.12115645409,-2.02186179161,-0.627090513706,-2.31017494202,0.513304531574
2017/07/09/10:01:41.255683,408592,1499565704,59608387,,0.790517246539,-0.0949656197444,0.202057536418,0.803935888256,0.576275289765,-0.0668521958135,0.130861231444,-0.111968489413,-0.099916620035,-0.0728149611737,0.0348297202712,0.191338392851,-0.163808108155,-3.92493987083,0.953018844128,-2.03481292725,-0.523375689983,-1.87084889412,0.406854897738
2017/07/09/10:01:41.265963,408593,1499565704,69608222,,0.789555296816,-0.0963479183585,0.201519166818,0.804426451812,0.575589861577,-0.0675354820218,0.13051189043,-0.105211753977,-0.116296470624,-0.0733698793381,0.0254665112401,0.171121370389,-0.177258334837,-4.16285181046,0.673047661781,-1.55070126057,-0.375555276871,-1.89119052887,0.408178031445
2017/07/09/10:01:41.275632,408594,1499565704,79604712,,0.789225091844,-0.0954673940272,0.200940192616,0.804317244216,0.575964601317,-0.0676950253467,0.129444707229,-0.114577010051,-0.104962584652,-0.0809122920027,0.0576144975776,0.197476848355,-0.187919340066,-3.36090278625,2.04311132431,-1.19790434837,-0.606162667274,-1.55062496662,0.290171265602
2017/07/09/10:01:41.285587,408595,1499565704,89612462,,0.787979578639,-0.0969455410384,0.199753394862,0.804871000168,0.575274723488,-0.0685663625856,0.12860917357,-0.0933667431171,-0.0852247497802,-0.0579115029269,0.0468745285488,0.154512081791,-0.151221283527,-3.59172010422,1.28292798996,-1.57350826263,-0.462860673666,-1.48336863518,0.26516982913
2017/07/09/10:01:41.295801,408596,1499565704,99608446,,0.786644331291,-0.0982602904282,0.199455251491,0.805649121264,0.574204040275,-0.0694875312785,0.128026155668,-0.122745484762,-0.113581962558,-0.0676407376285,0.0549952478398,0.190962611675,-0.210114426996,-3.87025308609,1.28172588348,-1.2492711544,-0.463660627604,-1.55316543579,0.294217199087
2017/07/09/10:01:41.305903,408597,1499565704,109603059,,0.785810780066,-0.0992893609131,0.199160050336,0.806052022483,0.573676825749,-0.0700494191485,0.12754652299,-0.0939309896969,-0.0954765210767,-0.0451054607647,0.0524333060763,0.131925040236,-0.19610324209,-3.99330735207,1.5344786644,-0.853278577328,-0.473772138357,-1.56387996674,0.352058380842
2017/07/09/10:01:41.315495,408598,1499565704,119610454,,0.784485321896,-0.0997636672178,0.198274950012,0.80637949061,0.573380657256,-0.070918045056,0.126322483721,-0.105996248221,-0.0791664836337,-0.0643116559493,0.0663647505032,0.190779235488,-0.156505805048,-4.42604589462,1.27129471302,-1.71714794636,-0.481637120247,-1.67998242378,0.362958312035
2017/07/09/10:01:41.325536,408599,1499565704,129602642,,0.783466282058,-0.101154442324,0.198125166598,0.806997112232,0.572575554857,-0.0713995451213,0.125757702689,-0.13206549624,-0.0870201166686,-0.0733802739188,0.0647222718497,0.248705112012,-0.175282308016,-3.87074637413,1.00235009193,-1.5595304966,-0.432534754276,-1.51311600208,0.330687940121
2017/07/09/10:01:41.335658,408600,1499565704,139607826,,0.781720825179,-0.102358163579,0.197280180048,0.80756249941,0.571768931132,-0.0731417326399,0.124793372763,-0.111572546125,-0.0725976273969,-0.0563911319715,0.0614971800382,0.205308895917,-0.157846279976,-4.13966751099,0.917317509651,-1.22646069527,-0.485633015633,-1.65079092979,0.343055635691
2017/07/09/10:01:41.345585,408601,1499565704,149606030,,0.781281464283,-0.102573713911,0.197202881248,0.80775682532,0.571605737625,-0.0731842142739,0.12425724383,-0.126059857409,-0.0981183009118,-0.061439063856,0.0222851423617,0.241294624621,-0.183846026363,-3.82406592369,1.19299638271,-0.940357685089,-0.535123229027,-1.61136054993,0.35057091713
2017/07/09/10:01:41.355800,408602,1499565704,159601734,,0.779725955931,-0.103155906229,0.196043154011,0.808236717675,0.57104026217,-0.0745921182832,0.122891997596,-0.118236598089,-0.114258770851,-0.040615976855,-0.00502094321362,0.201742149337,-0.201741745179,-5.03527212143,2.07498621941,-1.6410946846,-0.764571964741,-2.14215636253,0.476914823055
2017/07/09/10:01:41.365621,408603,1499565704,169607443,,0.778812390571,-0.104452375744,0.195835378398,0.80857240136,0.57050575763,-0.0754371698916,0.122650257515,-0.108313905088,-0.0919162790599,-0.0592333736749,-0.000501026717004,0.21129559366,-0.165052121699,-5.48511981964,2.12161827087,-1.32294690609,-0.829904675484,-2.32626509666,0.535783529282
2017/07/09/10:01:41.375709,408604,1499565704,179605767,,0.777992661393,-0.105088364535,0.194842811584,0.808585164783,0.570568353435,-0.0761792114266,0.121813435621,-0.103443879367,-0.082832287822,-0.0656971614612,0.0177548284325,0.207468307549,-0.154889182744,-5.30231428146,1.75197052956,-1.83227133751,-0.710135102272,-2.21179151535,0.48697578907
2017/07/09/10:01:41.385870,408605,1499565704,189627657,,0.777047855948,-0.10643421721,0.194637752549,0.809301658641,0.569520438714,-0.0768378092801,0.121545243724,-0.0947556377413,-0.0974970527197,-0.0480391660978,0.000927978614908,0.167410779333,-0.149926992856,-4.5202627182,1.36730265617,-1.05538725853,-0.491756618023,-1.96132588387,0.447936743498
2017/07/09/10:01:41.395664,408606,1499565704,199603420,,0.776826911946,-0.106306160378,0.194515627649,0.809260817393,0.569621511502,-0.0769659466472,0.121262138045,-0.0773573174787,-0.0715517356917,-0.0365030665963,-0.0196507304912,0.157482598375,-0.101118770228,-4.50325393677,1.92119443417,-0.98625010252,-0.499381482601,-1.95260024071,0.462207764387
2017/07/09/10:01:41.405631,408607,1499565704,209602072,,0.775231557922,-0.107883211995,0.193967901454,0.809932454268,0.568690630964,-0.0782745157727,0.120305801849,-0.0822907292136,-0.0827610486478,-0.0410216002864,0.000490414624341,0.148369279345,-0.139795852913,-4.51705026627,1.3628153801,-1.25677061081,-0.517222285271,-1.88448894024,0.417304962873
2017/07/09/10:01:41.415792,408608,1499565704,219607722,,0.774708049571,-0.108756938733,0.193335617361,0.810097453161,0.568297058132,-0.0792364539203,0.120424891408,-0.093038889542,-0.088204401968,-0.0470015029716,-0.0198726051825,0.18416467362,-0.14540027806,-4.67152261734,1.43655431271,-1.37234556675,-0.571010231972,-1.96904706955,0.472395300865
2017/07/09/10:01:41.425690,408609,1499565704,229609549,,0.773330214845,-0.109661235826,0.193298242414,0.810477711587,0.567668181682,-0.080685532074,0.119868926083,-0.103750855025,-0.09835262025,-0.0371875882073,-0.024146276946,0.194821072348,-0.172574677496,-4.50523328781,1.09421062469,-1.13864886761,-0.468352794647,-1.85937345028,0.445029467344
2017/07/09/10:01:41.435639,408610,1499565704,239604881,,0.77348284306,-0.109980532588,0.193478298608,0.810563320662,0.567610620369,-0.0803615186894,0.119780270312,-0.110188749048,-0.110503335749,-0.0288118891063,-0.04605417709,0.199224079604,-0.179235074084,-4.05452632904,1.78248345852,-0.664469003677,-0.623911380768,-1.83112835884,0.41229942441
2017/07/09/10:01:41.445673,408611,1499565704,249603327,,0.771842670005,-0.111235643979,0.193079216362,0.810899042987,0.567074390161,-0.0818405263757,0.119044136138,-0.0898193119668,-0.0748396998387,-0.0244841863045,-0.040076133252,0.194289914079,-0.112803514124,-4.58605718613,1.46691071987,-0.888982772827,-0.452907145023,-1.99983549118,0.504836916924
2017/07/09/10:01:41.455649,408612,1499565704,259610838,,0.771071070244,-0.112649305276,0.192706309244,0.811604890436,0.565951420203,-0.0826917887721,0.118989746871,-0.0958259727712,-0.083195794071,-0.0387607524932,-0.0328879031118,0.195696610226,-0.134831349989,-3.09993124008,1.17798626423,-0.529231905937,-0.436321109533,-1.42202448845,0.270583808422
2017/07/09/10:01:41.465631,408613,1499565704,269604230,,0.769934883859,-0.113619766199,0.192373408803,0.811702128789,0.565710692728,-0.0839049418993,0.1186213597,-0.0896547916512,-0.100726088195,-0.0300111858178,-0.0521487474405,0.166936973864,-0.152038001171,-3.28017187119,1.05231058598,-0.717548370361,-0.416525840759,-1.43279027939,0.308324187994
2017/07/09/10:01:41.475714,408614,1499565704,279607107,,0.769894281863,-0.11373261964,0.192235111445,0.811628815466,0.565820721647,-0.0841542942631,0.118421415368,-0.0751982162347,-0.0856262115431,-0.0200135822698,-0.0680090424164,0.15645926211,-0.106881209293,-3.37166953087,1.48411786556,-0.759006142616,-0.463531821966,-1.50000476837,0.315644055605
2017/07/09/10:01:41.486278,408615,1499565704,289603069,,0.769161913949,-0.115163919487,0.192368598676,0.811854014013,0.565312173666,-0.0850459158552,0.118669281755,-0.0666725101778,-0.093029942144,-0.0192313095766,-0.0730312214211,0.12830391492,-0.11133443956,-3.1772441864,1.40117180347,-0.482371777296,-0.43390506506,-1.39919054508,0.283239662647
2017/07/09/10:01:41.495804,408616,1499565704,299603164,,0.768226881238,-0.11610741803,0.191965719655,0.812028729949,0.564925853981,-0.0863208871288,0.118392675814,-0.0721721152533,-0.0869237892942,-0.00940027464834,-0.0681101958788,0.143953848217,-0.0961210480155,-3.65550875664,1.01240837574,-0.574956476688,-0.287685155869,-1.54886269569,0.374548822641
2017/07/09/10:01:41.505617,408617,1499565704,309603530,,0.768479053731,-0.116459442468,0.192322878149,0.812144065296,0.564695956591,-0.0862297956689,0.118764119806,-0.0507538605064,-0.0691434023233,-0.0123455511813,-0.0618717558257,0.116128032167,-0.0705857224388,-3.28286480904,1.1683576107,-0.467662453651,-0.345050364733,-1.4603998661,0.323547035456
2017/07/09/10:01:41.515703,408618,1499565704,319606379,,0.767234239471,-0.117670935167,0.191629658738,0.812559320378,0.564038904613,-0.0873700966245,0.118211383399,-0.0424371874504,-0.0733932796457,-0.0129338514488,-0.0649413344371,0.0884586117883,-0.105877319139,-3.73942017555,0.381230533123,-0.758676826954,-0.276083350182,-1.55244791508,0.375040620565
2017/07/09/10:01:41.525751,408619,1499565704,329610293,,0.767054025009,-0.117986525545,0.191718642822,0.812707945056,0.563748122971,-0.0877491124939,0.118295998014,-0.0652623350052,-0.0981129837198,-0.00493849008977,-0.092561951775,0.123534518722,-0.127242886108,-3.48846411705,1.31411099434,-1.02718043327,-0.476159512997,-1.53434896469,0.337061554193
2017/07/09/10:01:41.535481,408620,1499565704,339602670,,0.766152313929,-0.11876763091,0.191011253499,0.812933993889,0.563325836289,-0.0890701921172,0.11776597397,-0.0731647798789,-0.0802139845349,-0.00142881751449,-0.0852462232513,0.150157203674,-0.117167933231,-3.38034844398,0.923229932785,-1.36654245853,-0.415099143982,-1.49875438213,0.349584758282
2017/07/09/10:01:41.545645,408621,1499565704,349605152,,0.765434782227,-0.119683166982,0.190930840273,0.812870678408,0.563250310353,-0.0900583431318,0.117812745087,-0.0522596419374,-0.0778041511578,-0.00895660421489,-0.0763329194267,0.118209112817,-0.0929061179949,-2.4606025219,0.756348967552,-1.51494216919,-0.377472579479,-1.19856703281,0.214201003313
2017/07/09/10:01:41.555789,408622,1499565704,359603615,,0.765281421996,-0.120244479769,0.191450871232,0.813162861131,0.562802468778,-0.090138507226,0.117875323669,-0.0670967713506,-0.0919111477851,-0.0138985054146,-0.0781330807472,0.142534338918,-0.10399138591,-2.19730472565,0.846170902252,-0.730683684349,-0.305814653635,-1.24374103546,0.253233492374
2017/07/09/10:01:41.565581,408623,1499565704,369604508,,0.764435346589,-0.121371612163,0.191392348293,0.813226128824,0.562468858849,-0.091599054949,0.117905298251,-0.0542950956863,-0.0798440024872,-0.00383706642416,-0.0966911640199,0.128961398417,-0.0811581809103,-2.44154500961,0.983233869076,-1.01401233673,-0.273815095425,-1.41130447388,0.317034184933
2017/07/09/10:01:41.575721,408624,1499565704,379605676,,0.764284374944,-0.121659896618,0.190780642348,0.813306837087,0.562280118636,-0.0921316170096,0.117833874928,-0.059035430616,-0.0857404866321,-0.010761610164,-0.104007707262,0.133195160612,-0.125855025422,-2.75691318512,1.24724733829,-1.21552550793,-0.433742463589,-1.55051755905,0.335004359484
2017/07/09/10:01:41.585433,408625,1499565704,389605653,,0.763493302401,-0.12294816144,0.191507100549,0.813439528542,0.561818419295,-0.0932217084864,0.118262040457,-0.0501173185728,-0.104475667767,0.0135479515734,-0.133171578066,0.0976681661249,-0.106052667953,-3.16568922997,0.590957164764,-0.590540647507,-0.322935700417,-1.58201444149,0.375321269035
2017/07/09/10:01:41.595578,408626,1499565704,399610031,,0.763294326146,-0.123775763411,0.191256163502,0.813643291577,0.561422931907,-0.0937170851432,0.118346920333,-0.0346890546719,-0.109297094589,0.0179151182071,-0.143493352327,0.055170473079,-0.0856509144724,-2.32689452171,1.80439937115,-1.09916734695,-0.569999039173,-1.3579274416,0.284992098808
2017/07/09/10:01:41.605530,408627,1499565704,409604600,,0.762968655575,-0.125150445969,0.191641710992,0.813711096388,0.561072762887,-0.0943878008155,0.119006509986,-0.0259130471613,-0.0647146826483,0.00224954903561,-0.122339131479,0.0894183926447,-0.0347596989404,-1.37964117527,0.257601112127,-0.984279870987,-0.173375934362,-0.829841256142,0.147686630487
2017/07/09/10:01:41.615597,408628,1499565704,419611701,,0.761948269912,-0.125773790944,0.19151514099,0.813818753645,0.560758557447,-0.0958003999604,0.118621919697,-0.0592959475857,-0.118968659315,0.0064877284078,-0.137312095315,0.098704130985,-0.134894661571,-1.25509786606,0.427822709084,-0.987803995609,-0.177969604731,-0.751783370972,0.118635237217
2017/07/09/10:01:41.625949,408629,1499565704,429604424,,0.762049965148,-0.126279176227,0.191299952395,0.813892626165,0.56054996698,-0.0960283076615,0.118916322344,-0.0423813100474,-0.100025509757,0.0118265063304,-0.140300697276,0.0828235236829,-0.109817196319,-1.37639510632,0.323111504316,-1.25039350986,-0.0894360393286,-0.784053266048,0.139665305614
2017/07/09/10:01:41.635714,408630,1499565704,439608168,,0.761831564055,-0.127442616132,0.191608744246,0.814214407511,0.55993761315,-0.0963735904001,0.119318477425,-0.0496391049437,-0.0758233272864,0.0126202514267,-0.114137800368,0.121307937299,-0.0826741700975,-2.31255149841,0.974480748177,-1.18867647648,-0.403698265553,-1.15249574184,0.254437983036
2017/07/09/10:01:41.645582,408631,1499565704,449602778,,0.760737345494,-0.128638274906,0.191557418278,0.814555567152,0.559325268702,-0.0974682717054,0.118972298558,-0.0512549232935,-0.0931919844015,0.0132702389541,-0.123044905862,0.107981228978,-0.0967901030652,-2.75878429413,0.755329012871,-0.887400150299,-0.320842117071,-1.30998003483,0.295349121094
2017/07/09/10:01:41.655664,408632,1499565704,459610215,,0.760191556123,-0.12948200137,0.19186724684,0.814786390856,0.558747100483,-0.0985280790958,0.119235198691,-0.066853262415,-0.110186113974,0.0138785215139,-0.126866383527,0.12095271464,-0.145104374888,-1.88223588467,1.07700800896,-0.143542349339,-0.298400133848,-1.02891790867,0.217344865203
2017/07/09/10:01:41.666027,408633,1499565704,469602596,,0.759777436381,-0.129544891356,0.19175960356,0.814738811938,0.558802249998,-0.0990411537364,0.118876253244,-0.0532659801468,-0.0773204625557,0.0146978638897,-0.101915100484,0.121143850477,-0.0863902725203,-3.26820993423,1.21886193752,-0.454439669847,-0.403326034546,-1.52614033222,0.362513422966
2017/07/09/10:01:41.675655,408634,1499565704,479609374,,0.759443433169,-0.130231950989,0.192036857607,0.814602855274,0.558762620699,-0.100018347967,0.119175718828,-0.0548423730221,-0.0761501950991,0.0143406291859,-0.10663352721,0.117321650755,-0.108320619788,-1.8955385685,1.3414914608,-0.391771435738,-0.380832701921,-1.07308757305,0.226760223508
2017/07/09/10:01:41.686107,408635,1499565704,489604608,,0.758808983291,-0.13129684524,0.191682919385,0.814918893251,0.558125223804,-0.101012084752,0.119163713898,-0.0485492221166,-0.0722070962043,-0.00305727031269,-0.09749125564,0.115512846052,-0.0926853964234,-1.83958160877,0.633841991425,-0.857290863991,-0.235575377941,-0.941348493099,0.196472495794
2017/07/09/10:01:41.695731,408636,1499565704,499610963,,0.758693805642,-0.132207116152,0.192364019777,0.815242452092,0.557452553201,-0.101363227611,0.119799379484,-0.0488164852003,-0.0750886431663,-0.00368072164585,-0.0746997029826,0.0982124661688,-0.105886447176,-0.555396318436,0.66421020031,-0.37307086587,-0.227073207498,-0.522772490978,0.0530366674066
2017/07/09/10:01:41.705631,408637,1499565704,509613605,,0.758128905123,-0.132451410155,0.192131042089,0.81569408616,0.556941726128,-0.101448411621,0.119026431017,-0.0354152273948,-0.0621932379915,0.00253114650153,-0.051078784593,0.0695036909057,-0.100498661606,-1.01649975777,0.929529428482,-0.286207377911,-0.347735255957,-0.636256456375,0.108898311853
2017/07/09/10:01:41.715670,408638,1499565704,519608811,,0.757647540145,-0.13303980112,0.191720860091,0.815848972503,0.556578630662,-0.102287135046,0.118945466324,-0.0288352436841,-0.0253166757565,-0.00143383457477,0.00243351049134,0.0711142608368,-0.0707338458418,-1.1617590189,0.982016563416,-0.788744866848,-0.405045807362,-0.725372970104,0.118655875325
2017/07/09/10:01:41.725954,408639,1499565704,529604112,,0.757926121662,-0.133298637441,0.192346860825,0.815877382982,0.556546024238,-0.102008987144,0.119141870828,-0.0347393848543,-0.0571165631535,-0.00159937431508,-0.0185221117501,0.05046853152,-0.109773915734,-0.744281828403,0.788599729538,-0.295820683241,-0.1918310076,-0.674783349037,0.117667339742
2017/07/09/10:01:41.735512,408640,1499565704,539627163,,0.757883486042,-0.132853367968,0.192154527962,0.815871784519,0.556633926712,-0.102061947411,0.118723467558,-0.0364314382493,-0.047457144057,-0.00336686432347,-0.00460261305512,0.0668386454942,-0.102771262023,-1.18326210976,0.869034826756,-0.404567122459,-0.157714515924,-0.850034892559,0.15945880115
2017/07/09/10:01:41.745780,408641,1499565704,549613229,,0.757460837403,-0.133243854833,0.192111659062,0.816233030617,0.556089953728,-0.102531029728,0.118384927402,-0.0437239444343,-0.0185704011051,-0.0147325240023,0.0263660932192,0.112901192922,-0.072577544125,-1.30847764015,0.670546412468,-0.287016749382,-0.160164669156,-0.919654369354,0.188421696424
2017/07/09/10:01:41.755597,408642,1499565704,559609476,,0.756852158903,-0.13391550132,0.192442244178,0.816593951148,0.555493357073,-0.103095120957,0.118206790127,-0.0276376638955,-0.0148523347049,0.00127741918495,0.0241149651187,0.0687860229129,-0.0704251081282,-1.59559857845,0.412586688995,-0.360567390919,-0.126061454415,-1.03359150887,0.224124580622
2017/07/09/10:01:41.765707,408643,1499565704,569609371,,0.756641637453,-0.134183792601,0.192119569075,0.816818160729,0.555319628794,-0.102831178916,0.117702807197,-0.0525645642527,-0.0284889915517,-0.0129614203886,0.0386871801279,0.106072256431,-0.114801070661,-1.39056503773,0.210598453879,-0.752013325691,-0.132109731436,-1.01009786129,0.233344435692
2017/07/09/10:01:41.775775,408644,1499565704,579607760,,0.755792328069,-0.134337289047,0.191565142342,0.816953010972,0.555051631743,-0.104000235187,0.117001773678,-0.0409674605906,-0.0281745489685,-0.00920410095069,0.0349768827721,0.0727022869166,-0.124701191441,-0.370497256517,0.682851314545,-1.01966309547,-0.263697713614,-0.627419292927,0.0976373851299
2017/07/09/10:01:41.785624,408645,1499565704,589603844,,0.756097021642,-0.133823431877,0.191254030201,0.816990151172,0.555124745488,-0.103753483811,0.116613997581,-0.0253693414266,-0.0229580394993,-0.00343209722003,0.0320357219766,0.0504437899348,-0.0933996497559,-0.137273862958,0.700028300285,-0.752963781357,-0.185484468937,-0.608261525631,0.0912759676576
2017/07/09/10:01:41.795501,408646,1499565704,599605664,,0.755213985001,-0.134623168139,0.191242916173,0.817617832213,0.554268911405,-0.104031968921,0.116036217362,-0.00871987948715,-0.0155539726163,0.00763100788903,0.0385330565648,0.00799662085716,-0.0744392377365,-0.299698024988,0.0355590730906,-0.979342579842,0.0139060467482,-0.520872592926,0.0683259367943
2017/07/09/10:01:41.805790,408647,1499565704,609604970,,0.75542508566,-0.134432393582,0.191065838422,0.817770156651,0.554191116696,-0.103589486126,0.115729838112,-0.0304504908871,-0.0419151628712,0.00215678883936,0.0226298165193,0.0393361439775,-0.112496161756,-0.36409330368,0.465378582478,-0.994365870953,-0.115127459168,-0.599514901638,0.0791589841247
2017/07/09/10:01:41.815649,408648,1499565704,619629211,,0.754929326343,-0.135632878566,0.191698519276,0.818192576641,0.553390990491,-0.104102048869,0.116112370546,-0.0125798579884,-0.0183160365774,-0.00265159252465,0.0280251032052,0.0314693148922,-0.053584342645,-0.253114402294,-0.0838571190834,-0.485348045826,-0.0147329121828,-0.511037647724,0.0425618365407
2017/07/09/10:01:41.825590,408649,1499565704,629601949,,0.754969038575,-0.135224702387,0.19206284234,0.817893554251,0.553786969326,-0.10450791328,0.115966471798,-0.0217503995879,-0.0320784998854,0.00535873833326,0.000769868059425,0.0280025895436,-0.0998419213313,0.185337215662,0.356333673,-0.0557916611433,0.0290231481194,-0.341521471739,-0.00432971864939
2017/07/09/10:01:41.835652,408650,1499565704,639609716,,0.754520487735,-0.135250817123,0.191826378474,0.818608538027,0.552914235917,-0.104381116905,0.115197619867,-0.0280172397041,-0.0281815244087,0.00803718789727,0.0107995194234,0.0487109329314,-0.104634434064,0.649663627148,0.326066076756,-0.214171916246,0.0875197947025,-0.13502638042,-0.0556461438537
2017/07/09/10:01:41.845813,408651,1499565704,649606810,,0.75454918946,-0.13572120588,0.191993255044,0.818811784169,0.552624088481,-0.104287640524,0.115230061057,-0.0374297627052,-0.0297704535992,-0.00707026151491,0.0399049926379,0.0626464860681,-0.125571142939,1.27610695362,-0.0555003732443,-0.053920276463,0.149735942483,0.0434893667698,-0.109198607504
2017/07/09/10:01:41.855476,408652,1499565704,659603684,,0.753839748334,-0.135747574849,0.191301425263,0.818874171069,0.552541296064,-0.105194685919,0.114355962482,-0.0258284541605,0.00796292456781,-0.00103741868629,0.0490425484813,0.086319240626,-0.0642591387459,1.12961864471,-0.0720379203558,-1.04404532909,0.0257472246885,0.00710135698318,-0.13294583559
2017/07/09/10:01:41.865676,408653,1499565704,669602084,,0.753723778683,-0.136124601241,0.191960989468,0.819429715585,0.551795948983,-0.104860617832,0.114282206532,-0.0274215349182,-0.018486870355,0.00878076016971,0.0242244217217,0.0576584108602,-0.0870523946346,0.83221334219,-0.268133163452,-0.311189413071,0.109830498695,-0.0624369233847,-0.107320412993
2017/07/09/10:01:41.875544,408654,1499565704,679607815,,0.753425111702,-0.135690168977,0.191700827849,0.819250069732,0.552123750096,-0.105199843018,0.113673571479,-0.0432988548086,-0.0316171103532,0.00657550247904,0.032790442731,0.0696102713592,-0.117631333506,1.34657895565,0.0788615643978,-0.668027102947,0.0658865123987,0.0730102732778,-0.138972654939
2017/07/09/10:01:41.885778,408655,1499565704,689603043,,0.753493540631,-0.136666084,0.192253229277,0.819371776645,0.551748819952,-0.105449258103,0.114383500927,-0.024645949158,-0.0289909344768,0.0056674639245,0.00983076545932,0.0386817060854,-0.103998189665,2.01661372185,-0.475385069847,-0.173303753138,0.300795912743,0.368649214506,-0.240776568651
2017/07/09/10:01:41.895666,408656,1499565704,699607400,,0.752891139678,-0.136806537073,0.191749879455,0.819960066562,0.551000330967,-0.105690343169,0.113550323111,-0.00614039258274,-0.00885440208307,0.0130389487175,0.0184399730847,0.0151090443488,-0.0748067962453,0.898514270782,-0.408202379942,-0.503035843372,0.208794161677,0.0538379102945,-0.131654039025
2017/07/09/10:01:41.905563,408657,1499565704,709604044,,0.753349661125,-0.136940764174,0.192473823792,0.820107223482,0.550804421226,-0.105245523038,0.113850829737,-0.0136185871296,-0.0231850884829,0.0040131346001,0.0105566780789,0.0344251050561,-0.0666391057643,1.95398211479,-0.894503116608,0.282330036163,0.425210118294,0.387010842562,-0.249327421188
2017/07/09/10:01:41.915781,408658,1499565704,719609666,,0.753007515159,-0.137225539039,0.192750227189,0.820237062286,0.55061621795,-0.1054309624,0.113654099575,-0.0210764687684,-0.0405919185847,0.0175547164773,0.0222651037533,0.00867398345422,-0.106780650944,1.2247210741,-0.739995181561,0.317526459694,0.456188976765,0.154919207096,-0.157252579927
2017/07/09/10:01:41.925525,408659,1499565704,729604173,,0.752996191304,-0.137117740292,0.192025580117,0.820469982504,0.550377780851,-0.105400288277,0.113155138576,-0.00924663914212,-0.0139698988219,0.0192780458178,0.0409578427541,-0.00709402883201,-0.0993354009029,2.1709728241,-0.529942214489,-0.565946340561,0.288530379534,0.530026614666,-0.290639489889
2017/07/09/10:01:41.935711,408660,1499565704,739609829,,0.752995889137,-0.136783786119,0.192571016395,0.82082530176,0.549926964849,-0.105237853271,0.112920996986,-0.00809207170798,-0.00353023812508,0.00515277240494,0.0282982235818,0.023319347446,-0.0726036927129,1.64518809319,-0.0811540931463,-0.0769933089614,0.183668285608,0.324908494949,-0.205437138677
2017/07/09/10:01:41.945607,408661,1499565704,749605853,,0.752446360818,-0.136969817799,0.192377719374,0.820796782837,0.54991080206,-0.105990697765,0.112502102422,-0.0150201063113,-0.00225110947913,0.00383870092197,0.0213654530058,0.0511086336837,-0.0577078581291,2.31257367134,-0.672526836395,-0.386105060577,0.410496503115,0.565802276134,-0.311337709427
2017/07/09/10:01:41.955837,408662,1499565704,759636873,,0.751622609495,-0.138200156858,0.191986006537,0.821121458858,0.549393629757,-0.106550225977,0.11213045407,-0.0378337291042,-0.0327688965355,0.00643382215073,0.0273303725073,0.0563268955211,-0.112543134233,2.68428850174,-1.313554883,-0.430891215801,0.492671310902,0.766569972038,-0.394216090441
2017/07/09/10:01:41.966054,408663,1499565704,769606495,,0.751966299032,-0.138183774288,0.193206357909,0.8215618697,0.548790821023,-0.105981582408,0.11239498746,-0.0324328308327,-0.0351803414797,0.0072251840942,0.0162303125979,0.0509849961854,-0.088590607363,2.6968767643,-1.34485077858,0.099881619215,0.605773448944,0.707166433334,-0.359257727861
2017/07/09/10:01:41.975540,408664,1499565704,779611308,,0.752028376279,-0.137636391502,0.192916474244,0.821421333377,0.549062991561,-0.106028434675,0.112048183436,-0.0175669583787,-0.0202662840099,0.00560104290334,0.0177952275546,0.0344223552891,-0.0738638309628,2.96102237701,-0.470426380634,-0.400905251503,0.32259106636,0.739893138409,-0.385132133961
2017/07/09/10:01:41.985779,408665,1499565704,789604207,,0.751845040295,-0.138460984597,0.193097552796,0.821870924918,0.54828787209,-0.10629085109,0.11229802789,0.00428471173016,0.00294647887819,0.0111109005926,0.0223202675997,-0.00590534417771,-0.0678745542052,2.512611866,-1.02351760864,-0.207826465368,0.475581437349,0.63777756691,-0.320015132427
2017/07/09/10:01:41.995529,408666,1499565704,799607401,,0.752422293726,-0.137781712249,0.193193158251,0.82181897542,0.548497665577,-0.105716198453,0.112196113483,0.0038577319994,-0.00248953379336,0.0161653051538,0.0166064215892,-0.0156760903387,-0.0549868951459,3.34706091881,-0.605437994003,0.195593476295,0.384951382875,0.860027313232,-0.44073009491
2017/07/09/10:01:42.005974,408667,1499565704,809605013,,0.752006411371,-0.137392412693,0.193123529815,0.822018211484,0.548362903213,-0.105779685501,0.111332135992,-0.00908541100481,-0.0137471157382,-0.00120352621031,0.0387385395504,0.00770046182495,-0.0523328323609,2.46648669243,-0.714647531509,-0.350816816092,0.423922777176,0.603316664696,-0.316458821297
2017/07/09/10:01:42.015567,408668,1499565704,819607598,,0.750873148915,-0.139585665023,0.192701134634,0.822515097148,0.547396850373,-0.106782118822,0.111459330098,-0.0122110478594,-0.0259273422459,0.0107758121689,0.0230607240324,-0.00440011581876,-0.0769609042094,1.90208268166,-1.36670911312,-0.135507583618,0.52263879776,0.362575829029,-0.240096151829
2017/07/09/10:01:42.025629,408669,1499565704,829606642,,0.75142252161,-0.139324320075,0.193403871874,0.822601771328,0.547273488768,-0.106298262363,0.111887147247,-0.0163738880455,-0.0417396121328,0.016646323296,-0.00720892975581,-0.00638876161228,-0.089194635777,2.49145174026,-0.887065172195,-0.216854810715,0.467930614948,0.491497755051,-0.252262294292
2017/07/09/10:01:42.035572,408670,1499565704,839610190,,0.751347568505,-0.139688865256,0.193281094445,0.822818536404,0.546967828123,-0.106281733842,0.11180359654,0.00212323166458,-0.0187795534584,0.0210077753818,-0.00619673863032,-0.0178779350488,-0.042143612666,1.53055715561,-0.850236356258,-0.51136636734,0.21983486414,0.185521930456,-0.19973051548
2017/07/09/10:01:42.045463,408671,1499565704,849605833,,0.751415913666,-0.139501568451,0.193604181846,0.822548767792,0.547271023773,-0.106582287655,0.112018601586,0.000561252560791,-0.0185626801493,0.0179599736261,-0.0255950021221,-0.00144640767107,-0.0176366003853,-0.137806609273,-0.341851770878,-0.699295401573,0.022546812892,-0.464400231838,0.0367583110929
2017/07/09/10:01:42.055554,408672,1499565704,859605943,,0.75185042704,-0.139748630646,0.194033601817,0.82261128147,0.547178196023,-0.106021289049,0.112544158726,-0.00130622569418,-0.0134599466177,0.00935582754037,0.00312370722745,-0.0150923321571,-0.0334881398051,0.517378509045,-0.489630669355,-0.257499426603,0.12276173383,-0.244511544704,-0.0298045352101
2017/07/09/10:01:42.065704,408673,1499565704,869606928,,0.75154165964,-0.139692416793,0.193466867411,0.822674438354,0.54716298658,-0.106197553216,0.111988902513,-0.0108108997594,-0.0247285705454,-0.00299579422595,-0.0128692504775,-0.00351699615312,-0.0563666390078,1.1160479784,-0.299760937691,-0.412854403257,0.114000946283,-0.0247106254101,-0.169355332851
2017/07/09/10:01:42.075832,408674,1499565704,879609724,,0.751341499003,-0.139532865312,0.19313243361,0.822772666417,0.547130145971,-0.106139172989,0.111481921064,0.00244738122625,-0.0141353630253,-0.00481208395675,0.00850468485327,-0.0180348180706,-0.00890623185842,1.62306523323,-0.58799290657,-0.26535436511,0.262252688408,0.192166417837,-0.161566480994
2017/07/09/10:01:42.086239,408675,1499565704,889608120,,0.751487110272,-0.139955986716,0.193937657906,0.82300148411,0.546703775789,-0.105869217845,0.112139410573,0.00898083673854,-0.0217845432421,0.0302360353409,-0.013628843618,-0.063091179484,-0.032992809293,0.48618671298,-0.00188915431499,-0.0560840293765,-0.033879481256,-0.189933031797,-0.0788567662239
2017/07/09/10:01:42.095625,408676,1499565704,899610324,,0.751748515549,-0.139791329322,0.193937161619,0.822830558061,0.546992696681,-0.105628726285,0.112211562155,0.0180099541943,0.00334881916895,0.0241672616133,-0.00643153250206,-0.0533166045017,0.0043161513918,0.932495832443,-0.0669414103031,-0.368918001652,-0.0074193328619,-0.0252009034157,-0.110556378961
2017/07/09/10:01:42.105686,408677,1499565704,909612404,,0.751997904428,-0.140008225445,0.194327025786,0.823033468791,0.546670533574,-0.105281573462,0.112618947172,0.00348258779746,-0.00649577201609,0.0146526903325,-0.00159673982586,-0.0258600632075,-0.0110084023736,2.15358018875,-0.620853304863,-0.210124760866,0.235680088401,0.386248528957,-0.228049457073
2017/07/09/10:01:42.115643,408678,1499565704,919611657,,0.751247946082,-0.140388344757,0.193440559338,0.823023476402,0.546749828805,-0.105758698391,0.111857407924,-0.00314286838456,-0.0107145625482,-0.00980831685725,0.00593723788532,-0.00362047190561,-0.0112297720149,2.47721195221,-0.991031289101,-0.532988905907,0.261876404285,0.554221272469,-0.34868311882
2017/07/09/10:01:42.125636,408679,1499565704,929603687,,0.751629459483,-0.139997915504,0.193943190539,0.822877382938,0.546884018789,-0.10576982988,0.112264979975,3.14736926017e-05,0.00513674972932,-0.00324297878231,0.00396108009198,0.00777058431538,0.00448980653974,2.17530226707,-0.764224886894,-0.358520686626,0.335639417171,0.429090946913,-0.237980484962
2017/07/09/10:01:42.136103,408680,1499565704,939604948,,0.751296224029,-0.140831723167,0.194237499592,0.823224177927,0.54631589952,-0.105851405538,0.112411613071,-0.0119594079907,-0.0101602795879,-0.000803026017316,-0.0017247810261,0.0159514735764,-0.0216749846117,1.81492877007,-0.905626177788,-0.297090888023,0.316811323166,0.292211949825,-0.211567759514
2017/07/09/10:01:42.145519,408681,1499565704,949602119,,0.750820851863,-0.140389356361,0.193504991818,0.823245736943,0.546405050087,-0.106110809279,0.111572729638,-0.00854708372137,-0.00798276970346,-0.0013248685847,0.00859496314853,0.00294087462509,-0.0229246268503,1.89625430107,-0.84082877636,-0.42227306962,0.339924871922,0.355666637421,-0.240928947926
2017/07/09/10:01:42.155530,408682,1499565704,959607366,,0.751267846271,-0.140183532059,0.193660557352,0.82299442439,0.546731870903,-0.105999368519,0.111931106646,-0.0097253642325,0.00392780060305,-0.00407840753988,0.0223123037256,0.0198564689102,-0.00366596818898,1.9577575922,-0.439207106829,-0.460049510002,0.203233808279,0.28484326601,-0.226386964321
2017/07/09/10:01:42.165505,408683,1499565704,969610853,,0.751023778487,-0.14018383655,0.193558996866,0.823337340771,0.546365863179,-0.105705882049,0.11147301622,-0.00169854339549,-0.00851160471234,-0.00682280669005,0.00798969967908,-0.00425195253141,-0.00302545851338,2.49053263664,-1.15006566048,-0.188958823681,0.420364201069,0.604154407978,-0.32405936718
2017/07/09/10:01:42.175600,408684,1499565704,979607605,,0.751299665615,-0.140350018876,0.193620923336,0.823212957627,0.546449270757,-0.105731171588,0.111957760954,-0.0208567819048,-0.0257423371266,-0.00626079244088,-0.00317900356267,0.0145108324515,-0.0457671762779,3.32051134109,-0.607091426849,-0.30947804451,0.299084067345,0.821842074394,-0.400883197784
