time,.header.seq,.header.stamp.secs,.header.stamp.nsecs,.header.frame_id,.ch0,.ch1,.ch2,.ch3,.ch4,.ch5,.ch6,.ch7
2017/07/09/10:02:30.016568,157793,1499565750,16237974,0,181,519,195,78,79,123,353,208
2017/07/09/10:02:30.038846,157794,1499565750,38366079,0,196,487,175,78,79,122,346,185
2017/07/09/10:02:30.061107,157795,1499565750,60832023,0,200,490,176,79,75,116,356,165
2017/07/09/10:02:30.076285,157796,1499565750,76033115,0,225,517,163,98,128,172,523,307
2017/07/09/10:02:30.099756,157797,1499565750,99615097,0,188,457,191,125,162,214,512,311
2017/07/09/10:02:30.121249,157798,1499565750,121006011,0,254,484,199,133,164,221,511,314
2017/07/09/10:02:30.136163,157799,1499565750,135860919,0,250,497,222,136,163,220,525,328
2017/07/09/10:02:30.158763,157800,1499565750,158488035,0,246,538,246,144,168,229,568,335
2017/07/09/10:02:30.181243,157801,1499565750,180880069,0,245,590,262,132,134,194,466,238
2017/07/09/10:02:30.195920,157802,1499565750,195780038,0,268,602,244,109,92,145,490,244
2017/07/09/10:02:30.218479,157803,1499565750,218266963,0,230,605,255,105,107,179,656,396
2017/07/09/10:02:30.240957,157804,1499565750,240712881,0,229,582,242,116,107,187,668,435
2017/07/09/10:02:30.256067,157805,1499565750,255820989,0,242,655,260,116,105,182,630,464
2017/07/09/10:02:30.280020,157806,1499565750,279907941,0,237,615,255,119,109,189,680,470
2017/07/09/10:02:30.301457,157807,1499565750,301249027,0,212,601,271,129,116,192,657,488
2017/07/09/10:02:30.316701,157808,1499565750,316381931,0,195,570,263,133,111,185,555,396
2017/07/09/10:02:30.338467,157809,1499565750,338198900,0,191,571,261,132,118,185,602,384
2017/07/09/10:02:30.361212,157810,1499565750,360857009,0,176,507,244,138,117,183,607,354
2017/07/09/10:02:30.376435,157811,1499565750,376094102,0,152,503,243,143,113,172,595,345
2017/07/09/10:02:30.398690,157812,1499565750,398507118,0,155,489,235,154,114,193,724,423
2017/07/09/10:02:30.420959,157813,1499565750,420783996,0,162,545,239,152,113,199,798,454
2017/07/09/10:02:30.443635,157814,1499565750,443280935,0,178,614,266,157,118,203,784,463
2017/07/09/10:02:30.459009,157815,1499565750,458601951,0,179,573,246,153,120,203,793,488
2017/07/09/10:02:30.481810,157816,1499565750,481323957,0,187,538,239,163,142,259,853,505
2017/07/09/10:02:30.504026,157817,1499565750,503755092,0,206,593,254,151,137,243,738,421
2017/07/09/10:02:30.518542,157818,1499565750,518309116,0,248,577,252,149,131,225,697,425
2017/07/09/10:02:30.541054,157819,1499565750,540759086,0,249,490,228,144,142,249,740,421
2017/07/09/10:02:30.563611,157820,1499565750,563509941,0,246,473,220,141,160,271,747,432
2017/07/09/10:02:30.578607,157821,1499565750,578418016,0,252,530,225,123,153,249,735,493
2017/07/09/10:02:30.600992,157822,1499565750,600847959,0,264,474,193,114,157,252,753,501
2017/07/09/10:02:30.623614,157823,1499565750,623281955,0,255,446,191,104,157,250,685,457
2017/07/09/10:02:30.638316,157824,1499565750,638147115,0,268,454,192,97,142,224,597,446
2017/07/09/10:02:30.669626,157825,1499565750,669285058,0,271,479,198,94,138,230,603,416
2017/07/09/10:02:30.700109,157826,1499565750,699769020,0,279,574,228,117,140,193,558,373
2017/07/09/10:02:30.701492,157827,1499565750,701330900,0,286,585,256,130,137,187,564,400
2017/07/09/10:02:30.720790,157828,1499565750,720671892,0,274,587,247,128,134,181,555,414
2017/07/09/10:02:30.744004,157829,1499565750,743575096,0,267,601,258,131,138,174,554,405
2017/07/09/10:02:30.758538,157830,1499565750,758296012,0,282,631,263,142,137,130,522,437
2017/07/09/10:02:30.781474,157831,1499565750,781280040,0,283,596,247,133,151,122,391,393
2017/07/09/10:02:30.803462,157832,1499565750,803318023,0,250,618,241,121,150,114,337,361
2017/07/09/10:02:30.818390,157833,1499565750,818263053,0,225,605,239,132,157,118,330,370
2017/07/09/10:02:30.841625,157834,1499565750,841100931,0,206,574,212,128,157,162,456,405
2017/07/09/10:02:30.863907,157835,1499565750,863506078,0,263,567,204,113,140,156,478,360
2017/07/09/10:02:30.878985,157836,1499565750,878511905,0,240,515,195,100,107,158,496,401
2017/07/09/10:02:30.901424,157837,1499565750,901138067,0,327,480,174,156,162,165,520,464
2017/07/09/10:02:30.923637,157838,1499565750,923234939,0,343,480,170,158,163,167,569,505
2017/07/09/10:02:30.938831,157839,1499565750,938587903,0,357,614,302,163,162,136,465,492
2017/07/09/10:02:30.962102,157840,1499565750,961762905,0,332,612,317,166,167,132,439,505
2017/07/09/10:02:30.983833,157841,1499565750,983617067,0,360,558,306,161,165,130,430,501
2017/07/09/10:02:31.000173,157842,1499565750,999958038,0,297,551,316,121,127,142,434,475
2017/07/09/10:02:31.021945,157843,1499565751,21027088,0,302,588,319,113,115,139,416,426
2017/07/09/10:02:31.043495,157844,1499565751,43240070,0,320,467,211,115,109,121,424,396
2017/07/09/10:02:31.059075,157845,1499565751,58578968,0,331,440,197,128,113,120,419,414
2017/07/09/10:02:31.090515,157846,1499565751,89344024,0,328,473,206,134,122,142,466,439
2017/07/09/10:02:31.111830,157847,1499565751,111479997,0,315,467,177,132,116,130,451,427
2017/07/09/10:02:31.118249,157848,1499565751,118100881,0,324,434,179,130,122,129,424,436
2017/07/09/10:02:31.141284,157849,1499565751,140933990,0,312,433,168,130,128,130,440,479
2017/07/09/10:02:31.163667,157850,1499565751,163444995,0,270,425,148,123,125,133,437,447
2017/07/09/10:02:31.178672,157851,1499565751,178392887,0,254,506,174,117,112,111,396,417
2017/07/09/10:02:31.201075,157852,1499565751,200927019,0,253,498,185,113,109,140,426,450
2017/07/09/10:02:31.223924,157853,1499565751,223685026,0,249,515,186,116,113,140,445,470
2017/07/09/10:02:31.238835,157854,1499565751,238468885,0,245,547,218,111,109,170,445,444
2017/07/09/10:02:31.261369,157855,1499565751,261065006,0,257,529,219,112,130,174,464,481
2017/07/09/10:02:31.283609,157856,1499565751,283404111,0,257,436,192,117,136,176,452,462
2017/07/09/10:02:31.298798,157857,1499565751,298439025,0,282,450,197,114,129,153,466,432
2017/07/09/10:02:31.320896,157858,1499565751,320637941,0,266,431,207,113,128,155,423,398
2017/07/09/10:02:31.352022,157859,1499565751,351530075,0,259,357,170,106,123,133,442,426
2017/07/09/10:02:31.358881,157860,1499565751,358500003,0,253,353,172,94,91,126,440,392
2017/07/09/10:02:31.388817,157861,1499565751,388504981,0,255,329,174,104,90,124,448,385
2017/07/09/10:02:31.403359,157862,1499565751,403186082,0,241,354,177,105,99,123,401,349
2017/07/09/10:02:31.426289,157863,1499565751,426095008,0,233,450,172,102,91,116,384,355
2017/07/09/10:02:31.441053,157864,1499565751,440820932,0,214,455,177,100,86,102,338,357
2017/07/09/10:02:31.463775,157865,1499565751,463552951,0,245,462,181,108,96,112,334,381
2017/07/09/10:02:31.486369,157866,1499565751,486110925,0,247,476,204,120,104,128,365,425
2017/07/09/10:02:31.502320,157867,1499565751,502230882,0,296,427,216,118,91,123,327,429
2017/07/09/10:02:31.523682,157868,1499565751,523427963,0,309,365,216,123,97,124,332,423
2017/07/09/10:02:31.546462,157869,1499565751,546026945,0,316,384,217,128,119,127,334,394
2017/07/09/10:02:31.561312,157870,1499565751,561101913,0,358,518,255,135,124,140,342,435
2017/07/09/10:02:31.583360,157871,1499565751,583156108,0,350,530,249,114,113,127,354,405
2017/07/09/10:02:31.605932,157872,1499565751,605710983,0,311,526,221,116,123,130,386,404
2017/07/09/10:02:31.621561,157873,1499565751,621103048,0,291,525,227,112,122,128,403,403
2017/07/09/10:02:31.643488,157874,1499565751,643280982,0,293,558,259,103,108,160,468,388
2017/07/09/10:02:31.666377,157875,1499565751,665817022,0,205,440,219,88,99,161,450,314
2017/07/09/10:02:31.681370,157876,1499565751,680804967,0,257,447,218,118,126,166,410,322
2017/07/09/10:02:31.705343,157877,1499565751,705130100,0,256,477,232,117,121,167,396,319
2017/07/09/10:02:31.726063,157878,1499565751,725785017,0,288,462,225,118,121,180,455,332
2017/07/09/10:02:31.741097,157879,1499565751,740870952,0,279,389,179,121,119,153,373,338
2017/07/09/10:02:31.763714,157880,1499565751,763506889,0,276,379,178,121,116,131,406,332
2017/07/09/10:02:31.786230,157881,1499565751,786010026,0,221,347,203,104,90,121,394,285
2017/07/09/10:02:31.800912,157882,1499565751,800740003,0,212,340,222,109,86,117,422,306
2017/07/09/10:02:31.823825,157883,1499565751,823607921,0,169,289,211,102,81,98,343,284
2017/07/09/10:02:31.847896,157884,1499565751,845787048,0,189,327,243,100,72,90,332,269
2017/07/09/10:02:31.861223,157885,1499565751,860873937,0,190,364,260,93,66,84,304,270
2017/07/09/10:02:31.883373,157886,1499565751,883088111,0,182,347,243,86,59,84,312,275
2017/07/09/10:02:31.906237,157887,1499565751,905881881,0,163,335,219,82,61,105,266,247
2017/07/09/10:02:31.921225,157888,1499565751,921030044,0,188,415,235,93,66,98,267,244
2017/07/09/10:02:31.945354,157889,1499565751,945265054,0,167,406,202,95,72,108,309,252
2017/07/09/10:02:31.965984,157890,1499565751,965744972,0,169,373,177,97,76,118,337,262
2017/07/09/10:02:31.981152,157891,1499565751,980695009,0,180,373,161,96,75,134,357,300
2017/07/09/10:02:32.003760,157892,1499565752,3388881,0,199,363,147,90,73,126,348,311
2017/07/09/10:02:32.026423,157893,1499565752,26215076,0,183,331,146,80,63,126,349,321
2017/07/09/10:02:32.041461,157894,1499565752,41275978,0,193,372,160,76,58,116,344,331
2017/07/09/10:02:32.063473,157895,1499565752,63312053,0,196,395,157,70,51,106,310,319
2017/07/09/10:02:32.094641,157896,1499565752,94208002,0,211,402,168,73,59,88,341,299
2017/07/09/10:02:32.101104,157897,1499565752,100840091,0,192,400,189,81,59,82,331,289
2017/07/09/10:02:32.123750,157898,1499565752,123441934,0,221,351,186,89,67,96,353,288
2017/07/09/10:02:32.146104,157899,1499565752,145868062,0,202,274,176,89,68,98,350,265
2017/07/09/10:02:32.168298,157900,1499565752,168183088,0,192,222,169,93,73,106,340,273
2017/07/09/10:02:32.183596,157901,1499565752,183322906,0,163,198,150,82,63,108,286,260
2017/07/09/10:02:32.206074,157902,1499565752,205881118,0,161,262,154,80,63,102,319,252
2017/07/09/10:02:32.221242,157903,1499565752,221102952,0,116,252,129,68,55,88,291,219
2017/07/09/10:02:32.243328,157904,1499565752,243160009,0,120,261,125,80,67,88,268,209
2017/07/09/10:02:32.266147,157905,1499565752,265975952,0,150,269,151,80,67,93,339,218
2017/07/09/10:02:32.281613,157906,1499565752,281184911,0,153,311,171,83,69,91,334,226
2017/07/09/10:02:32.303374,157907,1499565752,303191900,0,150,267,149,76,67,86,325,213
2017/07/09/10:02:32.334059,157908,1499565752,333868980,0,134,266,148,77,69,102,349,247
2017/07/09/10:02:32.348558,157909,1499565752,348325014,0,151,277,153,66,58,108,345,251
2017/07/09/10:02:32.363683,157910,1499565752,363441944,0,115,290,139,63,58,107,304,277
2017/07/09/10:02:32.386323,157911,1499565752,386055946,0,138,255,115,60,57,110,292,300
2017/07/09/10:02:32.409147,157912,1499565752,408739089,0,148,246,110,73,64,113,272,317
2017/07/09/10:02:32.425017,157913,1499565752,424786090,0,154,269,117,76,63,99,250,301
2017/07/09/10:02:32.446191,157914,1499565752,445924997,0,153,278,123,77,67,107,294,342
2017/07/09/10:02:32.468544,157915,1499565752,468353986,0,161,265,114,75,63,102,262,303
2017/07/09/10:02:32.483440,157916,1499565752,483254909,0,139,261,112,79,64,99,291,283
2017/07/09/10:02:32.506267,157917,1499565752,506025075,0,135,262,108,69,56,95,301,277
2017/07/09/10:02:32.528555,157918,1499565752,528374910,0,138,282,112,70,58,111,379,317
2017/07/09/10:02:32.543540,157919,1499565752,543205976,0,132,304,112,71,60,108,374,283
2017/07/09/10:02:32.566018,157920,1499565752,565906047,0,144,312,111,70,60,114,390,290
2017/07/09/10:02:32.588713,157921,1499565752,588376998,0,156,344,152,68,56,109,382,286
2017/07/09/10:02:32.603845,157922,1499565752,603539943,0,179,352,158,67,57,116,397,298
2017/07/09/10:02:32.625890,157923,1499565752,625797033,0,176,314,150,73,59,101,318,281
2017/07/09/10:02:32.648987,157924,1499565752,648478984,0,170,276,150,74,52,88,348,267
2017/07/09/10:02:32.663610,157925,1499565752,663381099,0,158,295,155,76,52,77,355,261
2017/07/09/10:02:32.686210,157926,1499565752,685987949,0,165,255,124,75,54,79,354,257
2017/07/09/10:02:32.709272,157927,1499565752,709002017,0,152,223,119,79,56,78,335,247
2017/07/09/10:02:32.723456,157928,1499565752,723242044,0,146,243,129,76,52,92,337,227
2017/07/09/10:02:32.746517,157929,1499565752,746237993,0,148,257,128,68,50,91,289,227
2017/07/09/10:02:32.769112,157930,1499565752,768723011,0,156,256,119,65,49,89,270,220
2017/07/09/10:02:32.783590,157931,1499565752,783361911,0,146,240,114,61,61,105,323,228
2017/07/09/10:02:32.814191,157932,1499565752,813956022,0,125,245,110,58,61,100,313,206
2017/07/09/10:02:32.828579,157933,1499565752,828299045,0,129,245,120,61,61,87,316,187
2017/07/09/10:02:32.843949,157934,1499565752,843537092,0,144,279,114,67,64,84,290,174
2017/07/09/10:02:32.866319,157935,1499565752,866058111,0,157,300,135,78,68,80,299,171
2017/07/09/10:02:32.888555,157936,1499565752,888284921,0,171,325,139,83,62,81,271,140
