time,.header.seq,.header.stamp.secs,.header.stamp.nsecs,.header.frame_id,.pose.position.x,.pose.position.y,.pose.position.z,.pose.orientation.x,.pose.orientation.y,.pose.orientation.z,.pose.orientation.w,.twist.linear.x,.twist.linear.y,.twist.linear.z,.twist.angular.x,.twist.angular.y,.twist.angular.z,.wrench.force.x,.wrench.force.y,.wrench.force.z,.wrench.torque.x,.wrench.torque.y,.wrench.torque.z
2017/07/09/10:10:39.603969,462427,1499566242,409401893,,0.780185079714,0.398097912606,0.163388631794,0.622954414154,0.779861630171,0.0538032794489,0.0291349067875,0.00176683398781,0.00885283432543,0.00196996082276,0.00667247298041,-0.00565631730003,0.0110036299062,3.77622127533,1.46962916851,-0.874592542648,-0.543681263924,1.47260332108,-0.10039909184
2017/07/09/10:10:39.614349,462428,1499566242,419398498,,0.779935195886,0.3979805868,0.163012408252,0.623079900342,0.779799662178,0.0533647087987,0.0289159559898,0.00953422647836,-0.0100079515642,0.00692220063775,0.000227420809731,-0.0191507487399,-0.00577716241395,3.38537597656,1.46450424194,-0.870046496391,-0.483424335718,1.3483325243,-0.0688109397888
2017/07/09/10:10:39.624217,462429,1499566242,429392004,,0.780223334157,0.397677614987,0.162704177014,0.622789283901,0.780014897271,0.0533643832269,0.0293685290071,0.00909359378328,-0.00548082218266,0.00743027159524,-0.0108817228043,-0.0229906021747,0.00712949061642,3.56455636024,1.68183994293,-0.956751465797,-0.590801596642,1.39044129848,-0.1107634902
2017/07/09/10:10:39.634080,462430,1499566242,439401648,,0.780398241467,0.397334674676,0.163519444494,0.623453354721,0.779460360482,0.053641647743,0.0294963481226,0.00593660580865,-0.0215993456683,-0.00120770068474,-0.00175890450293,0.00146251956098,-0.0200297802608,3.08736348152,1.76308083534,-0.971987128258,-0.688934266567,1.20020782948,-0.175177708268
2017/07/09/10:10:39.644035,462431,1499566242,449392725,,0.780812438498,0.396742499519,0.16340358519,0.62346092696,0.779445151854,0.0534458072281,0.030087763228,0.00578361055133,-0.0247046559908,-0.00467716675289,0.00248019833499,0.00400176804008,-0.0406298823903,3.10008883476,1.77305090427,-1.08955597878,-0.629159808159,1.23113071918,-0.14229747653
2017/07/09/10:10:39.654210,462432,1499566242,459398607,,0.780788270078,0.396127624701,0.163425772389,0.623646325439,0.779308095291,0.0533572728243,0.0299525427309,0.0120943896674,-0.0304423038377,0.00855680727398,-0.028932306441,-0.0218778831726,-0.0334181385498,2.37503123283,1.73431444168,-0.884226799011,-0.59802210331,0.981835782528,-0.140704035759
2017/07/09/10:10:39.663931,462433,1499566242,469398362,,0.781027217221,0.39647080353,0.163499824797,0.623363535098,0.779500629657,0.05376350071,0.0301024494993,0.0127938147107,-0.0332806208867,-0.00565561768115,-0.00808011611227,-0.0111956370093,-0.0554898271599,1.49307477474,1.83293569088,-0.704457879066,-0.657001435757,0.659259498119,-0.141585215926
2017/07/09/10:10:39.674086,462434,1499566242,479401431,,0.780983411121,0.39687142104,0.163748577045,0.623491763383,0.779381059484,0.0541755503466,0.0298025981199,0.0151243504553,-0.0185932947967,0.00231678581797,0.0193421014805,-0.0259081460508,-0.0507777847256,0.648758530617,1.56522071362,-0.195692926645,-0.596739709377,0.382787257433,-0.191841989756
2017/07/09/10:10:39.684301,462435,1499566242,489393893,,0.781388244862,0.395611912171,0.163651779576,0.624051041465,0.778931290038,0.0538557886005,0.0304285569953,0.01682697702,-0.0269337900748,0.00839259839859,-0.00549415670097,-0.0306889429487,-0.022391223291,0.128342941403,1.67138564587,0.0293550342321,-0.58399862051,0.216170281172,-0.165023833513
2017/07/09/10:10:39.694089,462436,1499566242,499401705,,0.781092978712,0.394825524637,0.163165072002,0.624517344213,0.778612293517,0.0532969111929,0.0300070394879,0.00595893913318,-0.0520843540127,0.000208510430085,-0.0278413373202,-0.00241908426708,-0.0604640231314,-0.089156344533,1.65114414692,-0.0181260593235,-0.57672137022,0.112230062485,-0.169837236404
2017/07/09/10:10:39.704138,462437,1499566242,509395935,,0.780894590584,0.395096282711,0.163221438657,0.624398216867,0.778710381711,0.0533662959373,0.0298168852649,0.0192891718931,-0.0564660179311,3.37205736868e-05,-0.0131280754257,-0.0191658128503,-0.0788580370314,0.242753535509,1.58983194828,0.0180169418454,-0.528348088264,0.272005796432,-0.156576007605
2017/07/09/10:10:39.714240,462438,1499566242,519408593,,0.781460310159,0.394309428765,0.163525261692,0.624648541288,0.778482297761,0.0534527791213,0.0303695957017,0.0079582066616,-0.063727623399,-0.00266864491403,-0.0434815800305,0.00656606713131,-0.052426790196,0.0946932733059,1.40758979321,-0.0213832370937,-0.350318580866,0.210361540318,-0.0787057653069
2017/07/09/10:10:39.724207,462439,1499566242,529402738,,0.78194595697,0.39318094095,0.163528822264,0.625248875169,0.777972386517,0.0537511649274,0.0305552317148,0.0144746040245,-0.0548393212294,0.00496333780435,-0.0223734561773,-0.0135695028513,-0.0571679715626,-0.224009603262,1.41885364056,0.0183595716953,-0.339291632175,0.106893010437,-0.112174391747
2017/07/09/10:10:39.734070,462440,1499566242,539402130,,0.781428753319,0.392839421089,0.162958795628,0.625576541135,0.777769054668,0.0529991286773,0.0303377840493,0.00288034580406,-0.064583616876,-0.00399673031781,-0.00584406295779,0.0166711951499,-0.0873807816552,-0.399634569883,1.46627676487,0.0200075209141,-0.301804125309,0.0498740300536,-0.0883114412427
2017/07/09/10:10:39.743784,462441,1499566242,549399841,,0.782182563816,0.391484773507,0.16360838779,0.626056989885,0.77734306928,0.0532707380781,0.0308646484307,0.0205350302592,-0.0805631619322,0.00577456083944,-0.0296220943504,-0.0199122691239,-0.0958742051779,0.181531652808,1.45298576355,0.148597300053,-0.322064518929,0.30782532692,-0.097625605762
2017/07/09/10:10:39.753992,462442,1499566242,559396396,,0.781956884632,0.391211119051,0.163113204306,0.62595302266,0.777453029689,0.0529074189023,0.0308286405119,0.0225652059211,-0.0556798031257,0.00739077202599,0.000197993716479,-0.0282480978541,-0.0778749889292,0.0825032293797,1.55997467041,0.205105289817,-0.371677815914,0.301499634981,-0.121379345655
2017/07/09/10:10:39.763980,462443,1499566242,569398474,,0.782009188153,0.390354820361,0.163307110674,0.626459377595,0.777048041105,0.0529449625108,0.0306891020281,0.0125626497479,-0.0749748117582,-0.00432590026379,-0.0153872653227,-0.00598835331899,-0.0938434325653,0.27070119977,1.4510102272,0.210818678141,-0.335232198238,0.369391083717,-0.0960270091891
2017/07/09/10:10:39.774111,462444,1499566242,579431895,,0.782581619724,0.390026107407,0.163534052799,0.626599887402,0.776887033189,0.0533930597336,0.0311175182426,0.0335701491378,-0.0805158751219,0.00548661822663,0.00699155338408,-0.0352418301118,-0.111890125405,-0.457649677992,1.56299161911,0.439670652151,-0.4849627316,0.0719054937363,-0.176292836666
2017/07/09/10:10:39.784160,462445,1499566242,589427054,,0.783028878688,0.389373086736,0.163747156901,0.627137656425,0.776418204522,0.0538728126764,0.0311584921939,0.0283162488008,-0.0976960472785,0.00925143399565,0.0105998638541,-0.0193722290459,-0.145025120635,-0.783281087875,1.17618095875,0.39952018857,-0.303434610367,-0.0577206388116,-0.115956246853
2017/07/09/10:10:39.794079,462446,1499566242,599400306,,0.783446323329,0.387590164759,0.164056774082,0.628333202883,0.775443483806,0.0538651158501,0.0313582345104,0.0291314267896,-0.106168733482,0.00353095541234,0.00286702801802,-0.0154602449417,-0.145841406294,-1.05253374577,1.23428142071,0.147646248341,-0.379056513309,-0.209072798491,-0.140650555491
2017/07/09/10:10:39.803926,462447,1499566242,609394725,,0.783169518592,0.387315097604,0.163411983444,0.627943238381,0.775803828841,0.0532813404568,0.0312539163314,0.0420415977586,-0.113562386098,0.0201706040623,-0.00938415426421,-0.050877404304,-0.151916401264,-0.976675629616,1.37052023411,0.189099758863,-0.630975842476,-0.179879516363,-0.239552885294
2017/07/09/10:10:39.813971,462448,1499566242,619396428,,0.784091270894,0.385568811013,0.164322487044,0.628919171344,0.774941112924,0.0537894297614,0.0321503446551,0.0272874581832,-0.113208535397,0.00500347141098,-0.00653848073182,-0.0215334055772,-0.171112644612,-1.13715624809,1.36404490471,0.00265149399638,-0.679889380932,-0.233567118645,-0.273380637169
2017/07/09/10:10:39.824182,462449,1499566242,629394775,,0.784129655117,0.384937210661,0.164214187761,0.629564235959,0.774425332442,0.0538076971476,0.0319219203884,0.0396818641606,-0.129759423206,0.0126233960078,0.00443209736133,-0.0398355891905,-0.213177716164,-1.00211822987,1.17213511467,-0.0977082177997,-0.564791917801,-0.190600454807,-0.223773747683
2017/07/09/10:10:39.834075,462450,1499566242,639400999,,0.784520487321,0.382733484259,0.164517872472,0.630585315144,0.773585671118,0.053553852869,0.0325477281567,0.0326917775938,-0.141437683928,0.0107869811703,-0.0358120130029,-0.0336809944477,-0.189934447983,-0.9024772048,1.18432879448,-0.206623747945,-0.416885375977,-0.0847560912371,-0.14956279099
2017/07/09/10:10:39.844065,462451,1499566242,649395780,,0.784606043864,0.381174149455,0.164354014881,0.631298346272,0.77303785095,0.053056076412,0.0325565930141,0.0326821452031,-0.146278880938,0.020134988043,-0.0438845868195,-0.0372489502634,-0.186847559742,-0.679988622665,1.37601327896,-0.4625890553,-0.503262877464,-0.0615857131779,-0.181295931339
2017/07/09/10:10:39.853865,462452,1499566242,659392655,,0.785488293826,0.37991284608,0.164762190486,0.632131000802,0.772301702543,0.0536454154669,0.0329036088362,0.0353097571672,-0.155847935191,0.00960597343541,-0.0302154991829,-0.0275164093673,-0.206522408761,-0.506913602352,1.33119475842,-0.806201636791,-0.490246981382,-0.00653342530131,-0.188113927841
2017/07/09/10:10:39.864069,462453,1499566242,669395979,,0.785418509736,0.378276575557,0.164534629108,0.633054323164,0.771563962457,0.0533524256232,0.0329362177635,0.0337441480541,-0.158818441054,0.0157813109164,-0.0282254639634,-0.0247382863942,-0.22882628016,-0.307530522346,1.38554239273,-0.899508357048,-0.572754085064,0.0419320650399,-0.230634957552
2017/07/09/10:10:39.874092,462454,1499566242,679399324,,0.786175658056,0.376156810332,0.164883159783,0.634033935585,0.770720565714,0.0535379336726,0.0335330847003,0.0313090092835,-0.16737473733,0.0164488820664,-0.0328826839938,-0.0258207514593,-0.223818289764,-1.05780923367,1.14438557625,-0.67252099514,-0.48530036211,-0.237880498171,-0.17976860702
2017/07/09/10:10:39.884336,462455,1499566242,689393740,,0.786615639857,0.374634193937,0.165912292162,0.635127968932,0.769788518738,0.0537580859148,0.0338846233313,0.0479283067564,-0.229346427382,0.0198400831282,-0.0380120617571,-0.0477285266307,-0.326104549683,-1.42036485672,1.1626329422,-0.300467014313,-0.537684440613,-0.327406734228,-0.230166256428
2017/07/09/10:10:39.894065,462456,1499566242,699402093,,0.78648271011,0.372749285882,0.165402135159,0.635883388621,0.769201584191,0.053248381334,0.0338503890535,0.0373174419722,-0.179563052152,0.0275174813459,-0.0252503278263,-0.0451835038958,-0.255743613751,-2.01280546188,0.971157193184,0.0525907538831,-0.472766399384,-0.579143464565,-0.220427706838
2017/07/09/10:10:39.903910,462457,1499566242,709394714,,0.787114387308,0.370328775235,0.165696286565,0.636985470953,0.768269102757,0.0531796093334,0.0344096598918,0.0286268111973,-0.185649866957,0.015643763369,-0.0409040951646,-0.0254146956091,-0.237497061514,-1.42642331123,1.30633449554,0.237451195717,-0.646848201752,-0.352320581675,-0.260708093643
2017/07/09/10:10:39.914248,462458,1499566242,719401096,,0.787001338068,0.368091497518,0.165549101253,0.638058991747,0.767416019066,0.0526113828237,0.0344299161847,0.0306335014898,-0.193813707604,0.0180075359014,-0.0265088950589,-0.0193163248062,-0.260906209439,-1.25705778599,1.16735374928,0.0828086286783,-0.545498132706,-0.317021429539,-0.236646354198
2017/07/09/10:10:39.924183,462459,1499566242,729393278,,0.787441143155,0.366299793072,0.165708911603,0.639302184409,0.766364598035,0.0528249780337,0.0344607252411,0.045220397558,-0.202736814594,0.0350698558006,-0.0179667728695,-0.0494286547555,-0.287289215081,-1.29084193707,0.0927188098431,-0.0855777189136,0.00382395088673,-0.328206688166,-0.0966130197048
2017/07/09/10:10:39.934231,462460,1499566242,739392148,,0.788190624924,0.364918806633,0.16651149528,0.640056128016,0.765674449227,0.0533049679323,0.0350623898774,0.0472666997273,-0.202121307849,0.0417032910222,-0.00407656529506,-0.0693690868562,-0.289608917631,-1.73435747623,-0.925341904163,-0.107497856021,0.521844267845,-0.479645520449,0.00836031138897
2017/07/09/10:10:39.944197,462461,1499566242,749396969,,0.788301731211,0.363654071656,0.166757177061,0.640938737276,0.764917372692,0.0535521035422,0.0350873227565,0.046672558111,-0.203508063472,0.0374093155997,-0.0151621478237,-0.0704106423909,-0.278426585751,-1.76054549217,-1.28768360615,-0.112553268671,0.650696218014,-0.483134746552,0.0496258437634
2017/07/09/10:10:39.954068,462462,1499566242,759399364,,0.789295521168,0.361196730714,0.167434814748,0.642133350208,0.763855587025,0.0539483857191,0.0357627515632,0.0349864234864,-0.182999228719,0.0296990902475,-0.00177685825056,-0.0484052632569,-0.25358798571,-1.60092759132,-0.670883774757,-0.0264049209654,0.261737883091,-0.404626131058,-0.0640759766102
2017/07/09/10:10:39.963828,462463,1499566242,769392644,,0.789220887782,0.359600339855,0.167453596247,0.642915019616,0.763206849085,0.0539977250713,0.0354940663907,0.0429997413703,-0.187110262376,0.0423836210232,0.0257429024967,-0.0635286881228,-0.28788460078,-1.57849812508,0.0487283617258,0.00642688572407,-0.156238347292,-0.445531189442,-0.133788019419
2017/07/09/10:10:39.974102,462464,1499566242,779398324,,0.789534171446,0.357614652335,0.167693736933,0.644495681607,0.761875417159,0.0540607689726,0.0353355115562,0.0390868494839,-0.194403761508,0.0328290184141,0.0369931722196,-0.0418915688936,-0.301259120055,-0.985671162605,1.03518939018,-0.285173922777,-0.729101657867,-0.271375060081,-0.282156974077
2017/07/09/10:10:39.983934,462465,1499566242,789393242,,0.789698196437,0.356384638458,0.168110569764,0.644867168006,0.761534192858,0.0542190857015,0.0356693072739,0.0178117980851,-0.173904393797,0.0251168321297,0.0595047709262,0.000792167869962,-0.287589508854,-1.6686617136,1.15257251263,-0.3983720541,-0.850544452667,-0.578689932823,-0.327713906765
2017/07/09/10:10:39.994047,462466,1499566242,799398224,,0.789964627993,0.354558116376,0.168152595288,0.645871749153,0.760679044667,0.054169969786,0.0358146481771,0.0405181784078,-0.180796438953,0.0372809658857,0.0184777544732,-0.0601313787627,-0.27069846986,-1.45615684986,1.03994655609,-0.241154387593,-0.773702204227,-0.460926771164,-0.302829802036
2017/07/09/10:10:40.004462,462467,1499566242,809398767,,0.790533637885,0.351991657506,0.168350839886,0.64691628327,0.759766278637,0.0540868290175,0.0364573615601,0.0414742953312,-0.200716271762,0.0330663939975,-0.0226280394377,-0.062920853458,-0.257249295167,-2.25442957878,0.715670466423,-0.122664630413,-0.543800532818,-0.773824989796,-0.260097265244
2017/07/09/10:10:40.014706,462468,1499566242,819401995,,0.791392083296,0.349339492124,0.16916079077,0.648579258623,0.758283241983,0.0546385333624,0.0369608019894,0.0410096754283,-0.233537575839,0.0306767712759,-0.0404156464375,-0.0471204505352,-0.288509730876,-1.51471602917,0.52478402853,-0.0602437444031,-0.417776972055,-0.451891064644,-0.178598359227
2017/07/09/10:10:40.024037,462469,1499566242,829396651,,0.791868499097,0.347367377274,0.169755759011,0.649337675192,0.757606958993,0.0545023393185,0.0377064221515,0.0510453729778,-0.23858349611,0.0434972789101,-0.0125552555965,-0.0770425257884,-0.323685215604,-1.79006791115,0.280638217926,0.0181895792484,-0.273532688618,-0.553565382957,-0.161844745278
2017/07/09/10:10:40.034323,462470,1499566242,839402254,,0.79200029755,0.345700224762,0.169664848961,0.650298434476,0.756777702544,0.0547571704809,0.0374313682849,0.0416412473374,-0.2153579536,0.0525801892631,-0.00627039886705,-0.0698756271969,-0.293028103012,-1.7378680706,0.0792456865311,0.169695585966,-0.213725984097,-0.560802638531,-0.140183657408
2017/07/09/10:10:40.044195,462471,1499566242,849392241,,0.791928736057,0.344115675383,0.170214310242,0.651398484421,0.755839429029,0.0547473699926,0.0372759640902,0.0363721152704,-0.190633565319,0.0411206963226,0.0291442110546,-0.0503051665419,-0.281542675475,-0.921312212944,0.548024535179,-0.0155122987926,-0.447539925575,-0.284378498793,-0.211089044809
2017/07/09/10:10:40.054010,462472,1499566242,859403279,,0.792674969354,0.341865385493,0.170340660227,0.652604539618,0.754755114623,0.0548741110785,0.0379587111668,0.0341541299491,-0.182911441889,0.0358583346661,0.0222302042126,-0.0400045604383,-0.267961011129,-1.0039819479,0.630847871304,-0.289300382137,-0.400933653116,-0.363628685474,-0.173971623182
2017/07/09/10:10:40.064422,462473,1499566242,869392360,,0.792886324471,0.340545850093,0.170615230578,0.65313908577,0.754292774191,0.0549110915785,0.0379014177198,0.035870221223,-0.206206653854,0.0315570662059,-0.000781732878763,-0.0442805612845,-0.283933080105,-1.41349804401,0.656020402908,-0.446232229471,-0.497973650694,-0.550561606884,-0.21414732933
2017/07/09/10:10:40.074261,462474,1499566242,879398506,,0.793271752165,0.337859314278,0.171357531522,0.65470540052,0.752882294575,0.0553323838094,0.0383068707652,0.0471473287089,-0.224108912653,0.0391201917287,-0.0153928105866,-0.0714644685551,-0.290740530393,-1.20554447174,0.49800157547,-0.537421584129,-0.381101310253,-0.455228686333,-0.201609387994
2017/07/09/10:10:40.083863,462475,1499566242,889399636,,0.793946193071,0.335352156914,0.171673869775,0.655809768828,0.751887066368,0.0553517940074,0.0389302637806,0.0429366331938,-0.251629408584,0.0318204902658,-0.0155056240497,-0.0588156750045,-0.350743449006,-0.913894951344,0.393661618233,-0.545740962029,-0.329524576664,-0.307573825121,-0.146575391293
2017/07/09/10:10:40.094151,462476,1499566242,899396362,,0.794481114268,0.333558973847,0.171953496392,0.656873568677,0.750926990633,0.0556103801078,0.0391568019144,0.0576753864646,-0.220997848385,0.0387523880239,0.0169927780349,-0.0974754843664,-0.329527638027,-1.08566808701,0.426226973534,-0.413692057133,-0.361480563879,-0.36037415266,-0.180726766586
2017/07/09/10:10:40.104856,462477,1499566242,909393773,,0.794987315445,0.33078337524,0.172229378043,0.658291322304,0.749650307598,0.0557984717431,0.0395408883104,0.0404142714395,-0.239422327926,0.0170067106809,0.00186530253698,-0.0493031359608,-0.324378241264,-0.920738756657,0.231091216207,-0.465841025114,-0.215932935476,-0.285753756762,-0.0914740264416
2017/07/09/10:10:40.114228,462478,1499566242,919399242,,0.795115356766,0.329407458054,0.172196815081,0.658694477945,0.749299379985,0.0556591573301,0.0396747033373,0.0378790808735,-0.234765609161,0.0227311547457,-0.00535687160869,-0.04578574009,-0.315942555413,-1.03145873547,-0.136306360364,-0.122261822224,-0.192168012261,-0.316337287426,-0.125274419785
2017/07/09/10:10:40.124493,462479,1499566242,929393815,,0.795161660458,0.327252078267,0.17222103174,0.660066590745,0.748104166694,0.0556509077615,0.0394363794347,0.0306226930226,-0.20731093017,0.0224773597034,-0.001012735672,-0.0308697715839,-0.292139445402,-1.02799487114,-0.000835001468658,-0.073791526258,-0.285825967789,-0.319439888,-0.169170632958
2017/07/09/10:10:40.134135,462480,1499566242,939399294,,0.796182555926,0.325588871675,0.173107430303,0.660863165534,0.747294728215,0.0562991590996,0.04050765739,0.0235706618551,-0.202980420748,0.0225834739349,0.00324505679465,-0.0271372541121,-0.277404029106,-1.68295621872,0.275971233845,-0.0668384581804,-0.491032660007,-0.627388060093,-0.234503746033
2017/07/09/10:10:40.144125,462481,1499566242,949399979,,0.795763429859,0.32329781016,0.172973890201,0.661892371868,0.74643952224,0.055854889967,0.0400843980583,0.0374196046485,-0.193773799148,0.0326223339217,0.00498645863912,-0.0618885940466,-0.283741358951,-1.47909402847,0.508211016655,0.015542101115,-0.681762695312,-0.501057565212,-0.301745086908
2017/07/09/10:10:40.154312,462482,1499566242,959404047,,0.796110027762,0.321547492033,0.172774375762,0.663075196892,0.745369460957,0.0561235220347,0.0400724370842,0.0276528497826,-0.208495212456,0.0107802602943,-0.00748597842492,-0.0254688872364,-0.283561596752,-1.93517684937,0.374056756496,-0.213509768248,-0.577517867088,-0.676768422127,-0.250796169043
2017/07/09/10:10:40.164216,462483,1499566242,969395403,,0.79656777335,0.319249098154,0.173107683319,0.663775819856,0.744725127588,0.0560607188995,0.0405381438833,0.020735669377,-0.212082615128,0.00489789558617,-0.00329424776499,-0.0123211853368,-0.284362132667,-1.399720788,0.557287812233,-0.0547331571579,-0.705360591412,-0.446639358997,-0.285777807236
2017/07/09/10:10:40.174034,462484,1499566242,979401558,,0.797158920833,0.317184371327,0.173500049151,0.664986339145,0.743595823503,0.0562270485613,0.0411939198109,0.0207524669154,-0.237872108198,0.0044688291622,-0.0362386323869,-0.00932579061884,-0.291694572637,-1.41679990292,0.543495237827,-0.0761572271585,-0.628886938095,-0.437101960182,-0.266638755798
2017/07/09/10:10:40.183904,462485,1499566242,989392631,,0.797038787952,0.314376380236,0.173295751699,0.666373095778,0.742391798972,0.0557672940548,0.0411256970314,0.0284338487405,-0.211062515918,0.0185809808271,-0.0078450774673,-0.0389091375191,-0.282977378382,-1.62473225594,-0.0287761241198,-0.0510836578906,-0.363469541073,-0.505944252014,-0.196372613311
2017/07/09/10:10:40.194054,462486,1499566242,999399496,,0.796360691625,0.312990527443,0.173000855063,0.666941875433,0.741961667521,0.0550600892562,0.0406177952923,0.0232066437801,-0.218554171626,0.0126015053503,-0.0167534512677,-0.0247917475314,-0.293148207334,-1.6748291254,-0.0167336910963,-0.07601352036,-0.282861202955,-0.51120454073,-0.181469336152
2017/07/09/10:10:40.204117,462487,1499566243,9394147,,0.797120957082,0.310526364004,0.173113619271,0.668395496081,0.740598278927,0.0554895620649,0.0410190025487,0.0199116225643,-0.232928685406,0.00659022364178,-0.0223292981932,-0.00824162255069,-0.304427448555,-1.81147408485,0.02046187222,-0.00577937066555,-0.327123492956,-0.557344675064,-0.222084313631
2017/07/09/10:10:40.214069,462488,1499566243,19396632,,0.797336491753,0.308144208617,0.173119658564,0.669116242332,0.73994696511,0.0550997467574,0.0415446865459,0.0202048628809,-0.205636157392,0.00487958230452,0.00385149628025,-0.0111909979559,-0.278071687867,-1.44045305252,0.0671566128731,-0.00653186067939,-0.39910581708,-0.46314433217,-0.253763496876
2017/07/09/10:10:40.224213,462489,1499566243,29395280,,0.798065674586,0.306304929092,0.173502472676,0.670467883009,0.738668326957,0.0558358906676,0.0415243773946,0.0169344859165,-0.216657466652,0.000958489732092,0.00358411070261,0.0118119055508,-0.293606241022,-1.95703494549,0.279989421368,0.311263561249,-0.476094603539,-0.671811163425,-0.2537586689
2017/07/09/10:10:40.236059,462490,1499566243,39401642,,0.797839152543,0.305038580526,0.173442901738,0.671169228222,0.738049141511,0.0557261581398,0.0413512648133,0.0195186599044,-0.217951967409,-0.00898286806457,-0.0277472427496,0.000412960012821,-0.2716840547,-2.08506560326,0.382088631392,0.332617670298,-0.502040207386,-0.70843231678,-0.302465736866
2017/07/09/10:10:40.244101,462491,1499566243,49396832,,0.798215671201,0.30227187181,0.173532510503,0.672177690389,0.737120054534,0.0553931191433,0.0419854748589,0.0296515498293,-0.222615051716,-0.0016502474744,-0.0128540226789,-0.0231709596031,-0.301217572303,-2.02921009064,0.193873435259,0.592978835106,-0.40148794651,-0.642682313919,-0.241465449333
2017/07/09/10:10:40.254207,462492,1499566243,59400562,,0.79798006322,0.29951334933,0.172643347052,0.673379979423,0.736089461835,0.0546562273662,0.0417660663482,0.0123226761806,-0.244453399808,-0.00533059470407,-0.0360105440771,0.0138621997631,-0.298713739496,-2.96231484413,-0.0170830488205,0.717442154884,-0.336863577366,-0.991701602936,-0.276664942503
2017/07/09/10:10:40.264222,462493,1499566243,69394925,,0.798925782039,0.29833188133,0.1738161785,0.674349455413,0.735071626569,0.0559174195533,0.0423763847907,0.0301223590553,-0.228015901047,-0.00494799530833,0.0115305671671,-0.0236446219816,-0.328197855438,-2.5993282795,0.197784677148,1.102388978,-0.399609744549,-0.813202559948,-0.26954934001
2017/07/09/10:10:40.274113,462494,1499566243,79398887,,0.798624268795,0.295816426491,0.173312529846,0.675464524901,0.73412810991,0.0550557142942,0.0421006195259,0.0259871497682,-0.191879761385,0.00700342374072,0.0171532853982,-0.0323357615311,-0.280215987693,-3.51467013359,-0.17092473805,1.13026583195,-0.253645956516,-1.15247094631,-0.216093316674
2017/07/09/10:10:40.283929,462495,1499566243,89393486,,0.799023271959,0.294831659794,0.173128239475,0.675809824878,0.733779270193,0.0554239379375,0.0421574469868,0.0222031119438,-0.186375315101,-0.00342392462423,0.0278560427566,-0.0133595804558,-0.272894906421,-4.10670042038,0.0563995093107,1.12352311611,-0.343809276819,-1.39157438278,-0.288921505213
2017/07/09/10:10:40.293965,462496,1499566243,99393655,,0.798835173688,0.291435053448,0.172911670241,0.677639693963,0.732149808486,0.054746547196,0.0419990317761,0.0260774390939,-0.227427527918,-0.00036702303284,-0.00722381236266,-0.0218797786283,-0.30718565528,-4.25386857986,-0.121835023165,1.36405944824,-0.262345284224,-1.42394292355,-0.230337291956
2017/07/09/10:10:40.304478,462497,1499566243,109398867,,0.799718933324,0.289381081072,0.173593541453,0.678517789233,0.731232851128,0.0552869015153,0.0430753484854,0.023094128305,-0.221754542879,0.00602876993058,-0.012935809936,-0.0185538509686,-0.288514840589,-4.59950208664,-0.361787974834,1.39553749561,-0.165532976389,-1.56175506115,-0.234114646912
2017/07/09/10:10:40.313991,462498,1499566243,119398665,,0.800073800077,0.286837638314,0.173666795081,0.680052905383,0.729786019913,0.055613135753,0.0429836032771,0.0178773867844,-0.234912938898,-0.00461156856851,-0.0183420313997,-0.00334356638106,-0.310769240123,-5.09847068787,-0.587484657764,1.38179063797,-0.0936302244663,-1.76966094971,-0.214767456055
2017/07/09/10:10:40.324136,462499,1499566243,129392627,,0.799644931114,0.285590218109,0.172998497997,0.680585326438,0.729359938475,0.0549779959253,0.042604149437,0.0252913711494,-0.273858883696,-0.00864896349793,-0.0243496903572,-0.0124300494262,-0.372522193953,-6.03240442276,-0.239511936903,1.63613510132,-0.119392454624,-2.04523825645,-0.212877810001
2017/07/09/10:10:40.334241,462500,1499566243,139399880,,0.80018829896,0.282930074497,0.173091189845,0.681839565717,0.728150016792,0.055126739902,0.0430511581344,0.00880861763407,-0.236186421865,-0.0114794703903,-0.00128219591731,0.0175468816389,-0.324531063916,-6.11733198166,-0.468560546637,1.99352359772,-0.0413742214441,-2.0746178627,-0.230532675982
2017/07/09/10:10:40.344630,462501,1499566243,149396312,,0.800432796857,0.279964439452,0.173106513013,0.683222180504,0.726855491289,0.054875069245,0.0433275158039,0.0246719532954,-0.218009879144,-0.0053271103537,0.00879767336462,-0.0249896006441,-0.298211445459,-7.01803159714,-0.854013979435,2.22471165657,0.101454384625,-2.4089987278,-0.185612857342
2017/07/09/10:10:40.354084,462502,1499566243,159394894,,0.800544366689,0.277875684572,0.172824577013,0.684462833772,0.725678108832,0.0549654134193,0.0433672096711,0.0211806566228,-0.230544131494,0.00121563498524,0.00524960796609,-0.0225617414677,-0.309029363474,-7.62999582291,-0.336695194244,2.11011385918,-0.0334825366735,-2.65847468376,-0.227578610182
2017/07/09/10:10:40.363974,462503,1499566243,169401847,,0.800638073199,0.276020338379,0.173027151377,0.685478924959,0.724726021281,0.0548212386865,0.0434219910247,0.00466480061854,-0.228844613193,-0.0103703246332,-0.000535667264187,0.0217781507577,-0.308946686922,-7.0135216713,-0.644727349281,2.14942526817,0.128414198756,-2.4208111763,-0.151120498776
2017/07/09/10:10:40.374081,462504,1499566243,179397919,,0.80068373771,0.27331635414,0.173073139721,0.68665904226,0.723603768042,0.054929017568,0.0433560790206,0.0135161237612,-0.233517441677,-0.00888124518049,0.000316950784662,0.00270936776155,-0.31327177389,-7.11824655533,-0.953207135201,1.78715062141,0.199307739735,-2.45893955231,-0.154420375824
2017/07/09/10:10:40.383905,462505,1499566243,189399634,,0.80080181386,0.271681336783,0.172511575988,0.687537141372,0.722784446604,0.0548746294581,0.0431752014782,0.0145869952751,-0.243197094352,-0.00800819379001,0.0106767451993,-0.00397664413974,-0.325947001228,-6.24405193329,-0.195242509246,1.86785888672,-0.145558342338,-2.11488461494,-0.221469581127
2017/07/09/10:10:40.393978,462506,1499566243,199393417,,0.801191058687,0.26914345085,0.172643525041,0.68858127204,0.721778155436,0.0545714345979,0.0437502532131,0.0179410722135,-0.252152532582,-0.0128595343753,-0.0126688258581,-0.00569552861072,-0.344679631219,-5.11872959137,1.28963291645,1.90250992775,-0.901222348213,-1.73682498932,-0.408483296633
2017/07/09/10:10:40.403895,462507,1499566243,209396818,,0.80110179131,0.267098943343,0.171927318742,0.689896104864,0.720554579434,0.0544845040101,0.0433116770865,0.0275095339845,-0.250842489198,-0.00858249731195,-0.0235481162513,-0.0161473889372,-0.351225443573,-5.23092317581,2.14375448227,1.68225884438,-1.25977444649,-1.78488028049,-0.48355948925
2017/07/09/10:10:40.414065,462508,1499566243,219401303,,0.80152934939,0.26344065483,0.172577913422,0.691240905108,0.719225569485,0.054112315675,0.0444122572804,0.0163030367743,-0.238192731569,-0.0132604881656,-0.0390739941418,0.0051177542643,-0.323382409547,-5.58764696121,1.85710740089,1.91670417786,-1.16112840176,-1.94343042374,-0.441354990005
2017/07/09/10:10:40.423952,462509,1499566243,229400516,,0.801818050506,0.261136040466,0.17263397625,0.692430560812,0.71808271662,0.0540159052984,0.0444905891127,0.0167900012181,-0.269054517136,0.00187393517676,-0.0524406296231,-0.00122365419756,-0.35918382754,-5.7389383316,1.23277914524,1.84918212891,-0.691621005535,-2.04328894615,-0.336261987686
2017/07/09/10:10:40.434199,462510,1499566243,239403878,,0.801932121689,0.258797942562,0.172376782073,0.693380381934,0.717166865938,0.0535831332299,0.0449908899976,0.0254334294178,-0.288914057043,-0.00169674502525,-0.0696853118383,-0.024685724035,-0.359900590456,-6.39423036575,-0.134865105152,1.6877630949,0.0568358451128,-2.26859545708,-0.139449298382
2017/07/09/10:10:40.444198,462511,1499566243,249393465,,0.802313443918,0.256360192775,0.172696426436,0.694472567661,0.71607173257,0.0536781015142,0.045472936989,0.041235530388,-0.281754463762,0.0125669390634,-0.0733725717495,-0.0617647037668,-0.344145587803,-6.4467663765,-0.304891765118,1.55379414558,0.30359813571,-2.31772875786,-0.119257949293
2017/07/09/10:10:40.454078,462512,1499566243,259391488,,0.80219954187,0.253449783682,0.172027936773,0.69606317006,0.714589019138,0.0531548657989,0.0450905450764,0.0179783370346,-0.277965239372,0.00119142234834,-0.0457483263417,-0.011027674595,-0.350040654064,-7.05820274353,-0.313686788082,1.37752640247,0.210850685835,-2.56196713448,-0.132997721434
2017/07/09/10:10:40.463999,462513,1499566243,269394027,,0.80252498147,0.251044903036,0.172212242462,0.697261047681,0.713382277708,0.0532677228894,0.0455555368345,0.0241627314147,-0.268349375952,0.00432314810745,-0.0266338086647,-0.019562030513,-0.368351383778,-6.82982635498,0.119604602456,1.28396439552,-0.109447024763,-2.53189682961,-0.218370333314
2017/07/09/10:10:40.474062,462514,1499566243,279399190,,0.803110179243,0.248560358275,0.172937293128,0.698435787358,0.712158516402,0.053808247677,0.0460691972521,0.0173359325832,-0.256018235085,-0.00116593764384,0.00812699656431,-0.00852824618958,-0.370185841987,-6.8896894455,0.376512616873,1.68034183979,-0.243778944016,-2.57071018219,-0.244820594788
2017/07/09/10:10:40.484215,462515,1499566243,289392589,,0.802882120136,0.245483613054,0.172397626624,0.699973334105,0.710708259672,0.053220882276,0.045810903347,0.0373092962653,-0.284416676272,0.0224532396791,-0.000414348419463,-0.0625589159564,-0.412783682982,-7.12126970291,0.168415427208,1.4085893631,-0.18187046051,-2.69319701195,-0.187683880329
2017/07/09/10:10:40.494295,462516,1499566243,299401395,,0.803313669647,0.243017715499,0.172510870016,0.700769386472,0.709902122489,0.0530109773084,0.0463797343121,0.0371253893202,-0.256102176368,0.00491393536175,-0.0111923874484,-0.054622702317,-0.356282646973,-7.88723039627,0.0598384439945,1.44945263863,-0.0312893465161,-3.00280165672,-0.14424534142
2017/07/09/10:10:40.504157,462517,1499566243,309394775,,0.803806389706,0.240711335844,0.172950488206,0.702017734752,0.708614501216,0.0532696054332,0.0468928341714,0.0149629027409,-0.256887215519,-0.00437779965397,-0.0374584991826,-0.0023724201409,-0.336695588848,-7.4927740097,-0.294740617275,1.51385939121,0.133377104998,-2.87145519257,-0.114931583405
2017/07/09/10:10:40.516063,462518,1499566243,319402217,,0.803805594944,0.236874933602,0.172283210801,0.703797306474,0.706871938571,0.0526521788437,0.0472140013642,0.0238648859309,-0.305819677977,0.00218032082589,-0.0483477798276,-0.0297597030529,-0.389957864276,-7.48533296585,-0.488888502121,1.37162148952,0.163657084107,-2.89260601997,-0.125160247087
2017/07/09/10:10:40.524076,462519,1499566243,329394564,,0.804643016555,0.235339115351,0.173069480709,0.704777957394,0.705800535668,0.0535149844069,0.0476422193707,0.0265853077561,-0.282984752894,-0.004542394294,-0.0310739628198,-0.0336772253482,-0.372597507086,-6.87065029144,0.506522297859,1.46618080139,-0.150398135185,-2.66881608963,-0.201526880264
2017/07/09/10:10:40.533904,462520,1499566243,339392044,,0.804752665083,0.232831046168,0.172818217496,0.705729063649,0.70485469032,0.0533139133376,0.0477910127557,0.0407095031654,-0.236198453154,0.0086975500562,0.0166636849711,-0.0652594941458,-0.351304679744,-6.63728952408,0.214224055409,1.40639126301,-0.0844415277243,-2.58197641373,-0.152454465628
2017/07/09/10:10:40.544221,462521,1499566243,349405612,,0.80488295538,0.230400280971,0.172737843086,0.707178823657,0.70340282013,0.0533390684303,0.0477234510892,0.0298190137688,-0.281844959661,0.00773846086406,-0.00134832977543,-0.0460430838427,-0.383444418223,-6.76648569107,0.273543506861,1.05430757999,-0.117983385921,-2.66124176979,-0.158322781324
2017/07/09/10:10:40.554234,462522,1499566243,359400509,,0.805320326218,0.226776168258,0.173168239992,0.708599561415,0.701937606355,0.0529926994304,0.0486007423177,0.0333865411218,-0.291929248042,0.00646555470917,-0.0247590692034,-0.046964089116,-0.390535441363,-7.31381177902,-0.308225005865,0.886857450008,-0.00764434784651,-2.87093019485,-0.146318942308
2017/07/09/10:10:40.564092,462523,1499566243,369430487,,0.805552149937,0.224764613724,0.173044155538,0.709698592229,0.700803063664,0.0534678041107,0.0484166094556,0.0339244450618,-0.286892396943,0.00494027201709,-0.0273217459969,-0.0516696389865,-0.387060583245,-7.38098335266,0.0759076625109,1.16245269775,-0.113000839949,-2.91024637222,-0.184467375278
2017/07/09/10:10:40.574099,462524,1499566243,379397302,,0.805855590533,0.221998006413,0.172684350518,0.710902613189,0.699570020043,0.0533569586771,0.0487062273219,0.0375514209949,-0.288163297445,0.00895981731025,-0.00553749007925,-0.0639266619594,-0.410903506597,-7.23095750809,0.269903808832,0.927452325821,-0.102455981076,-2.80659031868,-0.147253096104
2017/07/09/10:10:40.583911,462525,1499566243,389400504,,0.806156445065,0.219674785332,0.172759857011,0.712182982851,0.69824931164,0.0534057166469,0.0488991529654,0.0394200444759,-0.272729643333,0.000655881489364,0.0151579320251,-0.0649760440606,-0.403344010976,-7.867228508,0.125704541802,1.43564522266,-0.0567328110337,-3.07358694077,-0.15224994719
2017/07/09/10:10:40.593995,462526,1499566243,399393803,,0.806536175653,0.216106494947,0.172824970463,0.713916717699,0.696441884949,0.0533505733622,0.0494503528917,0.038780612588,-0.310767326476,0.00895345748742,-0.019614189592,-0.0712810407146,-0.430260119757,-8.14378452301,0.0542737990618,1.3608148098,-0.107933729887,-3.14605426788,-0.163867115974
2017/07/09/10:10:40.603921,462527,1499566243,409393310,,0.807493160848,0.212913700049,0.17344040126,0.715401031466,0.69480723159,0.0538258566457,0.0504683293224,0.0470848020248,-0.316288038764,-1.07714933629e-05,-0.03674120537,-0.0750428020964,-0.441731697991,-7.4322385788,0.0259461551905,1.32805347443,-0.0347594767809,-2.88709926605,-0.129203885794
2017/07/09/10:10:40.613881,462528,1499566243,419395236,,0.807257898103,0.210402685795,0.172699519665,0.716185946035,0.694057285523,0.0531464177765,0.0503749282096,0.038400159298,-0.295026698421,-0.00312581723502,-0.0305661367608,-0.0495717638819,-0.407380302332,-7.88582420349,0.365589052439,1.17881011963,-0.126125097275,-3.1009657383,-0.144879981875
2017/07/09/10:10:40.624083,462529,1499566243,429425076,,0.808166199428,0.207488864632,0.173636594673,0.717875492596,0.692211992011,0.0535647230122,0.0512655409987,0.0423012788985,-0.268037247119,0.00583998715824,-0.0220167419787,-0.0628184727596,-0.368545442007,-7.67058610916,0.385607361794,1.28745639324,-0.0897663086653,-3.03537559509,-0.107724584639
2017/07/09/10:10:40.634180,462530,1499566243,439402689,,0.809003080796,0.205646881419,0.173414129921,0.718968630485,0.691001567073,0.0543777835261,0.0514198341023,0.0553559885435,-0.28652303835,0.0105119038817,-0.0210650462162,-0.0861119203915,-0.389172853911,-7.6901011467,0.445036351681,0.987941920757,-0.0515194907784,-3.07073283195,-0.129986673594
2017/07/09/10:10:40.644045,462531,1499566243,449392157,,0.809194334849,0.202591837562,0.173438701036,0.720467486194,0.689447283277,0.0539766918492,0.0517258316057,0.0491315553624,-0.262855995722,-0.00246648203231,-0.00244458694174,-0.0642447213672,-0.373488552335,-7.85546159744,-0.244855463505,1.29167771339,0.0881368517876,-3.16923594475,-0.111648380756
2017/07/09/10:10:40.654013,462532,1499566243,459400720,,0.809490034609,0.20006043843,0.1728636693,0.721320969071,0.688561670271,0.0537757918371,0.0518367632616,0.0548706664734,-0.28628166854,-0.00310270800192,-0.00383252839626,-0.0685665579917,-0.421023260671,-7.83140277863,-0.0907204449177,0.85483944416,0.0907378420234,-3.20090532303,-0.102450847626
2017/07/09/10:10:40.664036,462533,1499566243,469393716,,0.81002189323,0.196859068198,0.172836249302,0.723123796074,0.686635373812,0.0538189361545,0.0522241428154,0.0548543679972,-0.29808768371,-0.0110430464541,-0.0166926848396,-0.0661752532843,-0.42108225128,-8.02958774567,0.0579127669334,0.612536072731,-0.159509837627,-3.29307413101,-0.189857035875
2017/07/09/10:10:40.674217,462534,1499566243,479403822,,0.811068784406,0.194145087878,0.173081112487,0.724444830189,0.685138811515,0.0544674573714,0.0528941684381,0.0563927612235,-0.291912911652,-0.00342127967659,-0.0187952190743,-0.0699216862679,-0.417404576546,-7.98657274246,0.384275883436,0.646898388863,-0.254393517971,-3.36048150063,-0.198098018765
2017/07/09/10:10:40.684134,462535,1499566243,489395536,,0.811402301423,0.191651493486,0.172710434054,0.725465863806,0.684057652986,0.0543475333079,0.0530165395567,0.0576737943438,-0.283693494217,0.000431824996867,-0.00903540934502,-0.0704980534486,-0.405344634385,-7.78488445282,0.420676499605,0.698948264122,-0.258260369301,-3.3361697197,-0.208303451538
2017/07/09/10:10:40.694169,462536,1499566243,499406533,,0.811851181453,0.188784035893,0.172507554328,0.727148734459,0.682240085085,0.0545329995161,0.0531915053507,0.0528551153967,-0.284988156317,-0.0100203442754,-0.0147310799031,-0.0500679326047,-0.383101894664,-7.96660709381,0.217469200492,0.640532016754,-0.192186713219,-3.42177915573,-0.155506342649
2017/07/09/10:10:40.704266,462537,1499566243,509394881,,0.812694743456,0.186394017711,0.17297725801,0.728103569423,0.681159299744,0.0547544349375,0.0537508364584,0.0774985787681,-0.294863309591,0.00617988101634,-0.0100599812116,-0.113078712138,-0.412409537721,-7.51388597488,0.311298549175,0.342151641846,-0.146015003324,-3.29259157181,-0.143363460898
2017/07/09/10:10:40.713892,462538,1499566243,519392862,,0.813168577834,0.184348557765,0.172588240646,0.729118040838,0.680056468424,0.0548189710475,0.0538977058241,0.0738936385513,-0.289149299519,-0.00844280283432,-0.0125321248806,-0.0856020555564,-0.413421599396,-7.45851707458,0.638786315918,0.0924722105265,-0.100903019309,-3.2278649807,-0.103111572564
2017/07/09/10:10:40.724003,462539,1499566243,529402879,,0.814019568406,0.181279177161,0.171998060981,0.730525272028,0.678511083803,0.054783501983,0.0543535095003,0.0722205568193,-0.284347938422,-0.00738533691001,-0.0117949615646,-0.083751528935,-0.419439744058,-7.18331956863,0.707186460495,-0.114695526659,-0.249278903008,-3.21096348763,-0.168321281672
2017/07/09/10:10:40.734389,462540,1499566243,539399048,,0.814897194934,0.177924273777,0.172166535865,0.732262592579,0.676583559628,0.0548882006879,0.0548950614936,0.0702945718592,-0.292866924972,-0.0224408016875,-0.0127055745523,-0.0657432226538,-0.414344394498,-7.20872306824,0.271946102381,-0.353650093079,-0.0934268981218,-3.25901556015,-0.140615805984
2017/07/09/10:10:40.744317,462541,1499566243,549405402,,0.815164953025,0.174964560351,0.171890299764,0.733358645969,0.675398456917,0.0545152318266,0.0552278034667,0.0757419334948,-0.291244016716,-0.0144303031078,-0.0124393745927,-0.0745745627438,-0.408257716141,-7.62069177628,-0.0928904861212,-0.0522062778473,-0.00927656888962,-3.3584420681,-0.105236575007
2017/07/09/10:10:40.754203,462542,1499566243,559412821,,0.816118396447,0.172842014108,0.172022668354,0.734668923543,0.673910490582,0.0550791465242,0.0554302361618,0.0701385639324,-0.289835411248,-0.0121804967109,-0.0148328184505,-0.0616000090042,-0.419198457174,-7.57566165924,0.537153363228,0.043260730803,-0.21739345789,-3.44367671013,-0.158685743809
2017/07/09/10:10:40.763879,462543,1499566243,569398915,,0.816633325886,0.170162426775,0.171731211055,0.735950438282,0.672501100484,0.0549337074652,0.0556912023954,0.0785050523568,-0.278903535523,-0.00851609128989,0.00266821561776,-0.0696202285261,-0.416857066477,-7.33302736282,0.292645812035,-0.148247376084,-0.136397659779,-3.37096738815,-0.118512906134
2017/07/09/10:10:40.774127,462544,1499566243,579416738,,0.817962016675,0.168248794534,0.172080019385,0.736953054785,0.671288966266,0.0556344715276,0.0563571148178,0.0824136591414,-0.278893981005,-0.0176168543631,0.0141571883953,-0.0718642906717,-0.419100954129,-7.38891029358,0.806367278099,0.140599891543,-0.213343515992,-3.38381075859,-0.148438051343
2017/07/09/10:10:40.784450,462545,1499566243,589397250,,0.818195533954,0.164239582066,0.171187120036,0.738772765135,0.669342297058,0.0552728509273,0.0560410814785,0.0805987123693,-0.294812777278,-0.0134397721977,-0.00669124184872,-0.0684049506605,-0.422413974579,-7.08124113083,0.39790481329,-0.378684967756,-0.159005731344,-3.25184202194,-0.121679700911
2017/07/09/10:10:40.793987,462546,1499566243,599400961,,0.818993486936,0.162095127027,0.171290974246,0.739878735163,0.668076417159,0.0554489294627,0.0563806199905,0.0578063706037,-0.298386205466,-0.0282311593079,-0.00510874553007,-0.00525165263921,-0.418618786685,-7.27142572403,0.389642387629,-0.541899085045,-0.252757579088,-3.30155277252,-0.152032867074
2017/07/09/10:10:40.804158,462547,1499566243,609392416,,0.819131686073,0.159798049264,0.17027504829,0.741160179052,0.666747012558,0.0548649420469,0.055855602827,0.0495537947743,-0.2686776687,-0.0356344867688,0.011834606703,0.0259308189029,-0.40022621041,-6.78647136688,0.743378162384,-0.737193644047,-0.275287806988,-3.18547987938,-0.13597664237
2017/07/09/10:10:40.813750,462548,1499566243,619392412,,0.819535638569,0.156126471651,0.170227199758,0.742565762888,0.66519641632,0.0541873748263,0.0563342161709,0.0490362597322,-0.272121070686,-0.0512416718788,0.0131288970724,0.0483466484875,-0.398531901186,-5.21908903122,0.326426208019,-0.814553260803,-0.247853815556,-2.57204270363,-0.115218125284
2017/07/09/10:10:40.823907,462549,1499566243,629398499,,0.820084723272,0.154395228338,0.169591046467,0.743712443102,0.663956446206,0.0542023524271,0.0558188544136,0.0290150957621,-0.278684488622,-0.0513025552355,-0.00511993716167,0.0908852874478,-0.382184429967,-6.05219268799,0.64772850275,-0.769420564175,-0.361398518085,-2.97852039337,-0.172049120069
2017/07/09/10:10:40.834352,462550,1499566243,639399677,,0.819899453169,0.151390362532,0.168384652453,0.744969979682,0.662683427539,0.0531019641879,0.0552321069364,0.0507222892132,-0.279973993824,-0.0328798702103,-0.0108684599364,0.0365021779321,-0.374380542355,-6.799264431,0.431144475937,-0.903218924999,-0.129220545292,-3.20481324196,-0.0524113550782
2017/07/09/10:10:40.844541,462551,1499566243,649402127,,0.820593567384,0.149228097886,0.168797111037,0.746029642843,0.661463097905,0.0531921633288,0.0554701349316,0.0404073839103,-0.272563583338,-0.0427051485538,-0.018828562885,0.0769172912513,-0.367045236427,-6.48889112473,0.436649531126,0.112302154303,-0.219986081123,-3.07953643799,-0.112089648843
2017/07/09/10:10:40.854743,462552,1499566243,659395577,,0.821040937634,0.146641708094,0.168218765613,0.747065596737,0.660340253073,0.0526969780178,0.0553784511402,0.0326797256568,-0.293191567446,-0.037476518426,-0.0475168308964,0.0962247947089,-0.37615939746,-6.43505191803,0.285318434238,-0.376285135746,-0.105579078197,-3.06323838234,-0.107648015022
2017/07/09/10:10:40.864166,462553,1499566243,669418488,,0.821033422364,0.143375882731,0.167881001708,0.748527127947,0.658791268254,0.0516197802399,0.0551053707743,0.0220596063218,-0.307026877405,-0.0470548660585,-0.0451922546555,0.120907041891,-0.395310925215,-5.44873571396,0.0677242577076,-0.498145580292,-0.09105502069,-2.66722583771,-0.0965072512627
2017/07/09/10:10:40.874211,462554,1499566243,679398913,,0.821649152826,0.140304999011,0.167681878762,0.749622561015,0.657550704842,0.0510985145011,0.0555160192625,0.0181365537611,-0.298946892969,-0.0377477784521,-0.0636293147281,0.140491419993,-0.381392706524,-4.17462921143,0.517535328865,-0.825865507126,-0.172130301595,-2.24860668182,-0.122083701193
2017/07/09/10:10:40.883991,462555,1499566243,689394241,,0.821374015339,0.136679830167,0.167146645135,0.751001435927,0.656105034866,0.0496368391187,0.0553101316323,0.0116094340249,-0.284005548848,-0.0438166601019,-0.070011006537,0.172803660949,-0.347448895936,-3.94283151627,-0.133192464709,-0.619784235954,-0.0826961100101,-2.13435792923,-0.0704662203789
2017/07/09/10:10:40.894194,462556,1499566243,699400004,,0.821499940535,0.134009735262,0.166561025199,0.751891925354,0.655185552924,0.0483611149065,0.0552415277893,0.011490355178,-0.287476946286,-0.0390957471841,-0.0925956953197,0.178587054422,-0.332400714079,-4.46269607544,0.413801193237,-0.952841818333,-0.229737222195,-2.34130501747,-0.105247430503
2017/07/09/10:10:40.904203,462557,1499566243,709397526,,0.822041571917,0.132079963795,0.166216570047,0.752670952838,0.654345972936,0.0478317760511,0.0550445788103,0.0298107600697,-0.293988967954,-0.0244722381689,-0.0973606364321,0.134965914007,-0.349943710805,-4.43611860275,0.926826894283,-0.572235405445,-0.245225161314,-2.36029839516,-0.0937814936042
2017/07/09/10:10:40.914025,462558,1499566243,719393856,,0.822100303627,0.129631610351,0.166815569927,0.753551716219,0.65340736432,0.0468397263003,0.054996975158,0.0171011416447,-0.283659946387,-0.0354451270422,-0.0994637758766,0.170255629173,-0.320438599527,-4.83443117142,0.914476454258,-0.423624634743,-0.20236492157,-2.47260046005,-0.0740655362606
2017/07/09/10:10:40.923989,462559,1499566243,729396168,,0.822359028019,0.12586877946,0.166507596572,0.754917812617,0.651884957703,0.0455551728837,0.0554059955058,0.0122648396241,-0.298638368965,-0.0191760875645,-0.121662587473,0.180374751411,-0.327790109442,-4.03913354874,0.158775135875,-0.25604724884,-0.245783358812,-2.07323312759,-0.16144913435
2017/07/09/10:10:40.934139,462560,1499566243,739394211,,0.822613733503,0.123428807746,0.165693913926,0.755692185354,0.651087646816,0.044574506242,0.0550210010099,0.00905749270452,-0.317928246884,-0.0238355682612,-0.147640303075,0.195821737498,-0.329688471568,-3.27010917664,0.0200959891081,-0.522368192673,-0.143361881375,-1.78920972347,-0.122362792492
2017/07/09/10:10:40.943833,462561,1499566243,749395245,,0.822282671199,0.120775634143,0.16580977872,0.756829647833,0.649903220011,0.0430355046125,0.054613497635,-2.9779572474e-05,-0.31190033039,-0.0278896233491,-0.135297160642,0.221321638678,-0.328527176536,-3.41182518005,0.432517975569,-0.722638428211,-0.277333319187,-1.80036532879,-0.161788076162
2017/07/09/10:10:40.954239,462562,1499566243,759397862,,0.82292322573,0.118059454739,0.165471698938,0.757540467003,0.649101688575,0.042139892375,0.0549878915025,0.00840474922994,-0.298553610083,-0.0259125357096,-0.137998046244,0.200834672458,-0.331043505884,-2.66018342972,0.4202029109,-0.949232757092,-0.264640033245,-1.57715475559,-0.121975399554
2017/07/09/10:10:40.964190,462563,1499566243,769400692,,0.822787210917,0.114690853022,0.165185849239,0.758828569667,0.647675641939,0.0407593939788,0.0550829964556,0.0262480233432,-0.284490751366,-0.0152692684384,-0.14446844447,0.157248317669,-0.305196337938,-2.70072054863,0.343392252922,-1.14866435528,-0.24052169919,-1.44470500946,-0.133060261607
2017/07/09/10:10:40.974058,462564,1499566243,779399296,,0.82305837093,0.111730908724,0.165323290686,0.759598536309,0.646833991654,0.0393840624251,0.0553601526809,0.000120350256165,-0.320648380156,-0.023430537406,-0.175886546976,0.21346251954,-0.341883048531,-1.8236041069,0.340508162975,-0.542583942413,-0.257313847542,-1.12065446377,-0.14220020175
2017/07/09/10:10:40.984005,462565,1499566243,789393391,,0.823546537324,0.109544577936,0.165905239205,0.76051752724,0.645783657652,0.0389596340409,0.0553055619806,0.024287392879,-0.30200620651,-0.000674515551545,-0.162863719314,0.163129075333,-0.300479711009,-1.61969733238,0.697527110577,0.0540585964918,-0.282996475697,-0.998195052147,-0.147091254592
2017/07/09/10:10:40.994018,462566,1499566243,799396728,,0.823277077416,0.106541656593,0.164976354603,0.761641426008,0.644605903366,0.0371076051512,0.0548506442543,0.0236047504201,-0.28433152537,0.00336998429951,-0.144571957752,0.168342254174,-0.285934403173,-1.6420173645,0.646081626415,-0.553039014339,-0.312718629837,-1.00772678852,-0.156259089708
2017/07/09/10:10:41.003913,462567,1499566243,809393012,,0.823181811617,0.103631298382,0.165210137195,0.762083358314,0.644147309383,0.0353729571263,0.055244481173,0.0105782206433,-0.283706746959,-0.00520422348398,-0.159841762477,0.205910382721,-0.29337485413,-1.95472252369,0.163135066628,-0.279871046543,-0.166158422828,-1.06415736675,-0.0940677076578
2017/07/09/10:10:41.014131,462568,1499566243,819405281,,0.823942605361,0.100380788315,0.165310200461,0.763458207667,0.642519026971,0.0346003144345,0.0557107114149,0.00273358736869,-0.306583125186,0.00714753772666,-0.177289259531,0.211349567881,-0.329821082389,-1.15090966225,0.00589893758297,-0.740007638931,-0.146541401744,-0.855673730373,-0.138285174966
2017/07/09/10:10:41.024345,462569,1499566243,829398781,,0.823487143993,0.0976251835677,0.165692971192,0.764686756609,0.641176574178,0.0330193214639,0.0552855261525,0.000565597154559,-0.297962822117,0.000665706768718,-0.162965727608,0.216709915713,-0.334162916697,-1.05350840092,-0.304705500603,-1.09953951836,-0.0645936131477,-0.746871173382,-0.0989940315485
2017/07/09/10:10:41.034081,462570,1499566243,839399869,,0.823622839954,0.0951577886274,0.164933835236,0.765248398023,0.640588015811,0.0314927790548,0.0552276035179,0.00750933844768,-0.30435518459,0.0135670772751,-0.173134214857,0.198540956753,-0.349912810181,0.387930482626,0.351513206959,-0.771851420403,-0.281455993652,-0.174642473459,-0.200958698988
2017/07/09/10:10:41.044000,462571,1499566243,849395387,,0.823579226516,0.0927871494342,0.165234128055,0.766275341049,0.639442677082,0.0303442802713,0.0549034523595,0.00398362012284,-0.263191758604,0.00485843640466,-0.140711900173,0.217433254659,-0.280118018001,0.0216223783791,0.128665685654,-0.919235527515,-0.286804497242,-0.238320782781,-0.162544727325
2017/07/09/10:10:41.054251,462572,1499566243,859401430,,0.823987208013,0.0903810484145,0.16567332166,0.76709238215,0.638494215507,0.0293290907121,0.0550837403389,0.00388787215131,-0.290628385432,0.0222653571894,-0.137905380432,0.190967883982,-0.341388539036,-0.253148406744,0.192863926291,-0.359769523144,-0.223142042756,-0.398354887962,-0.129623472691
2017/07/09/10:10:41.064107,462573,1499566243,869393036,,0.82350197778,0.0869425798987,0.165690479842,0.768511460066,0.636872077168,0.0277762464128,0.0548869128892,-0.00290462128146,-0.281210902081,0.0116777563109,-0.160887965101,0.213325853203,-0.308203233366,0.0580053180456,-0.0311366319656,-0.151085600257,-0.240899920464,-0.269838929176,-0.173658013344
2017/07/09/10:10:41.074000,462574,1499566243,879400065,,0.824040596856,0.0847010458457,0.166467886874,0.76899225773,0.636291449609,0.0268132306282,0.0553637911381,-0.00868395146292,-0.295208269291,0.0165012135643,-0.175751897321,0.210998315863,-0.316333540857,0.407180935144,0.0488042831421,0.633615970612,-0.236262828112,-0.133792966604,-0.188941150904
2017/07/09/10:10:41.084395,462575,1499566243,889401153,,0.823646005705,0.0817574697788,0.166086222104,0.770047648775,0.635102500612,0.0254336347233,0.0549960231051,0.00406455268741,-0.296312447081,0.0465382835777,-0.187333940669,0.173319143043,-0.301763298815,0.090588375926,0.266916841269,-0.343760371208,-0.261561453342,-0.148100584745,-0.171877622604
2017/07/09/10:10:41.094080,462576,1499566243,899399429,,0.823567924897,0.0793366552716,0.166049643897,0.770707255634,0.634372316467,0.0238010237488,0.054914492454,0.000693422011759,-0.290199864504,0.0277597045804,-0.165107333146,0.177362582198,-0.328720146882,1.96050310135,0.772681832314,-0.604000091553,-0.281252831221,0.572971403599,-0.177266359329
2017/07/09/10:10:41.104126,462577,1499566243,909404947,,0.823979698538,0.0764291250463,0.166681661827,0.772169180882,0.632573148299,0.0231551442009,0.0554058430545,0.00681133536744,-0.25597127558,0.0156923479707,-0.150140852803,0.185610687458,-0.298465232759,2.20514059067,-0.0235114395618,-0.177738144994,-0.173515319824,0.735084891319,-0.199981257319
2017/07/09/10:10:41.114015,462578,1499566243,919400299,,0.823767521282,0.0729717454731,0.167252981894,0.773408426317,0.631091123887,0.0215644316615,0.0556630464525,0.0093260909508,-0.265662683074,0.0412088937927,-0.132159843846,0.145224165588,-0.341055536537,2.6411588192,-0.571921765804,0.168225184083,-0.077271617949,0.947043061256,-0.199384555221
2017/07/09/10:10:41.124110,462579,1499566243,929393858,,0.824478568237,0.0712918715811,0.168140037824,0.773860612434,0.63052262968,0.0213583675987,0.0558997863777,0.00805363434766,-0.264413979745,0.0457579529196,-0.132304133169,0.147273835188,-0.331360865913,2.34749436378,-0.468866199255,0.502217531204,-0.033498428762,0.862650930882,-0.215409964323
2017/07/09/10:10:41.134171,462580,1499566243,939401237,,0.824131909339,0.0694835179662,0.167865700583,0.774493675409,0.629841426702,0.0198638043383,0.0553602135028,0.0107475454133,-0.276878478282,0.0588015745825,-0.135651718303,0.123187039069,-0.335008466675,1.98910462856,0.569992601871,-0.302183389664,-0.125078499317,0.666089236736,-0.187534108758
2017/07/09/10:10:41.144037,462581,1499566243,949408100,,0.82398312071,0.0660029175771,0.168729061082,0.775708327426,0.628338512296,0.0185837560312,0.055874401459,0.00324054597963,-0.253540080547,0.0565392274801,-0.120274007794,0.144725462243,-0.322380537846,1.61771917343,-0.58589887619,0.141422733665,0.0184556543827,0.559271454811,-0.183837413788
2017/07/09/10:10:41.154602,462582,1499566243,959419023,,0.824349651855,0.0640746839821,0.169429793188,0.776675318998,0.627160636495,0.0180474865556,0.0558504531768,0.0118615448669,-0.258619067961,0.0674624350035,-0.138720675625,0.120730994638,-0.327668728366,4.16153335571,-0.167172729969,0.0683341622353,-0.0811285823584,1.4997651577,-0.287162750959
2017/07/09/10:10:41.164256,462583,1499566243,969393010,,0.824598166725,0.0617196914323,0.170156523383,0.777766698107,0.625814892382,0.0174967881572,0.0559334085674,0.000741572540296,-0.24933019278,0.0643502249299,-0.0997433005425,0.136882238204,-0.340970296266,5.83399343491,1.19093298912,-0.406496584415,-0.180346161127,2.15609550476,-0.307099074125
2017/07/09/10:10:41.174213,462584,1499566243,979401163,,0.824325649009,0.0592034632938,0.170465107989,0.779030667589,0.62428249889,0.0164403312411,0.0557879560838,0.00448110279313,-0.237988066728,0.0649919653943,-0.0775943224985,0.114834755151,-0.349342038041,5.01073312759,1.06262683868,-0.214577168226,-0.148478984833,1.83007466793,-0.268416672945
2017/07/09/10:10:41.184222,462585,1499566243,989424949,,0.824958550563,0.0560468535235,0.171758321621,0.780134895548,0.622815453445,0.016181528175,0.0568208926745,0.00794474065893,-0.259370423343,0.0810520930078,-0.0882409157471,0.0776705968824,-0.37640016819,4.63740682602,0.334246277809,0.267040401697,-0.0512479767203,1.7222918272,-0.278942108154
2017/07/09/10:10:41.194257,462586,1499566243,999398136,,0.82500280119,0.0551788119917,0.172548324758,0.780955075393,0.621862768115,0.0159964924147,0.0560355251601,0.0125799221001,-0.251761510782,0.0783630922926,-0.0936197811858,0.0656656553571,-0.350414975058,4.99785757065,0.172638192773,0.960058569908,-0.167626649141,1.91207480431,-0.363178491592
2017/07/09/10:10:41.204138,462587,1499566244,9392789,,0.824769500533,0.0524189827162,0.173056095652,0.781681560445,0.620965302941,0.0146348762383,0.0562303387924,0.00843850896761,-0.224920030809,0.0805729783586,-0.0754493705594,0.0763584944717,-0.319966507745,4.56113672256,0.362078726292,1.01863276958,-0.3814856112,1.73634302616,-0.416894584894
2017/07/09/10:10:41.214112,462588,1499566244,19401099,,0.824993598513,0.0498464894663,0.174013231963,0.783015312732,0.619250823336,0.0141761289921,0.0566963419668,0.0118330784546,-0.225769488644,0.0794671252005,-0.0498544011323,0.0653296774233,-0.34608505057,5.34612226486,0.285889059305,0.790630877018,-0.325945466757,2.05697011948,-0.430468767881
2017/07/09/10:10:41.223914,462589,1499566244,29393892,,0.825329724384,0.0479741736891,0.174809070139,0.783697574437,0.618385904943,0.0140844529485,0.056732817441,0.0168265825238,-0.225971155748,0.0832345848896,-0.0593405780105,0.0427417115096,-0.344246973729,5.86417102814,0.105461880565,0.362264215946,-0.0666940510273,2.2158510685,-0.36783477664
2017/07/09/10:10:41.234166,462590,1499566244,39397385,,0.825444220007,0.0455185431365,0.175399866385,0.784991268692,0.616743587366,0.0139064074348,0.0567685419289,0.0162296911348,-0.258730150883,0.0855292280443,-0.104919634316,0.0200791463962,-0.360077302877,6.11258077621,-0.34391438961,0.0789687559009,0.264591872692,2.32570290565,-0.318567216396
2017/07/09/10:10:41.244015,462591,1499566244,49400375,,0.825332944513,0.042919703846,0.176070621335,0.785872762999,0.615591491235,0.0127708285535,0.0573412786127,0.00798968467153,-0.268569594909,0.0808076604578,-0.108313812416,0.0308482720168,-0.369366888929,5.27346229553,-1.47553861141,-0.048493206501,0.85026538372,2.03974080086,-0.237018734217
2017/07/09/10:10:41.254133,462592,1499566244,59400932,,0.82582517663,0.040126198712,0.177523464065,0.786947566884,0.614141872124,0.0128563314215,0.058120586906,0.0228306249829,-0.260143186395,0.101808067304,-0.0960734116818,-0.0197424299523,-0.365389771978,4.21248626709,-2.34564161301,-0.0294310748577,1.36581754684,1.61920535564,-0.0737997144461
2017/07/09/10:10:41.264105,462593,1499566244,69402328,,0.82589691761,0.038657789514,0.178352341716,0.787998588892,0.612839540549,0.0130569524012,0.0575798353461,0.0196465608761,-0.236782138629,0.102528719307,-0.0602369909996,-0.0181626297966,-0.356440553679,3.13993597031,-2.34796690941,0.407512903214,1.31075024605,1.18746805191,-0.0446468740702
2017/07/09/10:10:41.274095,462594,1499566244,79400702,,0.826446488707,0.0365166954592,0.179386696345,0.789164470675,0.611279969246,0.0131139145769,0.0581744159095,0.0221148502685,-0.22242787853,0.0970604484576,-0.0211479503689,-0.0306326947176,-0.354846851633,2.54293727875,-1.64528214931,0.798767745495,0.869666695595,0.98388749361,-0.0973365455866
2017/07/09/10:10:41.286240,462595,1499566244,89394700,,0.826701403871,0.0343256945346,0.179981599141,0.790096310364,0.610060418416,0.0130527941018,0.0583415015,0.0369023961781,-0.21745349313,0.10075238539,-0.00208424351397,-0.0731242059145,-0.362050558085,3.09924936295,-0.708425939083,0.750479221344,0.357237398624,1.15947806835,-0.202398434281
2017/07/09/10:10:41.294106,462596,1499566244,99405724,,0.827204354586,0.0325509459044,0.180977278503,0.79099484562,0.608853164485,0.0133462504836,0.0587099301298,0.0410230096961,-0.215948627743,0.0965127208413,0.0028158993206,-0.0856887721003,-0.361352650986,3.75011181831,-0.195085585117,0.701705873013,0.0819479748607,1.39946317673,-0.283289521933
2017/07/09/10:10:41.304060,462597,1499566244,109395140,,0.827190437722,0.0300627962503,0.181544106343,0.792016225298,0.607494945747,0.013101064959,0.0590639640844,0.0337434437456,-0.229300182842,0.0802967168453,-0.0125222568261,-0.0807385363009,-0.366049708777,4.83741664886,-0.0416657179594,0.648083090782,-0.0766919776797,1.86357545853,-0.340414613485
2017/07/09/10:10:41.313858,462598,1499566244,119400815,,0.827827745611,0.0277519900265,0.182318769746,0.792949705156,0.606211899996,0.0134176854026,0.0596478257308,0.020263549478,-0.235885417501,0.062503186162,-0.0368621084386,-0.0484767387104,-0.363893224291,6.12148189545,-0.215302884579,0.575502634048,0.0617244616151,2.32706260681,-0.356393396854
2017/07/09/10:10:41.323880,462599,1499566244,129398164,,0.827246197721,0.024799368905,0.182437094297,0.794431366521,0.60429122346,0.0128288302546,0.0595511733802,0.0282424308998,-0.240557601126,0.0710867609022,-0.0803845288259,-0.0659372296783,-0.319079785755,5.50329828262,-0.330492198467,0.394781887531,0.250758945942,2.07983589172,-0.327654421329
2017/07/09/10:10:41.334076,462600,1499566244,139402251,,0.827149340964,0.0221213404876,0.18314764109,0.795474211714,0.602879044951,0.0124306105778,0.060025957528,0.0113445843333,-0.277552213064,0.0844521095823,-0.105761183023,-0.0673186658511,-0.366199650094,4.17955207825,-0.213616520166,0.388471901417,0.36938393116,1.5484675169,-0.284363627434
2017/07/09/10:10:41.344016,462601,1499566244,149394766,,0.827779188994,0.019768135185,0.184281537202,0.796376928465,0.601586107753,0.0129229152101,0.0609174936241,0.00263588407746,-0.256028594409,0.0695946547342,-0.0568396118185,-0.0452112555247,-0.387330045938,4.4303984642,-0.582020163536,0.473249912262,0.519699633121,1.63886022568,-0.253232002258
2017/07/09/10:10:41.354221,462602,1499566244,159393525,,0.828177001763,0.0180666130113,0.184974098269,0.797344882223,0.6002782143,0.013501420173,0.061032088959,0.0113019587381,-0.232159370679,0.0719229395252,-0.000900462953894,-0.0756776780532,-0.375756197588,4.75798177719,-0.79788428545,0.718550145626,0.588109254837,1.78819477558,-0.243353635073
2017/07/09/10:10:41.364324,462603,1499566244,169403365,,0.828261577085,0.0157805395907,0.185557317797,0.798423487861,0.598819476802,0.0137845952209,0.0611976565696,0.00337648989056,-0.227403700855,0.0491473388328,0.0236544636443,-0.0490577604759,-0.379841393238,5.74373531342,-0.901910662651,0.903202593327,0.52789491415,2.13265419006,-0.286047428846
2017/07/09/10:10:41.374151,462604,1499566244,179395645,,0.828311909143,0.013961224806,0.186112694011,0.799410145202,0.597505490106,0.0140941451302,0.0610898036773,0.0102918013032,-0.224389979641,0.0753300248925,0.0416583881248,-0.0881980403523,-0.375962782986,5.45804548264,-0.815147399902,1.05948174,0.486329048872,1.9671279192,-0.227694034576
2017/07/09/10:10:41.384067,462605,1499566244,189406688,,0.828336221595,0.0116494501237,0.186630550673,0.800520741542,0.595994602834,0.0142653965706,0.0612656038369,-0.00364691614679,-0.2541549219,0.0739758094611,-0.00268270109738,-0.0644068206787,-0.390134847589,4.13865184784,-0.169869184494,0.799028635025,0.104522757232,1.42948448658,-0.270782321692
2017/07/09/10:10:41.394327,462606,1499566244,199401669,,0.828254063507,0.00891743415108,0.187219525838,0.801812004423,0.594222826968,0.0144056894749,0.0615566209602,-0.0081373126044,-0.252297024708,0.0731186970289,-0.0230505224893,-0.0583201418803,-0.371181521236,4.39949131012,-0.494800925255,0.673652172089,0.210063993931,1.49227547646,-0.233508348465
2017/07/09/10:10:41.403988,462607,1499566244,209392570,,0.827962707454,0.00697939601811,0.18781068565,0.802541005433,0.5932130507,0.0137417744398,0.06194654723,-0.00422471729832,-0.249335384304,0.0629367623998,-0.0122549009096,-0.0689610016968,-0.396682830847,4.67584848404,-0.615441083908,0.459700584412,0.330407947302,1.55941951275,-0.221532851458
2017/07/09/10:10:41.414012,462608,1499566244,219399995,,0.827495352137,0.00353534348513,0.188453532768,0.803955335483,0.591270103217,0.0138252240936,0.062163870294,-0.0114271466464,-0.236534286384,0.0583914241023,-0.0307660364415,-0.042866384421,-0.349982000689,4.87511110306,-0.860426723957,0.322836488485,0.496510326862,1.60512256622,-0.207199633121
2017/07/09/10:10:41.424196,462609,1499566244,229400096,,0.827497921866,0.0016002989433,0.18888977902,0.804869445439,0.58999934322,0.013733992616,0.0624285851574,-0.0315852357297,-0.258028035522,0.0427940602743,-0.0576422181851,-0.00413570538302,-0.352648258038,5.061647892,-1.12331497669,0.37073469162,0.67160731554,1.6242827177,-0.200560107827
2017/07/09/10:10:41.434214,462610,1499566244,239392574,,0.826940222418,-0.000357602038531,0.189096887701,0.805561968481,0.589074098616,0.0130904436155,0.0623719613476,-0.0475109207863,-0.24128808132,0.0317821278013,-0.0159828385684,0.0338594675752,-0.35667931754,5.71407556534,-1.20340168476,0.433444976807,0.725931882858,1.85423243046,-0.241633459926
2017/07/09/10:10:41.443914,462611,1499566244,249401657,,0.826383641052,-0.00331922095933,0.189740133099,0.806727818344,0.587461559261,0.0130268718039,0.0625255476721,-0.0508037322748,-0.242792812444,0.0294333455938,-0.00600551257544,0.0377834403839,-0.355869927699,5.34985971451,-1.08328902721,0.36383703351,0.69011092186,1.69413781166,-0.205896809697
2017/07/09/10:10:41.454116,462612,1499566244,259411505,,0.825847377753,-0.00516537520024,0.189480639653,0.807821886282,0.586013956004,0.0128808400952,0.0620123162768,-0.0586019889771,-0.24110533702,0.0277976572134,0.00475088728784,0.0471128025769,-0.363726563272,4.53947305679,-0.788382411003,0.335247129202,0.536981701851,1.43501377106,-0.227102652192
2017/07/09/10:10:41.464062,462613,1499566244,269407088,,0.825318476389,-0.00833926724073,0.189911276828,0.809221574688,0.584040696959,0.0125881524364,0.0624375349774,-0.0744238488662,-0.265047813598,0.0252024637258,-0.0267440434628,0.0652446661545,-0.387834819642,4.3557767868,-0.595052421093,0.361130744219,0.400240182877,1.43192541599,-0.238533422351
2017/07/09/10:10:41.474125,462614,1499566244,279397614,,0.824146823708,-0.00996976015742,0.189621008705,0.809680663575,0.583491442456,0.0114295596599,0.0618411253006,-0.0688458504514,-0.231399653412,0.0180442253438,-0.00649225301371,0.0727128326007,-0.361325935479,5.18575954437,-0.835141181946,0.536515235901,0.539138317108,1.80595600605,-0.229867175221
2017/07/09/10:10:41.484195,462615,1499566244,289398251,,0.823282620281,-0.0122800838291,0.190037460806,0.810802801873,0.581975053785,0.0110426989031,0.0614972523655,-0.0832797213698,-0.246381846922,0.0218161636918,-0.0406895384757,0.092702342903,-0.346242406792,5.66466474533,-1.05713772774,0.638310849667,0.535651504993,2.0587720871,-0.263421058655
2017/07/09/10:10:41.494118,462616,1499566244,299400805,,0.822089860372,-0.0148360703528,0.190095022764,0.8117905348,0.580641492778,0.0101039814468,0.0612331122275,-0.105892387594,-0.267188990989,0.0155878687464,-0.0403026715929,0.127408301973,-0.382095254046,5.73007488251,-0.957666993141,0.734368503094,0.575073599815,2.07822108269,-0.24074229598
2017/07/09/10:10:41.504192,462617,1499566244,309392298,,0.820661458459,-0.0175453045437,0.189567871721,0.812856020313,0.579225694671,0.00884872664156,0.0606991343483,-0.114037133795,-0.275335486605,0.00973573693021,-0.0755906290804,0.150106142285,-0.380224042728,5.56075429916,-1.26006138325,0.706155359745,0.647313058376,2.00639152527,-0.253256917
2017/07/09/10:10:41.513919,462618,1499566244,319398595,,0.820074172769,-0.0196544767416,0.189809184065,0.813619849978,0.578143924821,0.00830111638423,0.0608558409774,-0.131476797272,-0.272567732541,-0.0101793373971,-0.0636529967907,0.202496728595,-0.369288575579,4.74157953262,-1.16881477833,0.625259160995,0.677916049957,1.63747167587,-0.206402122974
2017/07/09/10:10:41.523890,462619,1499566244,329403166,,0.818297213771,-0.023090223158,0.18952131487,0.815020061097,0.576205732965,0.00647164244934,0.0607237280816,-0.138491321715,-0.262524407522,-0.0203763754756,-0.0638496109838,0.224010768722,-0.357702551471,4.40772485733,-0.966327607632,0.434458702803,0.559830069542,1.44720137119,-0.224016427994
2017/07/09/10:10:41.534320,462620,1499566244,339398630,,0.816877266187,-0.0254687638167,0.189707753198,0.815930214296,0.574986719749,0.00564462875948,0.0601356439773,-0.135779629746,-0.244859595111,-0.017846857651,-0.0574550152414,0.222888971391,-0.319391500111,3.4492251873,-0.69698882103,0.383949041367,0.588750600815,1.00223243237,-0.161213338375
2017/07/09/10:10:41.544269,462621,1499566244,349400600,,0.81533517117,-0.0279123681594,0.188844587621,0.816725834111,0.573926811615,0.00401806922902,0.0595884378412,-0.176132863993,-0.291567320945,-0.030066540516,-0.0600500320327,0.285096930161,-0.388712814659,4.01578330994,-0.88230574131,0.410462856293,0.586324810982,1.24672281742,-0.203157246113
2017/07/09/10:10:41.553832,462622,1499566244,359393778,,0.814583670273,-0.0293809001328,0.188954165772,0.81728609876,0.57315801903,0.00348191644014,0.0593396516113,-0.16756490953,-0.275623012706,-0.030087700133,-0.0788020425268,0.27446779305,-0.369737088486,3.63055920601,-0.63836991787,0.252613395452,0.515003859997,1.10882210732,-0.21020296216
2017/07/09/10:10:41.564269,462623,1499566244,369395769,,0.812571724431,-0.0327025696493,0.188536195356,0.818524952525,0.571429529092,0.00162946597224,0.0590130512383,-0.153949226026,-0.247685659615,-0.034009309059,-0.0550152401636,0.250914823114,-0.346183258555,4.04986763,-0.653886556625,0.428298294544,0.478286594152,1.3660094738,-0.221969753504
2017/07/09/10:10:41.573843,462624,1499566244,379392755,,0.811083038155,-0.0352845570406,0.188126754207,0.819486805373,0.57011282152,0.00072701475071,0.0584141935435,-0.161833479924,-0.294326799209,-0.0351391469602,-0.0891013396887,0.237010163237,-0.385696058228,4.55857563019,-0.979315161705,0.530254781246,0.622524559498,1.64850354195,-0.266692101955
2017/07/09/10:10:41.584224,462625,1499566244,389397228,,0.80828296918,-0.0389446214112,0.187353364159,0.820807139354,0.568273939155,-0.00202491066863,0.0577604518639,-0.167680471856,-0.291398039985,-0.0394856302815,-0.0830462115525,0.248383337439,-0.374839959991,4.57161188126,-0.904114246368,0.516704261303,0.57050126791,1.69700324535,-0.252991199493
2017/07/09/10:10:41.594124,462626,1499566244,399425713,,0.807532411868,-0.0409100877788,0.18705208258,0.821483561855,0.567299670675,-0.00254437818059,0.0577006706539,-0.1613643925,-0.260880225848,-0.0449566749605,-0.0865217168503,0.26207078648,-0.3348963136,5.10480737686,-1.4048781395,0.746905565262,0.785815477371,1.98190367222,-0.252414375544
2017/07/09/10:10:41.603986,462627,1499566244,409399782,,0.806220324726,-0.0434777150359,0.186854946411,0.822271022136,0.56616930985,-0.00362070117899,0.0575288559089,-0.160171774075,-0.264879217953,-0.0509487014793,-0.0814211161579,0.255722678098,-0.32199681673,5.08214235306,-1.34934926033,0.54817545414,0.763144016266,1.94749200344,-0.274481624365
2017/07/09/10:10:41.614038,462628,1499566244,419393556,,0.804595633806,-0.0459940655654,0.186207461778,0.823195982768,0.56487328398,-0.00477504902333,0.0569538928257,-0.168626548535,-0.265101954376,-0.0509561506948,-0.0843754086891,0.269030380487,-0.33561628413,4.529774189,-1.12105607986,0.467043399811,0.659731864929,1.68828892708,-0.258002966642
2017/07/09/10:10:41.623915,462629,1499566244,429393873,,0.802807044951,-0.0489146274121,0.184996465571,0.82400589006,0.563712639016,-0.00655669111806,0.0565629168466,-0.173569280824,-0.271491780232,-0.0678008437716,-0.0877662586269,0.275416496021,-0.356359253309,4.86827611923,-1.20393657684,0.332209229469,0.635668039322,1.77185249329,-0.293943017721
2017/07/09/10:10:41.634840,462630,1499566244,439406784,,0.801313428805,-0.0513947232416,0.184693421196,0.824960822687,0.562314065733,-0.00776102328633,0.0564118695737,-0.186628818647,-0.287755547993,-0.0716753632173,-0.0823310700951,0.284143047278,-0.36472277043,4.78556680679,-1.33015024662,0.220872104168,0.724690973759,1.67843830585,-0.238629370928
2017/07/09/10:10:41.644142,462631,1499566244,449406756,,0.800038177364,-0.0532411741381,0.184255407084,0.825550457195,0.561500198529,-0.00841252827995,0.0557960486526,-0.164605735091,-0.257563621978,-0.067197059373,-0.081522069733,0.256159176757,-0.301200035962,4.6787648201,-1.33771002293,0.34355738759,0.699426352978,1.65980064869,-0.259804993868
2017/07/09/10:10:41.654288,462632,1499566244,459400084,,0.798486862079,-0.0555298093446,0.183256610736,0.826652820055,0.559920514453,-0.00960561300121,0.0551531031601,-0.157270407756,-0.261483441415,-0.077197156763,-0.0524835994206,0.216249044528,-0.331623657581,3.67509031296,-0.948589503765,0.247443392873,0.510138809681,1.30556261539,-0.255213111639
2017/07/09/10:10:41.664202,462633,1499566244,469394081,,0.797186864021,-0.0578970304305,0.18231841366,0.827375590122,0.558845223134,-0.0107576699538,0.0550083810688,-0.130058798136,-0.228549847962,-0.0749131521636,-0.0365382064487,0.166120078229,-0.30335748322,2.93793535233,-0.638599157333,0.387123793364,0.468969374895,1.01185548306,-0.228477805853
2017/07/09/10:10:41.674174,462634,1499566244,479401685,,0.795356708301,-0.0609028552203,0.181372916343,0.828523678603,0.557165530963,-0.0117933580638,0.0545527433431,-0.135010681797,-0.268692860308,-0.0707625484641,-0.0632761160959,0.138243674897,-0.32911601803,-0.796692371368,-1.81049275398,-0.392250210047,0.451361805201,-0.140557229519,-0.108243718743
2017/07/09/10:10:41.683962,462635,1499566244,489397444,,0.795234256734,-0.0617064315768,0.180775363614,0.828576749937,0.55712369664,-0.0113632424414,0.0542644711415,-0.122189722294,-0.234409719992,-0.0723779789269,-0.0281535374127,0.120889936333,-0.286953630576,-1.15161108971,-0.549441456795,-0.308964699507,0.171622663736,-0.269069463015,-0.110579259694
2017/07/09/10:10:41.694180,462636,1499566244,499407521,,0.794194627557,-0.064601704705,0.180635140483,0.829558831029,0.555617485022,-0.0117232605557,0.054625281351,-0.0939330775141,-0.210279431788,-0.0669738476414,-0.0024692276692,0.0566389198789,-0.266843263645,-0.504731059074,-0.409008860588,0.236849635839,0.177606791258,0.0240032151341,-0.125190541148
2017/07/09/10:10:41.703912,462637,1499566244,509394807,,0.79296780671,-0.0663821175838,0.179827214226,0.830428109009,0.554407531898,-0.0117647607172,0.0536938986162,-0.0952103750723,-0.197757109443,-0.0674671732231,0.0172389117512,0.0584492751543,-0.258600287465,-0.470464468002,-0.784028351307,0.415574550629,0.248244524002,0.0145892426372,-0.0868238955736
2017/07/09/10:10:41.714045,462638,1499566244,519401135,,0.791805462506,-0.0686306479851,0.179239251842,0.831124481011,0.553333678319,-0.0127057577201,0.0537819786101,-0.109753063351,-0.192191408434,-0.0745616624094,0.0314162348076,0.0959600036578,-0.27361714803,0.20299294591,-0.953612923622,0.414769619703,0.322449117899,0.290962308645,-0.133296102285
2017/07/09/10:10:41.724131,462639,1499566244,529411927,,0.790152977001,-0.0706816757082,0.178119021496,0.831931578864,0.552181426977,-0.0135406987258,0.0529355199246,-0.128902361828,-0.220005684333,-0.0736674727035,0.0193360191985,0.114894330881,-0.298548512312,-0.135858207941,-0.601281285286,0.347903072834,0.187780871987,0.120196841657,-0.155192524195
2017/07/09/10:10:41.734142,462640,1499566244,539393480,,0.789206321384,-0.0720857967244,0.176870645089,0.832615776321,0.551224002558,-0.0137663180944,0.0520918084893,-0.128189841895,-0.183825198789,-0.078708558828,0.0520079454175,0.140418622646,-0.276227686773,0.750897407532,-0.615453839302,-0.338549137115,0.166278943419,0.425918221474,-0.2066013515
2017/07/09/10:10:41.743927,462641,1499566244,549409503,,0.788369194583,-0.0736943886374,0.176628873439,0.833461793485,0.549992177909,-0.0134877817893,0.0516538747968,-0.114682600219,-0.175717194175,-0.0785694077573,0.0791664016238,0.100195956327,-0.283473616201,2.02200317383,-1.11409044266,0.52600902319,0.280647754669,0.902613937855,-0.273653745651
2017/07/09/10:10:41.753900,462642,1499566244,559430748,,0.787721679366,-0.0743657028894,0.175928430063,0.833652413775,0.549741517149,-0.0138109302213,0.0511583378881,-0.107714064753,-0.161678545421,-0.0633999520511,0.0837722399562,0.0907549120717,-0.257949083103,2.47651076317,0.178974345326,0.338414877653,-0.308903753757,1.12785625458,-0.318341314793
2017/07/09/10:10:41.764067,462643,1499566244,569391840,,0.786404755207,-0.0770747247981,0.175801848551,0.834784453891,0.54799530646,-0.0143983353986,0.051271313393,-0.113413063499,-0.157140670717,-0.0927694925087,0.0780492422262,0.122324197926,-0.252294528207,4.96027994156,-0.0383897423744,1.39543843269,-0.388430655003,2.09248280525,-0.477185070515
2017/07/09/10:10:41.774296,462644,1499566244,579394841,,0.785754865506,-0.0772295108887,0.174508156393,0.834899357847,0.547929680951,-0.0144496615656,0.0500732890986,-0.102479055573,-0.165968378862,-0.0706471555252,0.0281648044124,0.0982193156378,-0.241000142459,4.35078048706,0.492544531822,0.551755070686,-0.492601841688,1.83161568642,-0.436893701553
2017/07/09/10:10:41.784075,462645,1499566244,589392612,,0.784653113074,-0.0792697680814,0.173825386497,0.835749202367,0.546619166125,-0.015091584175,0.0500300115341,-0.100427400272,-0.148581121856,-0.0693208782556,0.0495592392658,0.103200559471,-0.222954428195,3.55138444901,0.00664278864861,0.367918789387,-0.22277161479,1.47717750072,-0.369326502085
2017/07/09/10:10:41.794143,462646,1499566244,599399799,,0.784021110814,-0.080860587571,0.173558080546,0.836234437474,0.5458978644,-0.0149597393576,0.0498366674641,-0.102465158356,-0.173446186964,-0.0637048988585,0.0350122040697,0.0782033185251,-0.231806691666,2.67056822777,-1.08191585541,0.5099401474,0.253365904093,1.103276968,-0.277556300163
2017/07/09/10:10:41.803950,462647,1499566244,609402571,,0.782930399182,-0.0825669660102,0.172921421986,0.836967791891,0.544774189311,-0.0155890008746,0.0496284298385,-0.0879401512544,-0.151758697603,-0.0564479346244,0.0433317397154,0.0551358799959,-0.21138665998,2.09128165245,-1.2643225193,0.481606066227,0.479739367962,0.850576996803,-0.229906514287
2017/07/09/10:10:41.814112,462648,1499566244,619393298,,0.782376739056,-0.0835109783266,0.172518074275,0.837199968943,0.544454989297,-0.0154399908503,0.0492603625069,-0.0774949991569,-0.152924414001,-0.0518472320673,0.0264474384782,0.0362497514354,-0.218942219891,2.21160006523,-0.714683294296,0.253564357758,0.327587157488,0.891097545624,-0.250518649817
2017/07/09/10:10:41.823882,462649,1499566244,629393858,,0.780947403473,-0.0860003000684,0.171669370562,0.838275147275,0.542845780425,-0.0157421869442,0.0486355804515,-0.0966584412067,-0.148693791858,-0.0703254097277,0.0519618348121,0.0855058420512,-0.2231152305,1.83377456665,-1.3355050087,0.455210715532,0.38323110342,0.760463953018,-0.208002686501
2017/07/09/10:10:41.834063,462650,1499566244,639401316,,0.78038795613,-0.0861587822592,0.171528368385,0.838522473847,0.542503228108,-0.0159570924482,0.0481215081428,-0.0946623698197,-0.146862602182,-0.0454484279854,0.041587533374,0.0742957468935,-0.234969756984,1.46341001987,-0.596639931202,0.549726426601,0.125576257706,0.580112814903,-0.250477522612
2017/07/09/10:10:41.843900,462651,1499566244,649401608,,0.779845315129,-0.0873270497611,0.170822458377,0.839027847943,0.54174497222,-0.0160051733008,0.0478381633937,-0.077643634649,-0.100689060996,-0.04754497101,0.0525239279848,0.0804965880588,-0.166911021068,1.73006331921,-0.41884419322,0.138814538717,0.0325177609921,0.687072694302,-0.237258121371
2017/07/09/10:10:41.854105,462652,1499566244,659398111,,0.778887225298,-0.0889557707508,0.170958138119,0.839694579668,0.540721064201,-0.016180735064,0.0476647397865,-0.0828265732579,-0.126645120394,-0.0482683331182,0.0377086346992,0.0686371498351,-0.184704647158,2.59503078461,-0.975391864777,0.280560910702,0.177646696568,1.00958049297,-0.297914713621
2017/07/09/10:10:41.863863,462653,1499566244,669400023,,0.777935036104,-0.0895555639466,0.170096884924,0.839910174056,0.540414393694,-0.0169995142784,0.0470552772845,-0.0828834808662,-0.110766948633,-0.0496479703188,0.039055748652,0.0857520813693,-0.174811148216,2.84898686409,-0.794686198235,0.594407021999,0.163115248084,1.07740616798,-0.28505346179
2017/07/09/10:10:41.874193,462654,1499566244,679401096,,0.77746476027,-0.0901691366126,0.169472582585,0.840332529764,0.539811655411,-0.0167707324874,0.0465119192851,-0.0815914321701,-0.109720377913,-0.0420269735355,0.0309617046528,0.0838519770632,-0.165666309786,2.77998971939,-0.666613578796,0.296583533287,0.0836083590984,0.979626536369,-0.28790384531
2017/07/09/10:10:41.884125,462655,1499566244,689393337,,0.776787435843,-0.0913296553744,0.168922031469,0.840654958056,0.5393123406,-0.0172438591772,0.0463043204602,-0.0775693121198,-0.0992303599425,-0.0387897908056,0.047558930847,0.0728527368174,-0.1512890857,2.74498820305,-0.987283825874,0.117750458419,0.238008961082,0.945423960686,-0.268914461136
2017/07/09/10:10:41.894165,462656,1499566244,699397589,,0.77553913256,-0.0932192010862,0.168903908665,0.841235982354,0.538398759634,-0.0178305836518,0.0461613247598,-0.0584983141124,-0.100170308221,-0.0337734136806,0.0346917660594,0.0295001385074,-0.150392529685,1.02970075607,-1.2429972887,0.22539934516,0.229883506894,0.349799543619,-0.202458038926
2017/07/09/10:10:41.904038,462657,1499566244,709392174,,0.775428658811,-0.0941633057054,0.168766850939,0.841780427319,0.537561864855,-0.0172898263919,0.0461954060504,-0.08390134294,-0.13462061053,-0.0325744996601,0.0303632867458,0.0466148108512,-0.207227485931,1.43640494347,-0.483556628227,0.171100765467,0.0136053413153,0.465720593929,-0.250688582659
2017/07/09/10:10:41.914047,462658,1499566244,719403355,,0.774828674363,-0.0948517938552,0.168346760366,0.841962199953,0.537298035923,-0.0175179470969,0.0458649754488,-0.0572110181604,-0.109528501807,-0.0340838981898,0.0288295442803,0.0139092485809,-0.163205195853,2.07120394707,-1.13648831844,0.356270819902,0.167897820473,0.771027028561,-0.240832194686
2017/07/09/10:10:41.924184,462659,1499566244,729399361,,0.773908947662,-0.0959765842364,0.167630360952,0.842407192417,0.536622470005,-0.0179699986542,0.045426049772,-0.0545308948666,-0.0876240926534,-0.0452718570122,0.0193784975455,0.0487835980897,-0.127281191484,2.37132430077,-0.785458922386,0.385431170464,0.0836997032166,0.910232067108,-0.309588134289
2017/07/09/10:10:41.934240,462660,1499566244,739406199,,0.77428713948,-0.0967494530298,0.168281058564,0.842685983196,0.536166867105,-0.0170395481135,0.0459899787242,-0.0488867574034,-0.0788171804814,-0.0372192340872,0.0219943693384,0.03769247208,-0.101712554933,2.8332297802,-0.871605396271,0.967027008533,0.153526008129,1.00002622604,-0.290696144104
2017/07/09/10:10:41.943791,462661,1499566244,749397668,,0.772796002305,-0.0979992534618,0.166849463887,0.843368134641,0.535132553624,-0.0181607526135,0.0450946403417,-0.0651575200146,-0.0795424506922,-0.0383397472235,0.0383416246288,0.0705173053021,-0.11214758927,1.44599032402,-0.547952651978,0.139477998018,0.0121146887541,0.481595873833,-0.234270662069
2017/07/09/10:10:41.954224,462662,1499566244,759396600,,0.772621979397,-0.0976132672887,0.166809576184,0.843299351434,0.535288281587,-0.0180982684808,0.04455459734,-0.068652382194,-0.103871088896,-0.0394586465538,0.0164648726949,0.0554355191544,-0.171611818178,2.16265559196,-0.708795309067,0.0761795938015,0.166039377451,0.735611438751,-0.262480974197
2017/07/09/10:10:41.964118,462663,1499566244,769401442,,0.771725441865,-0.0991316224548,0.166459211469,0.843666910316,0.534697543574,-0.0186333811905,0.0444688479669,-0.0671921916188,-0.100395165086,-0.0411378177762,0.0113457241693,0.0607922707396,-0.163904727607,1.64644682407,-0.564909100533,0.213166639209,0.0428774356842,0.518783211708,-0.24180008471
2017/07/09/10:10:41.973921,462664,1499566244,779391835,,0.771171138827,-0.0997560092987,0.166424873122,0.843769632897,0.534530209767,-0.0189379541423,0.0444028753696,-0.0730523506589,-0.096115059261,-0.0295065245531,-0.000529766838183,0.0849601053553,-0.112153193467,1.38257396221,-0.206735521555,0.376970946789,-0.173063784838,0.407929956913,-0.257332146168
2017/07/09/10:10:41.983920,462665,1499566244,789392470,,0.770407307607,-0.100354498475,0.165709256635,0.844179976705,0.533914104795,-0.0194577077333,0.0437869071916,-0.076317340957,-0.103012670159,-0.0318652193838,-0.00938431120482,0.0875208369721,-0.136091009867,0.641242921352,0.137396723032,0.456758707762,-0.21743991971,0.0213701352477,-0.202311918139
2017/07/09/10:10:41.994057,462666,1499566244,799403407,,0.769787848115,-0.101466155509,0.165483341881,0.844722829615,0.533046124952,-0.0197177509513,0.0437764788279,-0.0571336006104,-0.0804573205115,-0.0282538171509,-0.0157312590322,0.0644950471103,-0.127025772405,0.831676959991,-0.159580439329,0.44096621871,-0.19858828187,0.0752544477582,-0.178414911032
2017/07/09/10:10:42.004094,462667,1499566244,809394392,,0.768786924797,-0.102693523615,0.164937680621,0.844801196871,0.532892167897,-0.0206603786837,0.0437038203278,-0.0694672054218,-0.0948667212325,-0.0234526057161,-0.0367169339314,0.0842022286769,-0.110971648065,0.720845341682,-0.62697827816,-0.116589926183,-0.0273464024067,-0.0184108912945,-0.152167260647
2017/07/09/10:10:42.014260,462668,1499566244,819395285,,0.768303848626,-0.10375464688,0.165138874309,0.84526502221,0.532120612974,-0.0209887572329,0.0439791717333,-0.0891016260686,-0.0962830309857,-0.0383332384243,-0.0141052959782,0.133560916627,-0.114698740294,1.73502790928,-1.18029606342,0.532659351826,0.240972533822,0.278886556625,-0.159258872271
2017/07/09/10:10:42.024287,462669,1499566244,829397046,,0.768151320445,-0.10365424085,0.164968375341,0.845256060002,0.532173603902,-0.0208098410232,0.043593564391,-0.0870288450026,-0.10860011156,-0.0261879213909,-0.0285431363776,0.111277318267,-0.140838954223,1.9181599617,-0.167863994837,0.148660391569,-0.0112565234303,0.28141233325,-0.201461970806
2017/07/09/10:10:42.034161,462670,1499566244,839401689,,0.766437140356,-0.106144869799,0.164286012425,0.84615475673,0.530742108337,-0.0216884791502,0.0431804582347,-0.0825180229667,-0.10413071414,-0.0343155161732,-0.00860071683206,0.0980025141472,-0.159987151448,0.444044232368,-0.703305602074,0.0215519145131,-0.0319088250399,-0.187156528234,-0.15163269639
2017/07/09/10:10:42.044182,462671,1499566244,849428560,,0.766663395418,-0.10620628098,0.164333850727,0.846146501837,0.530746375037,-0.0215615076226,0.0433530183789,-0.0534856418825,-0.091754936874,-0.0228954840272,-0.00381086693157,0.0378381548642,-0.131939190746,-0.833480238914,1.06606602669,0.0396100357175,-0.491470932961,-0.796469926834,-0.0906933695078
2017/07/09/10:10:42.054146,462672,1499566244,859400389,,0.765751453648,-0.106451645665,0.163585637082,0.846341404092,0.53048048289,-0.0220931911292,0.0425273547053,-0.0448953639467,-0.0482085568455,-0.025747257052,0.0310671468631,0.0494345859416,-0.086216617433,-1.35423529148,1.33201515675,-0.395693421364,-0.653889238834,-0.916229248047,-0.084163159132
2017/07/09/10:10:42.064262,462673,1499566244,869396377,,0.76496803843,-0.108234373075,0.163672572751,0.847039426787,0.529324786811,-0.0224336807782,0.0428510151839,-0.054849395276,-0.0712206047288,-0.0382109851433,0.0131078087728,0.0640190949296,-0.100223508364,-1.22737669945,0.188596516848,0.346707910299,-0.32263469696,-0.859723329544,-0.0852576717734
2017/07/09/10:10:42.073998,462674,1499566244,879402098,,0.765095533224,-0.107612525419,0.163032011486,0.846751629009,0.529854483451,-0.022034521269,0.0421946087834,-0.0489410081881,-0.0661107927824,-0.0322545418089,0.0287021970181,0.0389824627011,-0.11892148451,-0.18115542829,0.20864289999,0.39014840126,-0.227125704288,-0.520454287529,-0.125454455614
2017/07/09/10:10:42.084076,462675,1499566244,889392845,,0.764376719303,-0.108861217656,0.162764975256,0.8470934003,0.529275971151,-0.0225875640784,0.0423027124419,-0.0414372483058,-0.06575059991,-0.0181492329356,0.013740494467,0.022844588131,-0.0979339985851,-1.62287831306,-0.227383688092,0.563284933567,-0.0379960089922,-1.05415046215,-0.00655198097229
2017/07/09/10:10:42.094058,462676,1499566244,899396674,,0.764388520463,-0.109430231576,0.163042735511,0.847663555832,0.528363777091,-0.0222068488171,0.0424861275863,-0.0557046415079,-0.0825900863898,-0.025686961174,0.0170172714413,0.0313530965055,-0.119618632837,1.91668772697,-0.927370548248,0.291833609343,0.374815881252,0.188982218504,-0.144668594003
2017/07/09/10:10:42.104087,462677,1499566244,909397456,,0.763897136941,-0.10908123934,0.161932222173,0.847734363223,0.528363611461,-0.0219562495251,0.0411857572726,-0.038977178069,-0.0741705076756,-0.027656587594,0.00298875803994,0.0174613710208,-0.104703118258,1.87679040432,0.0592951476574,-0.0472588166595,0.0554345324636,0.20631223917,-0.163974821568
2017/07/09/10:10:42.114211,462678,1499566244,919417667,,0.76346692292,-0.109832628618,0.162207808502,0.847878201394,0.52808793331,-0.0224464151549,0.0414951652503,-0.0289033305012,-0.0249124965181,-0.0306235328584,0.0424897327582,0.0413168430974,-0.0413564803066,2.4229118824,-0.486767232418,0.223012626171,0.14124211669,0.479183971882,-0.197087481618
2017/07/09/10:10:42.124044,462679,1499566244,929393693,,0.762879269115,-0.111365623295,0.161555203986,0.848288878441,0.527421749698,-0.0225493603575,0.0415187067051,-0.0478169511292,-0.0672611498435,-0.0408105114785,0.0216947745176,0.0468023688647,-0.0947587055033,1.69763016701,-0.970110237598,-0.197632759809,0.226718097925,0.290728598833,-0.176614433527
2017/07/09/10:10:42.134169,462680,1499566244,939400930,,0.762465394751,-0.111379497539,0.16116441164,0.848409415231,0.52724721439,-0.0228645966928,0.0410980447569,-0.0416573696479,-0.0722403454113,-0.0341334821571,0.0265958190303,0.0184933618119,-0.112475980439,0.675771534443,-0.196892112494,-0.430783390999,-0.030397772789,-0.0792614594102,-0.151653051376
2017/07/09/10:10:42.144217,462681,1499566244,949420161,,0.762267522226,-0.112006575367,0.161255283117,0.848553408093,0.527002145313,-0.0229035369639,0.0412465809901,-0.0405532901418,-0.0876594387968,-0.0337353004972,0.00420199684717,0.0059335830644,-0.125836992409,-2.131731987,1.22920501232,-0.178648725152,-0.444572746754,-1.222027421,-0.0381638035178
2017/07/09/10:10:42.154149,462682,1499566244,959401629,,0.761946539445,-0.112560844975,0.160733552757,0.848898034916,0.526470990329,-0.0228221367334,0.0409825906043,-0.0303423009551,-0.0492912773336,-0.0318846094453,0.0207278264995,0.0227088820664,-0.0697584257767,-1.38787341118,0.639089226723,-0.0431125462055,-0.287967145443,-0.910599887371,-0.0344159901142
2017/07/09/10:10:42.164104,462683,1499566244,969403972,,0.761938432225,-0.11272315829,0.160645593134,0.849020503622,0.52629871531,-0.0225230828837,0.040823491148,-0.0287199902179,-0.0219074239898,-0.0331907507055,0.0312104968679,0.0463739017508,-0.0502321549556,-0.572353899479,0.776500344276,-0.161801621318,-0.305091738701,-0.666261613369,-0.120500594378
2017/07/09/10:10:42.174173,462684,1499566244,979397864,,0.760889868784,-0.114503412327,0.160324888553,0.849475659735,0.525524898961,-0.0232239535068,0.040930820582,-0.0454512838173,-0.0515801217128,-0.0404858989461,0.0311194027529,0.0572201862003,-0.0901674438922,-1.00148522854,-0.0598367750645,0.270350515842,-0.135852426291,-0.775668144226,-0.0759962797165
2017/07/09/10:10:42.184141,462685,1499566244,989396202,,0.761241885778,-0.113956315843,0.160083383687,0.849371255322,0.52573446627,-0.0227502414657,0.0406714656958,-0.0448855140904,-0.07290212377,-0.0242335611534,0.00186175302691,0.036434159778,-0.0933114258287,-1.48424112797,1.01956009865,-0.42166736722,-0.329519629478,-1.05704784393,-0.0482698008418
2017/07/09/10:10:42.194090,462686,1499566244,999402104,,0.760468883769,-0.114966853417,0.159619722806,0.849825949347,0.525012492873,-0.02307296114,0.0403159597126,-0.0403204375908,-0.0524371145018,-0.0367914296307,0.00338118492837,0.0520377837197,-0.0890301001699,-1.28528833389,0.1376491189,-0.384089708328,-0.15325191617,-0.874474942684,-0.0749165564775
2017/07/09/10:10:42.204219,462687,1499566245,9400570,,0.760041868909,-0.115352715839,0.158707799721,0.849756476255,0.525091259653,-0.0239233556397,0.0402588270277,-0.0399658308572,-0.043123971929,-0.0482793478822,0.00269957504008,0.0666279340399,-0.0562683732001,-0.996528625488,0.61263012886,-0.328316539526,-0.258536994457,-0.764809966087,-0.0843078643084
2017/07/09/10:10:42.214103,462688,1499566245,19401329,,0.759507062105,-0.115784157444,0.159105394349,0.849943755122,0.524788171433,-0.0241140175839,0.0401435226361,-0.0339765633655,-0.052433090061,-0.0319951381752,-0.0168085262452,0.0460059939402,-0.06426158943,-1.80066263676,0.648908376694,-0.118902347982,-0.356368601322,-1.03470611572,-0.0848137661815
2017/07/09/10:10:42.223980,462689,1499566245,29393093,,0.759158835871,-0.115871482604,0.158142634062,0.849911058681,0.524869376315,-0.0243646292817,0.0396193762927,-0.0391740757359,-0.0502599314349,-0.0309050812421,0.00644599292615,0.0502550439754,-0.0659672634554,-1.38141787052,0.673802852631,-0.24764662981,-0.295158326626,-0.931411385536,-0.0661073178053
2017/07/09/10:10:42.234250,462690,1499566245,39399263,,0.758541622661,-0.116506576769,0.15784398419,0.850273737006,0.524285761888,-0.0247098709361,0.0393501501605,-0.0300110737109,-0.0387751166206,-0.0351854709637,0.0365671991783,0.0294351745347,-0.0607267493779,-1.50300240517,0.44481036067,-0.385563820601,-0.319086074829,-0.875378966331,-0.0908537060022
2017/07/09/10:10:42.244262,462691,1499566245,49394257,,0.758917666608,-0.116687639624,0.157335499135,0.850394200117,0.524095554741,-0.024268730859,0.0395548051485,-0.0240571682414,-0.0297109771316,-0.0519130518344,0.0306110255839,0.0402565318325,-0.0415038480634,1.1808078289,-0.379753738642,-0.379700988531,0.0946544781327,0.077113263309,-0.159935966134
2017/07/09/10:10:42.254296,462692,1499566245,59417558,,0.758107989275,-0.11670460466,0.156518304151,0.850363658736,0.52420215131,-0.0247396389521,0.0384928919028,-0.0190909718785,-0.0195381694486,-0.0431318027272,0.0163374241146,0.041028478914,-0.0339881419156,-1.62923455238,0.589724779129,-0.294798284769,-0.313052207232,-0.975591361523,-0.0792810842395
2017/07/09/10:10:42.264232,462693,1499566245,69395299,,0.758210381937,-0.117295824153,0.156548913262,0.850503113779,0.523951672669,-0.0246500846589,0.0388776476403,-0.0183975124268,-0.020408248607,-0.0287181540807,0.0235093444568,0.0233030528074,-0.0326945315962,-0.927805066109,0.455837517977,-0.284960150719,-0.246356785297,-0.710492730141,-0.116913624108
2017/07/09/10:10:42.273923,462694,1499566245,79399797,,0.757735248505,-0.117439056895,0.15582317574,0.850940581539,0.523269027201,-0.0248937610456,0.0383399598765,-0.0318540228898,-0.0300087066883,-0.0443554702264,0.0458988499043,0.0406500361425,-0.0641706674898,-0.971469342709,0.464491426945,-0.267750382423,-0.212781667709,-0.639695048332,-0.120001986623
2017/07/09/10:10:42.284449,462695,1499566245,89394080,,0.75755067949,-0.11825381787,0.156201261053,0.851073486234,0.523015293194,-0.0250066815008,0.0387761523844,-0.027923850285,-0.0290110195514,-0.0333373345641,0.0292033662418,0.0333457885323,-0.0427591328308,-0.367863357067,-0.242084562778,0.280578255653,0.0334881991148,-0.382099241018,-0.152836948633
2017/07/09/10:10:42.294135,462696,1499566245,99400665,,0.757653609851,-0.11817706464,0.155302490052,0.850810631716,0.523464974969,-0.0249008250025,0.0385439729914,-0.0212393385515,-0.0287974902607,-0.0290001325494,0.0242133857689,0.0204969387581,-0.0464534883428,0.104536890984,-0.00120767951012,0.15117624402,0.0570375621319,-0.25213521719,-0.149164542556
2017/07/09/10:10:42.304212,462697,1499566245,109401332,,0.757947241168,-0.117920516308,0.155453368627,0.850794869457,0.523511804588,-0.0244953736946,0.0385156751381,-0.0178224838741,0.000235068228312,-0.052936427666,0.0370842803158,0.0586195733565,0.00744485062978,1.55740964413,-0.391443818808,0.233449667692,0.142067477107,0.258504033089,-0.224630370736
2017/07/09/10:10:42.314104,462698,1499566245,119400723,,0.757551590094,-0.117702340568,0.154599227606,0.851022790778,0.5232047033,-0.0245428226613,0.0376124696867,-0.0170593272844,0.00152016310457,-0.0432478023082,0.0417566857477,0.048612291403,0.00147504462208,0.750009655952,0.0427227318287,-0.138404667377,-0.048948071897,0.0251853913069,-0.187730818987
2017/07/09/10:10:42.324012,462699,1499566245,129394133,,0.756612842524,-0.118809925301,0.154265909575,0.851216867467,0.522850371032,-0.025364306007,0.0376030056379,-0.0257325269561,-0.0337973790266,-0.0245155048398,0.011103365629,0.0314530679343,-0.0679591539349,0.0603811591864,-0.406862020493,-0.266368925571,0.0550719872117,-0.154146462679,-0.170085430145
2017/07/09/10:10:42.333809,462700,1499566245,139397810,,0.756774422043,-0.117891244517,0.153903173705,0.850942376436,0.523326710385,-0.0254987796616,0.0370949918211,-0.0190816217977,-0.0329682072829,-0.0197621114324,0.0110304811598,0.0109848429368,-0.0689038955868,0.258593738079,0.611364901066,-0.411121547222,-0.213484629989,-0.139759093523,-0.20345582068
2017/07/09/10:10:42.344028,462701,1499566245,149397168,,0.757133175358,-0.117935726447,0.153905798905,0.851000904534,0.523239582811,-0.0250952733043,0.0372562306082,0.00081802572773,-0.00673665386247,-0.0241505112885,0.0059420613211,0.0045806795157,-0.00112426779764,0.587948858738,0.599613010883,-0.322092503309,-0.138185381889,-0.0844940394163,-0.174258425832
2017/07/09/10:10:42.354141,462702,1499566245,159398770,,0.756592955024,-0.11869275336,0.153929031593,0.851188952178,0.522907882648,-0.0255305933541,0.0373216124791,0.00471998478413,-0.00170537927335,-0.020444967859,0.00672305622783,0.00288430626691,0.0152439275859,-0.1610275805,0.000805407762527,-0.402437269688,-0.100206807256,-0.223517969251,-0.183083504438
2017/07/09/10:10:42.363959,462703,1499566245,169399108,,0.756791764163,-0.118527767214,0.153236995795,0.851351753954,0.522664485028,-0.0252878347984,0.0371826914293,-0.0168879462054,-0.0197651435897,-0.0341097855949,-0.00809811516794,0.0416853291437,-0.0297103653891,0.957627177238,0.30356669426,-0.588892042637,-0.181013941765,0.113088794053,-0.206636801362
2017/07/09/10:10:42.374056,462704,1499566245,179395246,,0.756441624834,-0.118593791352,0.153379841313,0.851389698547,0.52259782445,-0.0256770044737,0.0369835981247,-0.0124883507395,-0.00992636602139,-0.0258705743187,0.0171451783672,0.0259931741499,-0.0205048263888,-0.0541717410088,0.360979199409,-0.365426719189,-0.212792232633,-0.20751298964,-0.189426809549
2017/07/09/10:10:42.383899,462705,1499566245,189394892,,0.755675994349,-0.119361006765,0.152674266383,0.851447594269,0.522470463079,-0.026554642636,0.036830155821,-0.0261824926829,-0.0277254791307,-0.0311588147157,-0.00638948721557,0.0496864368674,-0.0354078681698,-0.184198707342,0.82409709692,-0.503303349018,-0.360813081264,-0.249432057142,-0.172227889299
2017/07/09/10:10:42.393966,462706,1499566245,199393998,,0.756352698786,-0.119055978982,0.152706242526,0.851375202092,0.522584643087,-0.0260539634612,0.0372390529054,-0.020944018572,-0.0191404498114,-0.0232130284012,-0.023442355872,0.0529739128025,-0.0243761418352,-0.668758749962,1.36747324467,-0.260272234678,-0.567380011082,-0.507194459438,-0.168767392635
2017/07/09/10:10:42.403984,462707,1499566245,209394777,,0.756615510892,-0.118585674055,0.152725831949,0.851021855107,0.523171423547,-0.0259175966559,0.0371717890032,-0.0119194615183,0.0033244441624,-0.0141163557738,0.00660116120461,0.038255613342,0.00416754163506,0.227085024118,0.839493274689,-0.146736681461,-0.319294691086,-0.203341588378,-0.193512767553
2017/07/09/10:10:42.414062,462708,1499566245,219400720,,0.755389506539,-0.118921949209,0.151714273434,0.851246906818,0.522807171877,-0.0270713372919,0.0363112567125,-0.00947683953527,0.00595873430269,-0.0155223297963,0.000927443278086,0.0401292947698,0.0196205145119,0.0279333591461,0.225865393877,-0.197063490748,-0.140606656671,-0.175106704235,-0.196551799774
2017/07/09/10:10:42.423878,462709,1499566245,229391960,,0.755976461897,-0.119807477735,0.152713166613,0.851407845944,0.522487991456,-0.0265195115487,0.0375192504719,-0.011052677171,-0.00223316434627,-0.0317303978656,0.00338888402653,0.0390545795221,-0.00830799657628,2.09748315811,-0.570016205311,0.686227440834,0.208756789565,0.51835590601,-0.25796726346
2017/07/09/10:10:42.433960,462710,1499566245,239398679,,0.755709018475,-0.119249890869,0.152291623726,0.851024645913,0.523091399917,-0.0273750995998,0.0371892901763,-0.00284289418071,-0.00297035367061,-0.00885264939536,-0.0166879937078,0.0161324571733,0.00545887254257,1.01948261261,0.188143342733,-0.0744717419147,0.0194719135761,0.156674414873,-0.183363363147
2017/07/09/10:10:42.444145,462711,1499566245,249392827,,0.756304226976,-0.118439157881,0.151831649993,0.850901703585,0.523345056917,-0.026723713606,0.0369064407287,0.00356939470637,0.00723506298628,-0.0101913899455,-0.0296285714598,0.0241118237541,0.0314685593469,1.33712100983,0.246124655008,-0.0165624916553,-0.000804051756859,0.193367779255,-0.224164500833
2017/07/09/10:10:42.454145,462712,1499566245,259413836,,0.756237247597,-0.118357855365,0.152055306172,0.851081104423,0.523070135884,-0.0265872757979,0.0367655192478,-0.00208160353976,0.0124136356721,-0.0146330827485,-0.00205307742852,0.033600528881,0.0160196785992,2.02728652954,-0.258573651314,-0.00821875780821,0.121206380427,0.521337628365,-0.245771437883
2017/07/09/10:10:42.463936,462713,1499566245,269397960,,0.756147199664,-0.118947610464,0.151790661321,0.851268463414,0.522763308225,-0.0264518789633,0.0368893598416,-0.0144823079625,-0.00734984591992,-0.0164418107985,0.000264570503076,0.0368184172349,-0.0171451377624,2.93665289879,-0.374053686857,0.0558798909187,0.175297617912,0.852905392647,-0.292047977448
2017/07/09/10:10:42.474110,462714,1499566245,279393068,,0.756218043848,-0.118858751592,0.151941483244,0.851092490075,0.523033966722,-0.0266128987708,0.0369972514141,-0.00984764351713,-0.00938274409462,-0.0162533325825,0.00711686454282,0.0200542241408,-0.000695281408546,2.48092532158,-0.216852039099,0.250780463219,0.105393096805,0.665787756443,-0.27135682106
2017/07/09/10:10:42.483841,462715,1499566245,289394995,,0.755900425118,-0.119003969906,0.152187567692,0.851158213009,0.522917090735,-0.0269053884683,0.0369257730578,0.00466685942163,-0.00621935336275,-0.00453203777184,-0.00239268323668,-0.0171655503278,-0.0113961839612,1.40900170803,-0.601406514645,0.0921835154295,0.263077020645,0.320951521397,-0.223659992218
2017/07/09/10:10:42.494109,462716,1499566245,299400607,,0.755866213827,-0.119390566247,0.151832833171,0.85120732206,0.522823403344,-0.0270141484855,0.0370407824972,0.00212467473116,-0.00656139511524,-0.00970097373852,0.00244392087737,-0.00639752795679,-0.00981857612089,0.21700771153,-0.4713332057,0.0828910022974,0.197722494602,-0.179413720965,-0.164238318801
2017/07/09/10:10:42.503922,462717,1499566245,309402754,,0.755959888343,-0.118783170331,0.151490871178,0.851126861959,0.522995241597,-0.0267912063393,0.0366233993679,0.00673709541573,0.0119336866106,0.00362466587397,0.0218406262539,-0.00914983507414,0.018627084783,-0.65252995491,-0.458506792784,-0.0926527380943,0.303516238928,-0.522006750107,-0.0800095722079
2017/07/09/10:10:42.514118,462718,1499566245,319400129,,0.755996255866,-0.118382309558,0.151494202691,0.851191146413,0.522922962922,-0.0266007683942,0.0362988462453,0.000689734769158,2.3391855658e-05,-0.0156328472779,0.0141737814237,-0.00155665617813,0.0142473436113,0.625298917294,-0.570659101009,0.0610147863626,0.350962817669,0.0130726993084,-0.18286305666
2017/07/09/10:10:42.523842,462719,1499566245,329393538,,0.75598905903,-0.118639721345,0.151422075428,0.851036462639,0.523142145073,-0.0268976321264,0.036547950594,0.00933604419695,-0.00251797552748,-0.00875780505554,-0.0116188670262,-0.0177059683218,-0.00230547618038,0.860413014889,-0.830296099186,0.135661095381,0.387986779213,0.156344532967,-0.19478033483
2017/07/09/10:10:42.533986,462720,1499566245,339393203,,0.755600634855,-0.118943087551,0.151213413617,0.851233504952,0.522834479839,-0.0269923898383,0.0362910130623,-0.00544804181872,0.00276441227994,-0.0151870573464,-0.00172621981878,0.027880916353,0.007337787078,0.946482956409,-0.715120077133,-0.271153181791,0.391735702753,0.169654592872,-0.183834195137
2017/07/09/10:10:42.543918,462721,1499566245,349396447,,0.755558784942,-0.119135905311,0.151390850987,0.851237991259,0.522779340428,-0.0274470499986,0.0366374522144,0.00783430776066,0.00637815921465,-0.00685564171519,0.00229190124509,-0.00697938062322,0.000647297468299,1.08928596973,-0.787188649178,0.297768890858,0.388982355595,0.248341083527,-0.194032937288
2017/07/09/10:10:42.554191,462722,1499566245,359400699,,0.755049172097,-0.11935583729,0.150659591662,0.85111336553,0.522978610091,-0.0280176557573,0.0362549771649,-0.0196874227741,-0.00012615945289,-0.0126483838966,0.0124753549284,0.0499303530692,-0.0133090084549,-0.257941246033,-0.433169394732,-0.485368728638,0.188841968775,-0.291352272034,-0.155569911003
2017/07/09/10:10:42.564043,462723,1499566245,369391816,,0.755353918932,-0.118693179195,0.15050132011,0.851056768517,0.523130588921,-0.0274052658702,0.0358568696204,-0.0135491748382,0.00339659667482,-0.0123000443948,0.0191668338716,0.0320810963663,-0.00755531670088,0.796793460846,-0.42939260602,-0.0843994766474,0.237848848104,0.0321612879634,-0.202764824033
2017/07/09/10:10:42.574116,462724,1499566245,379392576,,0.755374181142,-0.118884024188,0.150788818102,0.851046973764,0.523122851134,-0.0274787751441,0.036144819619,0.00784991103693,-6.02459076751e-05,-0.00188751988416,-0.0103115385308,-0.0100408348079,0.03054101141,0.438153445721,-0.460358560085,-0.156344741583,0.247001007199,-0.0489505678415,-0.148205578327
2017/07/09/10:10:42.583807,462725,1499566245,389393798,,0.755728278071,-0.119405043269,0.151524739608,0.851169309093,0.522897597392,-0.0270918419308,0.0368095368092,-0.00306766761052,-0.00845487711874,-0.00567882391492,-0.00245218366516,0.00235940023204,0.00206153163968,1.61051881313,-1.01205897331,0.160091653466,0.451157033443,0.341649621725,-0.213086888194
2017/07/09/10:10:42.594209,462726,1499566245,399401647,,0.755819579793,-0.119200594149,0.150853597202,0.851117717731,0.522976739551,-0.0272716289029,0.0367453222851,0.011917830424,0.016510450511,-0.00868108312238,-0.00459420105875,0.000560242026323,0.0326965239747,1.51123917103,-0.981244087219,0.108086287975,0.473643004894,0.27009999752,-0.181294664741
2017/07/09/10:10:42.603938,462727,1499566245,409394705,,0.75654069338,-0.117778140581,0.150831700927,0.85069411609,0.523724887016,-0.0266536186421,0.0363503532692,0.0152156338805,0.0127745648431,-0.00321465563807,0.0118841356554,-0.0190041652892,0.0210228392557,2.45215773582,-0.685857772827,0.0749466270208,0.4074909091,0.678089797497,-0.244376301765
2017/07/09/10:10:42.614110,462728,1499566245,419426893,,0.755801343482,-0.118544557104,0.150818485485,0.85084990531,0.523453752122,-0.0272002334153,0.0362043550752,0.00825983325785,0.0139494040181,0.00624265676981,0.0193183706356,-0.0137013512526,0.0117514384954,2.03254055977,-1.40224552155,0.0815883725882,0.578202545643,0.552793860435,-0.210816144943
2017/07/09/10:10:42.624219,462729,1499566245,429393278,,0.7560209094,-0.118795005256,0.150839435254,0.851027526941,0.52313948415,-0.0271113069351,0.0366361235477,0.00111249345697,-0.00569890961704,0.00318885194486,-0.00137072113529,-0.0136934067352,-0.0334579273524,1.31071341038,-0.914125978947,-0.130562841892,0.350620865822,0.316474825144,-0.193541526794
2017/07/09/10:10:42.634027,462730,1499566245,439401695,,0.755946663314,-0.119040440178,0.150687104764,0.851007421949,0.523163597405,-0.0272352993524,0.0366668325241,-0.00459265461058,-0.0198290706236,0.00297238564499,-0.00705653346339,-0.00842789171738,-0.0146286976778,0.708255410194,-0.834807395935,-0.536908090115,0.277992904186,0.121706753969,-0.210733234882
2017/07/09/10:10:42.644360,462731,1499566245,449394721,,0.755260335085,-0.11936972293,0.150538857195,0.851293149647,0.522712636302,-0.0275775559322,0.0362070659353,-0.000866647640546,-0.0144332532399,-0.00133700340296,-0.00659972940796,-0.00950229961798,-0.0141036100814,0.666967868805,-1.02228975296,-0.400541335344,0.297470510006,0.156690776348,-0.194793760777
2017/07/09/10:10:42.653993,462732,1499566245,459394094,,0.7561469797,-0.118954617711,0.151409662921,0.851075744604,0.523056657274,-0.0268129659491,0.0369171380886,-0.0138717133675,-0.00601995589311,-0.00652598392178,-0.00384497106774,0.0270627893259,-0.0162280543628,1.27276921272,-0.488170742989,0.445863068104,0.259829729795,0.278098464012,-0.199537754059
2017/07/09/10:10:42.663917,462733,1499566245,469397476,,0.756030084253,-0.118523032309,0.150559861797,0.851095464422,0.523080369524,-0.0267463642232,0.0361672429056,-0.000131374128029,0.00774601649281,-0.0080824745073,0.0171438938377,0.00053455360941,-0.00534140280039,1.13231801987,-0.395842343569,-0.153561145067,0.268343806267,0.235556647182,-0.19511833787
2017/07/09/10:10:42.674316,462734,1499566245,479401877,,0.756292685854,-0.118052822136,0.150579489844,0.850942721349,0.523340442974,-0.0265957529648,0.0361099938306,-0.00597210759475,-0.00392313427948,-0.0122053246039,-0.00430771724205,0.0153427603817,-0.0173092312067,1.66039586067,-0.616465032101,-0.261682450771,0.355021119118,0.388746261597,-0.195784062147
2017/07/09/10:10:42.684862,462735,1499566245,489398780,,0.755983080054,-0.118639605731,0.150690250002,0.85097170338,0.523254222357,-0.027051632454,0.0363371437119,-0.00138507415287,-0.000862006726916,-0.00597556910524,-0.00938486046768,0.0123869107307,0.011277696861,1.95912611485,-0.977152347565,-0.103975661099,0.391840517521,0.553547382355,-0.221754580736
2017/07/09/10:10:42.694151,462736,1499566245,499400015,,0.755738032905,-0.119004963967,0.150836417518,0.851134355675,0.52297045677,-0.0272322068489,0.0364776211657,0.00751024839625,0.0133183168459,-0.000321488861027,0.00309966609307,-0.000875752420401,0.0278920533783,1.69142735004,-1.22061538696,-0.0702526494861,0.480602681637,0.476337492466,-0.222695529461
2017/07/09/10:10:42.704117,462737,1499566245,509391521,,0.755405265706,-0.118857056078,0.150141179725,0.851374355362,0.522643444569,-0.0270545595422,0.0356873603656,0.00174826524158,-0.00519160843667,-0.010174947692,-0.0043353083485,0.00273367328633,0.00930094003784,0.874314069748,-0.768705010414,-0.545989453793,0.292489230633,0.207026898861,-0.200651600957
2017/07/09/10:10:42.714056,462738,1499566245,519410715,,0.755708134176,-0.119283708837,0.150932934776,0.851435303749,0.522495684593,-0.026960612749,0.0364596828201,0.00255861991533,-0.00792416677,0.0038694787542,0.00779454733357,-0.022650783424,-0.0283062709908,1.19941067696,-0.938458681107,0.11859074235,0.375617980957,0.337973386049,-0.186500713229
2017/07/09/10:10:42.723985,462739,1499566245,529396023,,0.756035378589,-0.118599340606,0.15060656512,0.851023011038,0.523178347375,-0.0269097307137,0.0363334269693,0.0147019732064,0.00560962024148,0.00313726666359,0.00240951406261,-0.0300694226815,-0.00333578643461,1.26509737968,-0.652328670025,-0.0206279456615,0.270589470863,0.33985760808,-0.215931251645
2017/07/09/10:10:42.733922,462740,1499566245,539393021,,0.755835791273,-0.118608940899,0.150569143881,0.851091878293,0.523075155931,-0.0270145605069,0.0361276829048,-0.00493666753079,0.00110420313268,-0.007732950997,-0.0107925234179,0.0241006531594,0.0176945089417,1.54503238201,-1.07295012474,-0.155181229115,0.475369989872,0.40330812335,-0.192407920957
2017/07/09/10:10:42.744488,462741,1499566245,549407365,,0.756232060437,-0.118808999786,0.150719325422,0.851006683256,0.523199390807,-0.0266851490829,0.0365776616317,-0.00763634147742,-0.00369958594391,-0.00741547115194,-0.00670993549991,0.0212199586732,-0.00331172456175,2.24222350121,-1.14341318607,-0.18405354023,0.421439766884,0.699776411057,-0.259880542755
2017/07/09/10:10:42.754102,462742,1499566245,559394850,,0.75601112798,-0.118888437081,0.150417983762,0.851096695814,0.523045988137,-0.0269231881036,0.036502747981,-0.00572853273912,-0.0117261199752,0.000648468258118,-0.00783477401263,-0.00249157225175,-0.00412012984803,1.80579137802,-0.464775770903,-0.145684212446,0.333416581154,0.409452855587,-0.200529932976
2017/07/09/10:10:42.764100,462743,1499566245,569398879,,0.755934641399,-0.119214589509,0.150949223559,0.851218265691,0.522828420147,-0.0270005910078,0.0367270380732,-0.0079679724162,-0.0013043260255,0.000661935190408,0.00938870493568,0.0105464735856,0.00443972900843,2.82690382004,-1.41556024551,-0.05582639575,0.535868048668,0.939874529839,-0.26903283596
2017/07/09/10:10:42.774300,462744,1499566245,579406700,,0.755884345215,-0.118794623757,0.150179613617,0.851203375902,0.522884229977,-0.0271000598844,0.036200575265,0.000952481442314,-0.00390910315507,-0.00803287187909,-0.0047513891274,0.00118979351328,-0.0120645886732,1.73378384113,-0.881096839905,-0.410443246365,0.349057555199,0.481950044632,-0.230020776391
2017/07/09/10:10:42.783820,462745,1499566245,589393941,,0.755547661021,-0.119503183307,0.150388745293,0.851228054686,0.522844366612,-0.027034309858,0.0362451832374,-0.0101526435106,-0.000850739542768,-0.0104454335422,0.00651162058737,0.0261565478081,-0.00949991907396,1.48353052139,-1.3363609314,-0.0967542082071,0.381928533316,0.4192276299,-0.202257543802
2017/07/09/10:10:42.794297,462746,1499566245,599399191,,0.755843045134,-0.119049976681,0.150433732684,0.851255823969,0.522779135707,-0.0271639296627,0.0364364975578,0.00180734324118,0.00786810293462,0.00505813713799,0.00083189884325,0.00532597907624,0.017654025929,1.57027745247,-0.806984364986,0.0695093497634,0.316942572594,0.385172903538,-0.197670578957
2017/07/09/10:10:42.804245,462747,1499566245,609393479,,0.755494013158,-0.118981200381,0.150550453773,0.850982169688,0.523202723253,-0.0277254444658,0.0363257069207,-0.000152799153732,-0.000292867439043,0.00717575312909,0.000491188614185,-0.00366633286467,0.00649094253498,1.45708882809,-0.824637413025,-0.155200064182,0.340399086475,0.354110121727,-0.211848288774
2017/07/09/10:10:42.814044,462748,1499566245,619409640,,0.755638736332,-0.119229079881,0.150021635035,0.851020473658,0.523170025956,-0.0272648169238,0.0362478566809,-0.00814546024258,0.00230987514151,-0.0124312096033,0.00594149682836,0.0274313763005,0.012526170019,2.23137545586,-1.30876302719,0.0163960754871,0.476066827774,0.607286334038,-0.221776023507
2017/07/09/10:10:42.824238,462749,1499566245,629409779,,0.755051281119,-0.119403200073,0.150384218046,0.8512751207,0.522762510778,-0.0275445842456,0.0359349701684,-0.00286847241221,0.00526431187688,-0.00374856938041,0.0168616303565,0.00674389256909,-0.000341662152547,1.93653786182,-1.71681404114,0.0877610966563,0.502553939819,0.616677045822,-0.249716311693
2017/07/09/10:10:42.834034,462750,1499566245,639395092,,0.756061801147,-0.118608907171,0.150281145119,0.851030784512,0.523161237302,-0.02700386604,0.0363278793221,-0.00916813031993,-0.00677188184979,0.00176676440086,-0.00921500577981,0.0154203768924,-0.0313790092345,2.20390629768,-1.14260351658,-0.0840064883232,0.432478129864,0.574023663998,-0.215996652842
2017/07/09/10:10:42.844326,462751,1499566245,649397479,,0.755951757028,-0.118868911785,0.150336856862,0.85101638657,0.523192288376,-0.0268890316871,0.0363031561729,0.00524344507034,-0.00116370135843,-0.00395421774662,0.00190645367073,-0.0142163675916,-0.0030946877732,2.59669804573,-1.01823365688,0.156315624714,0.467475831509,0.746581077576,-0.24238884449
2017/07/09/10:10:42.854036,462752,1499566245,659393702,,0.755841862383,-0.11918837216,0.149825441627,0.85116669574,0.522938798955,-0.0270907936298,0.0362816415102,0.0143856362843,-0.0128268397532,0.0147898698429,-0.0209113584971,-0.0498711169905,-0.00911144439433,0.96066224575,-0.922175884247,-0.620215892792,0.330037951469,0.228000789881,-0.166360497475
2017/07/09/10:10:42.864623,462753,1499566245,669399129,,0.7555642579,-0.118713790164,0.150000074877,0.851043427882,0.523157810147,-0.0273263167825,0.035836600747,-0.00158351841553,-0.00133238915381,-0.0036563725453,0.0147149094141,-0.00646470822749,-0.015474157532,1.77998840809,-0.890000224113,-0.432999938726,0.381007313728,0.512155234814,-0.217855766416
2017/07/09/10:10:42.874174,462754,1499566245,679398160,,0.75553061109,-0.119340939086,0.150422970651,0.851003596113,0.523166483784,-0.0275973241281,0.0364430699685,-0.00466429971644,0.0091096405167,-0.00156501474814,0.0183452803019,0.019293717215,0.0100340784326,1.26549327374,-0.849246382713,-0.476381599903,0.303189128637,0.314413100481,-0.189637288451
2017/07/09/10:10:42.883742,462755,1499566245,689394966,,0.755328678419,-0.119054967786,0.150263660226,0.851292839574,0.522720911136,-0.0276445767944,0.0360434144605,-0.0108553038697,0.00146724640159,-0.00453504941537,0.00588811847054,0.0291710309438,-0.0116852452505,1.43586039543,-0.814531385899,-0.0909266248345,0.325654447079,0.321347236633,-0.211142927408
2017/07/09/10:10:42.894198,462756,1499566245,699412282,,0.755461707797,-0.118716312981,0.150128129237,0.851183883132,0.522969298249,-0.0269143923259,0.0355629817344,0.00320202357394,-0.027852601084,0.0216227844399,-0.0531996066211,-0.0266357236894,-0.00535620243356,1.82943189144,-0.867782473564,-0.408292412758,0.348952651024,0.473371714354,-0.210158541799
2017/07/09/10:10:42.903864,462757,1499566245,709401402,,0.756019826185,-0.118999573972,0.15056291082,0.850993141983,0.52321778372,-0.0269234804252,0.0364547568843,-0.000723760434192,0.000242076382647,0.00284159770573,0.00336347171512,0.000118692146476,-0.00193554794766,2.06554555893,-1.00296151638,-0.467163741589,0.339662492275,0.535061895847,-0.216661170125
2017/07/09/10:10:42.914261,462758,1499566245,719412436,,0.755931119018,-0.118995092886,0.150141960566,0.851100812102,0.523022809137,-0.0272746889142,0.0364779400048,0.0100297323821,0.016561000312,0.0118968610182,0.0238349939489,-0.0189191332914,0.0128385777356,1.96562445164,-1.06460022926,-0.694553017616,0.332622528076,0.501523017883,-0.228406190872
2017/07/09/10:10:42.923977,462759,1499566245,729393688,,0.755629267353,-0.118938128493,0.150536476683,0.851354785269,0.522651237993,-0.0270044358601,0.0360759402899,-0.00645405705916,0.00233871454844,0.000913503592917,0.011161900973,0.0101521011784,0.00582578968505,2.43218040466,-1.69897019863,-0.0836814641953,0.605956673622,0.693999648094,-0.215934619308
