time,.header.seq,.header.stamp.secs,.header.stamp.nsecs,.header.frame_id,.pose.position.x,.pose.position.y,.pose.position.z,.pose.orientation.x,.pose.orientation.y,.pose.orientation.z,.pose.orientation.w,.twist.linear.x,.twist.linear.y,.twist.linear.z,.twist.angular.x,.twist.angular.y,.twist.angular.z,.wrench.force.x,.wrench.force.y,.wrench.force.z,.wrench.torque.x,.wrench.torque.y,.wrench.torque.z
2017/07/09/10:04:17.495514,424216,1499565860,299805470,,0.794047415891,0.365219544643,0.166426147868,0.641870096959,0.763386815813,0.0616465382214,0.0379875295028,0.0325416319579,-0.212603739417,-0.0184337806565,0.0192778592536,0.0111222679308,-0.311357767852,1.91911435127,0.74245262146,-1.10467803478,-0.141680270433,0.900822401047,0.00435316562653
2017/07/09/10:04:17.505526,424217,1499565860,309796568,,0.794895809544,0.363315003819,0.166917708394,0.643059054494,0.762310008955,0.0622612039109,0.0384973397681,0.0378474473071,-0.247597996808,0.00412610200102,-0.0123957732279,-0.0125065563215,-0.336135457734,1.94549047947,0.641907691956,-1.13242995739,-0.119896732271,0.877326846123,-0.00661883503199
2017/07/09/10:04:17.515280,424218,1499565860,319803807,,0.794940732942,0.361264890389,0.167131549192,0.644470323006,0.761134823631,0.0622138270636,0.0382259433103,0.0280348928442,-0.227995479089,0.0164040524059,0.0162699585285,0.000827158089638,-0.332567920757,1.49836063385,0.477721750736,-1.15803861618,0.0367416068912,0.721638977528,0.0715730786324
2017/07/09/10:04:17.525590,424219,1499565860,329799132,,0.79510692244,0.358802451455,0.166506898397,0.645395890671,0.7603846176,0.0617391856497,0.0383099279303,0.0380395547474,-0.240950707559,0.0126239034885,-0.00931992451473,-0.0104174596252,-0.322136330749,1.96382844448,0.582510590553,-1.15555596352,-0.0768525451422,0.876361429691,0.00044272840023
2017/07/09/10:04:17.535573,424220,1499565860,339827326,,0.795579401303,0.356930167318,0.166843343604,0.646393224001,0.759513980173,0.0620109323717,0.0383269898843,0.0256254781609,-0.227500114412,-0.00168912900482,0.000932699287203,0.00852500988521,-0.311917949098,2.31739735603,0.637966811657,-1.19691550732,-0.0370816290379,1.01216626167,0.0547509603202
2017/07/09/10:04:17.545663,424221,1499565860,349800557,,0.79595012113,0.353524435626,0.166605102691,0.648361477188,0.757845128979,0.0617770430439,0.0384935362715,0.036216156907,-0.254335259056,0.0026243720736,0.00676080255072,-0.0110500072019,-0.340304889256,2.15698242188,0.732970118523,-1.31646764278,-0.147809803486,0.896894693375,-0.0152735933661
2017/07/09/10:04:17.555383,424222,1499565860,359805404,,0.796462770161,0.351655921889,0.167391093229,0.649175590944,0.757093689429,0.0620376784342,0.0391346905453,0.029809650661,-0.28065622418,-0.0017006190972,-0.0107847502884,0.0138573315931,-0.381139322287,2.57822465897,0.675372242928,-1.48172426224,-0.170295670629,1.04002285004,-0.00779896974564
2017/07/09/10:04:17.565597,424223,1499565860,369800545,,0.796470780176,0.349003562322,0.166902110225,0.650521443638,0.755966250961,0.0619117984451,0.038778963209,0.0299168986771,-0.25688537362,0.0108170677787,0.00308090663864,-0.00448390562524,-0.349905027271,2.07693910599,0.448599785566,-1.47371041775,0.0322328805923,0.842768371105,0.0665883868933
2017/07/09/10:04:17.575607,424224,1499565860,379798401,,0.797255333512,0.346496871792,0.167130407024,0.651896009521,0.754743466031,0.062177584388,0.0390876099784,0.031343708385,-0.267341696573,0.00761901632928,0.029781010621,-0.00128440990179,-0.392976764865,2.22963452339,0.434103965759,-1.51307439804,-0.0124918408692,0.902921020985,0.0331885367632
2017/07/09/10:04:17.585635,424225,1499565860,389796192,,0.796995918839,0.343359326274,0.166898380264,0.653567941545,0.753351339574,0.0616223249118,0.0389023652203,0.042225026619,-0.266133382747,0.0196515550028,0.0166909129435,-0.0324451699506,-0.369519319278,2.19712281227,0.398520410061,-1.42078530788,-0.0356873720884,0.908151745796,0.0566276982427
2017/07/09/10:04:17.596262,424226,1499565860,399803994,,0.797644522632,0.341464245174,0.166951565669,0.654592952917,0.75242705063,0.0618231303309,0.0392364629871,0.0445254471635,-0.266501522898,0.0135834940683,0.00833190506025,-0.0384549823892,-0.368404249396,1.8641525507,0.555059075356,-1.4946167469,-0.091787815094,0.778614401817,-0.00152894854546
2017/07/09/10:04:17.605654,424227,1499565860,409797766,,0.797928019143,0.338813897983,0.167397777203,0.655970026733,0.751219711546,0.0618760396739,0.0392889898817,0.0209649950247,-0.297809816909,-0.0133061866956,-0.0147365650743,0.0255776693868,-0.40768802892,2.38555645943,0.521723628044,-1.61705482006,-0.159497186542,0.980803251266,-0.0233024731278
2017/07/09/10:04:17.615568,424228,1499565860,419804043,,0.798347086636,0.335129218993,0.167068791225,0.657805525952,0.749622592471,0.0616573959605,0.0394490102178,0.0214548688727,-0.303360653865,-0.00571616596847,-2.39218453047e-06,0.0288232973564,-0.419932783201,2.11484932899,0.644132852554,-1.61866796017,-0.148474916816,0.845841526985,-0.0319559425116
2017/07/09/10:04:17.626305,424229,1499565860,429802532,,0.7984323072,0.332204921485,0.167204485445,0.659079540664,0.74853756629,0.0611488311973,0.0395789258788,0.0295699741792,-0.297551859352,0.00204493090801,-0.0152010895247,0.00270014061666,-0.407865384003,2.06128430367,0.579686224461,-1.53665995598,-0.142446920276,0.812781989574,-0.00219627097249
2017/07/09/10:04:17.635536,424230,1499565860,439806028,,0.798484716632,0.330372888474,0.166907873258,0.660314388802,0.747454911864,0.0612983774992,0.0392246298436,0.023186348963,-0.303967780667,-0.000916144021879,-0.00876879711036,0.00924578696123,-0.411912413164,1.61339437962,-0.300935685635,-1.36002290249,0.123773783445,0.620195388794,0.034681443125
2017/07/09/10:04:17.645749,424231,1499565860,449801183,,0.798457883465,0.327091744653,0.167078344296,0.661644575546,0.746299004333,0.0608709177367,0.0394839607496,0.0193801271422,-0.303702967443,0.00546902547475,-0.0090830892877,0.00686271434151,-0.399422833681,1.75327658653,-0.31095802784,-1.53566730022,0.0485636815429,0.647397339344,0.00889442116022
2017/07/09/10:04:17.655493,424232,1499565860,459805918,,0.799184401886,0.324193176577,0.167288350732,0.663406704559,0.744675835641,0.0613578764811,0.0398077273068,0.0242882741785,-0.282963765051,0.00168218641262,0.014528194917,0.0016758081272,-0.389772650145,1.92930078506,-0.178214490414,-1.49616837502,0.0166013874114,0.659346997738,0.0142271593213
2017/07/09/10:04:17.665506,424233,1499565860,469800283,,0.799484111901,0.321253478086,0.16735271568,0.664473844352,0.743733389848,0.0609720536046,0.0402189467362,0.0194192464246,-0.287030584522,0.00933163171489,0.0174295637609,0.0112288118755,-0.4014649524,1.77990317345,0.138697460294,-1.18884265423,-0.127944380045,0.607245624065,-0.00613209977746
2017/07/09/10:04:17.674618,424234,1499565860,478834197,,0.799099219532,0.319089491917,0.167070056429,0.666175880324,0.742256488577,0.0608964237889,0.0394541152347,0.0079525056292,-0.289756844484,0.0040856333613,-0.00580718727275,0.0315936953188,-0.385361045487,2.24901890755,0.326502412558,-1.48980569839,-0.294966101646,0.754629790783,-0.0715653076768
2017/07/09/10:04:17.685641,424235,1499565860,489798937,,0.799473309328,0.315000432339,0.16717678751,0.667977776103,0.740640463959,0.0605790432412,0.0398443634451,0.00535515261847,-0.312208047106,-0.0038923196341,-0.0134176753131,0.0364448973305,-0.41438085497,2.35052514076,0.113057643175,-1.47463524342,-0.234508097172,0.75621342659,-0.0816759094596
2017/07/09/10:04:17.695376,424236,1499565860,499804117,,0.799572871596,0.311995590659,0.167201974943,0.669529473208,0.739252846411,0.0603424029623,0.0399287864114,0.0163976929806,-0.328018854591,0.000838510583646,-0.0265880941142,0.0168779136837,-0.42194551429,2.24856615067,-0.202574819326,-1.2345662117,-0.0755451321602,0.749554336071,-0.0170995667577
2017/07/09/10:04:17.705703,424237,1499565860,509796352,,0.799654466801,0.308475621207,0.167451749724,0.670950169737,0.737975317069,0.059866513503,0.0404264973424,0.0288020168178,-0.337647500355,0.0095333971517,-0.0315026658809,-0.0182621602372,-0.453292436586,1.9055300951,0.0629082322121,-1.41612279415,-0.170030131936,0.63384103775,-0.0935388207436
2017/07/09/10:04:17.715461,424238,1499565860,519798027,,0.800120192927,0.305531100236,0.167428117764,0.672651646399,0.736400921536,0.0599820663848,0.0406890288521,0.0363757472344,-0.310712780012,0.0135097178828,0.00471927209708,-0.0378250732644,-0.425840606916,2.01321983337,-0.0237363055348,-1.51530146599,-0.161260843277,0.683659315109,-0.0576994940639
2017/07/09/10:04:17.725433,424239,1499565860,529798321,,0.800570443643,0.303324965429,0.168168131079,0.67396157392,0.735137059636,0.0607603719074,0.0407121312993,0.0369582724234,-0.317661243208,0.0128600912606,-0.0088009306005,-0.0358881168628,-0.424223835572,1.67459273338,-0.0871274992824,-1.49772846699,-0.0751766785979,0.602676749229,-0.0381916835904
2017/07/09/10:04:17.735778,424240,1499565860,539816949,,0.800906459998,0.300309592966,0.167722899879,0.675289080126,0.733915963976,0.06056913527,0.0410292083252,0.0247385667878,-0.299935441176,0.00743635839789,0.0136249458468,-0.0181781447521,-0.422139240307,1.18600976467,-0.288211524487,-1.59559941292,-0.0253694579005,0.398542433977,-0.0606252923608
2017/07/09/10:04:17.745373,424241,1499565860,549796575,,0.800823708449,0.297775553922,0.167578350004,0.676625350677,0.732700087528,0.0605658372415,0.0407491830188,0.0249853792981,-0.314790570338,0.0102339696375,0.0110456276257,-0.0247067805105,-0.426966219971,0.568044602871,-0.230923324823,-1.54776239395,-0.0467787012458,0.196885615587,-0.0443189367652
2017/07/09/10:04:17.755480,424242,1499565860,559800796,,0.801349234471,0.293004338647,0.167916293621,0.678590105072,0.730854652364,0.0602766677289,0.0416373599549,0.0241309519809,-0.315596259497,0.015166679601,-0.00287088812721,-0.0398834015017,-0.414789015266,0.762620747089,-0.770485758781,-1.40733599663,0.0267971120775,0.269686430693,-0.0504375621676
2017/07/09/10:04:17.765317,424243,1499565860,569796917,,0.80149322053,0.290284999172,0.168060813691,0.680341058019,0.72922392847,0.0603168289836,0.0415979213638,0.0207281085983,-0.336247795872,0.000220384501679,-0.0139207970236,-0.0168182997361,-0.461807358552,0.520491540432,-0.850870609283,-1.51440227032,0.130502939224,0.199733912945,-0.00205189362168
2017/07/09/10:04:17.775342,424244,1499565860,579826006,,0.801455434338,0.286953923934,0.167537549882,0.681737002141,0.727957827893,0.0599204924488,0.0414921113706,0.0195578788986,-0.31852431457,0.00824700674959,0.0117469701062,-0.0225543053002,-0.441051350435,0.0304286517203,-0.753998577595,-1.35741829872,0.0883102267981,0.0273971837014,-0.0374445952475
2017/07/09/10:04:17.785714,424245,1499565860,589820621,,0.8017067603,0.28438829586,0.167644917142,0.683176802034,0.726578150543,0.0601931546215,0.0415984669512,0.0159637227822,-0.334060044722,0.00322066748589,-0.0144816582168,-0.0115392415571,-0.437785087779,-0.341883808374,-0.811329185963,-1.35169267654,0.197965994477,-0.0487381406128,-0.00481890887022
2017/07/09/10:04:17.795552,424246,1499565860,599803676,,0.801978279713,0.281414070497,0.168109361516,0.684609162157,0.72519821826,0.0601195589636,0.0422312438066,0.0272218510926,-0.31007150258,0.0160830717875,0.0037081291996,-0.0480594366732,-0.427671030474,-1.23908448219,-1.19406580925,-1.11991214752,0.293978005648,-0.397902131081,0.000937178730965
2017/07/09/10:04:17.805266,424247,1499565860,609797243,,0.802101069258,0.278157640353,0.168273413029,0.686167728868,0.723699315104,0.0603311968869,0.0423473241207,0.0156545046485,-0.334630924182,0.011860069255,-0.00341588158495,-0.0267566974266,-0.447793297671,-1.41582882404,-1.06742036343,-0.887928545475,0.267631441355,-0.416526466608,-0.0299638435245
2017/07/09/10:04:17.815606,424248,1499565860,619801414,,0.802577757285,0.275778060774,0.168270573097,0.687272490703,0.722605989205,0.0605896338129,0.0427317699426,0.0108614917356,-0.310236970078,0.00011662399352,0.0164992903733,-0.0150734720527,-0.42217808668,-1.64854681492,-0.834936618805,-0.790038704872,0.139324322343,-0.528963506222,-0.0540947169065
2017/07/09/10:04:17.825562,424249,1499565860,629798116,,0.802760825351,0.272879179993,0.168760678284,0.688618725539,0.721308055174,0.060697147968,0.0428345258685,0.00688192154736,-0.305849543807,0.00499997481541,0.00616076842069,-0.00368142282924,-0.425652580782,-0.622460901737,0.77644610405,-0.63918030262,-0.711382627487,-0.13916260004,-0.271340727806
2017/07/09/10:04:17.835627,424250,1499565860,639799745,,0.802107819328,0.269755222099,0.167882839365,0.690503950126,0.71958109211,0.0601390504958,0.042315970312,0.0137093532941,-0.302201758196,0.00388399990824,0.0112495610605,-0.0214110160037,-0.418793005066,-0.842225790024,1.59178423882,-1.07017493248,-1.20941269398,-0.189560353756,-0.42057338357
2017/07/09/10:04:17.845371,424251,1499565860,649801180,,0.802049898198,0.267857769015,0.167939804812,0.691124702534,0.718998167601,0.0597948423565,0.0425776626906,0.00847704101724,-0.319930906751,0.0032729537802,-0.0131810900147,-0.00716863222829,-0.421640253405,-1.45156359673,2.08206892014,-0.96789586544,-1.33743834496,-0.407883405685,-0.48331540823
2017/07/09/10:04:17.855485,424252,1499565860,659803539,,0.802720962863,0.264072236992,0.168330741798,0.693282496234,0.716850336635,0.0603072544693,0.0429884907952,0.00405713959397,-0.303011727301,0.00730178136103,-0.0208037452055,-0.00899642767456,-0.394068620148,-1.94242501259,0.915810585022,-0.806460380554,-0.804660320282,-0.601244688034,-0.313293218613
2017/07/09/10:04:17.865572,424253,1499565860,669810959,,0.80227940416,0.261081450029,0.168078755923,0.694415768786,0.715804063683,0.0596540935822,0.0430426717823,-0.000583391612917,-0.312662865752,0.00103734606836,-0.0286250028852,-0.000590217159501,-0.412512689722,-2.88240170479,0.150541171432,-0.709764063358,-0.244199842215,-0.948034703732,-0.176058471203
2017/07/09/10:04:17.875407,424254,1499565860,679804637,,0.802595155882,0.257575442283,0.168528530435,0.695927048722,0.714288099938,0.0596024412925,0.0438816833708,0.0150391173374,-0.308947908331,0.0110403615049,-0.0250562846903,-0.0456025296788,-0.4063930858,-3.49785757065,-0.773003220558,-0.607271194458,0.246666759253,-1.10604095459,-0.0445301607251
2017/07/09/10:04:17.885871,424255,1499565860,689798155,,0.80278012279,0.254534969594,0.167997841517,0.697694337329,0.712554912541,0.0598822431764,0.0436145070442,0.0109643363029,-0.313343115423,0.00570520325506,-0.0245169956897,-0.0374285755118,-0.405932533453,-4.06248950958,-1.18991351128,-0.521140992641,0.402442544699,-1.27876508236,-0.0119216069579
2017/07/09/10:04:17.895624,424256,1499565860,699800829,,0.803218957676,0.252308652059,0.168942412376,0.698608870128,0.711579852104,0.0602270416786,0.0444124319137,0.00895147951907,-0.316988204944,-0.00412691994597,-0.00248730157844,-0.0222893535929,-0.430876521366,-4.15786123276,-0.603604197502,-0.262662321329,0.21410793066,-1.3089107275,-0.0670874714851
2017/07/09/10:04:17.905679,424257,1499565860,709808174,,0.803229395531,0.249495795087,0.16906510671,0.699931514694,0.710259302912,0.0602518554078,0.0446912886911,0.00386243270106,-0.281744127284,-0.00210680891586,0.0251563864908,-0.0224947103188,-0.398146543795,-4.21316051483,-0.292705148458,0.00248581264168,0.00589098408818,-1.36291158199,-0.0881578326225
2017/07/09/10:04:17.915626,424258,1499565860,719801381,,0.803525803463,0.246135480193,0.168876413087,0.701588298859,0.708604004065,0.0602932127027,0.0449327589713,0.0186587864876,-0.284134497653,0.014991406184,0.0100728156176,-0.0628408040728,-0.400813711368,-4.87188005447,-0.171054765582,-0.184147283435,-0.118840545416,-1.65372347832,-0.151956707239
2017/07/09/10:04:17.925528,424259,1499565860,729799238,,0.803470797988,0.244228535734,0.168309898792,0.702062940599,0.708146966331,0.0600579367714,0.0450393799206,0.00657573281766,-0.267355054478,0.0023090101821,-0.0125409246313,-0.0295040796619,-0.332764590901,-6.05685758591,-0.300817936659,-0.0991851314902,-0.0735835582018,-2.10764813423,-0.162193119526
2017/07/09/10:04:17.935642,424260,1499565860,739801993,,0.803678925168,0.24214060542,0.169198497706,0.703219260169,0.706940900856,0.0604944779089,0.0453613598473,0.0171835161449,-0.277916319623,0.00609440394626,-0.0187602381874,-0.0485569246223,-0.363348282223,-6.27443313599,-0.562395870686,0.265722960234,0.0571719408035,-2.22513985634,-0.13148611784
2017/07/09/10:04:17.945416,424261,1499565860,749809943,,0.803391962485,0.239402574202,0.168420930313,0.704502030235,0.705724470575,0.0598228420413,0.0452889456286,-0.00134204964193,-0.268374305622,-0.00204112335084,0.00170539439019,-0.00888608963645,-0.363257207403,-5.93373298645,-0.387529671192,-0.107536695898,0.0861492455006,-2.10819196701,-0.138918668032
2017/07/09/10:04:17.955523,424262,1499565860,759818485,,0.80319385353,0.236329475617,0.168621809518,0.706390236748,0.703844491177,0.0598924661746,0.0450406279043,0.00333468504291,-0.287616525937,-0.00997282694062,-0.00564886604212,-0.00969087801201,-0.395270208901,-6.21830224991,-0.533045172691,0.413197368383,0.0989055782557,-2.22049856186,-0.115379229188
2017/07/09/10:04:17.965267,424263,1499565860,769799434,,0.803410685837,0.233567887131,0.168296438744,0.70746713516,0.702742753291,0.0599422799189,0.0452746998186,0.00865421091959,-0.289592105792,7.9558015424e-05,-0.00313265721924,-0.0335612595445,-0.398646790358,-7.01740217209,-0.579004585743,0.431793749332,0.0564439445734,-2.49308872223,-0.167835056782
2017/07/09/10:04:17.975615,424264,1499565860,779810866,,0.8039702846,0.23116362943,0.168923518766,0.708686278437,0.70142400739,0.0602054920866,0.0462970769545,0.00724514956449,-0.272675246902,0.0132977345321,-0.00521212021354,-0.0360780248228,-0.361161388504,-7.28654909134,-0.0629389807582,0.879483580589,-0.104698911309,-2.59922075272,-0.17008548975
2017/07/09/10:04:17.985638,424265,1499565860,789799431,,0.803341163397,0.228374811161,0.16859648289,0.710007055527,0.70014732376,0.0597045380545,0.0460334038435,0.00489228838087,-0.269990227422,0.00957454510041,-0.015203880797,-0.0332750079147,-0.369980509264,-8.46796417236,0.407197594643,0.681450068951,-0.386852502823,-3.0244114399,-0.275916099548
2017/07/09/10:04:17.995559,424266,1499565860,799809741,,0.803754690777,0.226090037792,0.168901125431,0.710941997462,0.699141036032,0.0599510323444,0.0465742600813,0.0141938710471,-0.262316881523,0.0159066318798,-0.0293450623795,-0.0564767457938,-0.351374252838,-9.09671211243,0.172313094139,0.872256815434,-0.219615057111,-3.23931002617,-0.216586738825
2017/07/09/10:04:18.005901,424267,1499565860,809800360,,0.803750069215,0.223782722652,0.168738505806,0.711890345508,0.698190275325,0.0596886453067,0.0466876968418,-0.0107838662903,-0.276535769428,0.00305632936441,-0.0306119476519,0.00508039197343,-0.369322523748,-9.5159778595,0.14102165401,1.06583189964,-0.00878638401628,-3.45790505409,-0.112422883511
2017/07/09/10:04:18.015542,424268,1499565860,819801503,,0.803655919286,0.220833326203,0.168920682628,0.713203623045,0.696837317432,0.0596089535563,0.0469586814737,-0.00671227930434,-0.253047172779,0.00837628566999,-0.0282042463507,-0.0038617123893,-0.32930325793,-9.9320602417,-0.399305105209,0.741339564323,0.228830471635,-3.61762475967,-0.0818378999829
2017/07/09/10:04:18.025697,424269,1499565860,829833594,,0.803964820278,0.218073394721,0.169335840136,0.714308803232,0.695670087316,0.0593596121179,0.0477755134793,-0.00408628411047,-0.263876837218,0.0128239544346,-0.0458921615151,-0.0187920198091,-0.322122718174,-9.91926670074,-0.499030351639,1.19990456104,0.39451777935,-3.65827846527,-0.00895416364074
2017/07/09/10:04:18.035425,424270,1499565860,839809780,,0.803288699263,0.215828371384,0.169230964356,0.714997831908,0.695025667211,0.0585863892886,0.0478022726946,-0.0106060592448,-0.256965493161,0.0129149325506,-0.0706406924573,-0.000317641244439,-0.300422320627,-10.2310695648,-0.295915365219,0.676492512226,0.368726909161,-3.76767802238,-0.0507368817925
2017/07/09/10:04:18.045361,424271,1499565860,849797861,,0.803342810443,0.213463397015,0.169754503178,0.71601647235,0.693958177612,0.0583664444837,0.0483302928572,-0.0197003778682,-0.257945011279,-0.0107329903985,-0.0644910234534,0.0338607096791,-0.296355015026,-10.1386814117,-0.185721635818,1.11416149139,0.414402544498,-3.83043956757,0.0106276795268
2017/07/09/10:04:18.055608,424272,1499565860,859800775,,0.803107506739,0.210925718054,0.168620249351,0.71692692376,0.693081546353,0.0577860502036,0.0481095468203,-0.0169583874107,-0.241325147147,-0.0104695709675,-0.0594232685955,0.0329336936141,-0.287683419841,-10.4801712036,-0.481536626816,0.674940466881,0.507572174072,-4.00606250763,0.0568535402417
2017/07/09/10:04:18.065703,424273,1499565860,869795902,,0.80335708016,0.208056857173,0.169115791382,0.718485021309,0.691414109331,0.0578867562514,0.0487332229898,-0.00218601633955,-0.247012062238,0.00274812313549,-0.043169384478,-0.00917173272873,-0.316996941747,-10.7087898254,-0.525352120399,0.607666671276,0.379167705774,-4.11766958237,0.0135703682899
2017/07/09/10:04:18.075616,424274,1499565860,879796157,,0.802840124918,0.205406766181,0.168790575629,0.719425684971,0.690500767155,0.0569851779338,0.0488678202706,-0.00898847142021,-0.278966006443,-0.00105981252179,-0.0841865758327,0.00272577487622,-0.345997589476,-11.2620019913,-0.505869567394,0.526771783829,0.377766013145,-4.36679172516,0.0489957630634
2017/07/09/10:04:18.085574,424275,1499565860,889803875,,0.802851948475,0.203774049814,0.169063372915,0.720012916876,0.689889150518,0.0565784821075,0.0493278308067,-0.0138327308536,-0.282177322534,0.00693872709894,-0.135495469196,0.0139134755578,-0.309521848917,-11.3554096222,0.364566653967,0.409055352211,0.102307513356,-4.53485059738,-0.0421984493732
2017/07/09/10:04:18.095646,424276,1499565860,899800410,,0.802447006535,0.200734968475,0.168725188651,0.72087223931,0.689038380535,0.055588152875,0.049792388986,-0.0153888723524,-0.265767750891,-0.00793756910057,-0.149922800966,0.0280903326699,-0.249881369499,-11.1399869919,0.265624701977,0.268798172474,-0.0313880629838,-4.48018503189,-0.0952137857676
2017/07/09/10:04:18.105356,424277,1499565860,909803356,,0.802654874974,0.198419253199,0.168893549096,0.721672730733,0.688181333599,0.0551340831603,0.0505485378313,-0.00996683702931,-0.262231811762,-0.0173612488888,-0.164858891221,0.0207761540381,-0.247929226388,-11.0265636444,0.244042828679,0.319975972176,0.00563492625952,-4.48075389862,-0.061129167676
2017/07/09/10:04:18.115493,424278,1499565860,919804195,,0.802806882602,0.195466894628,0.168702741894,0.722753884386,0.687025139899,0.0548256481353,0.0511608058741,-0.0171785348632,-0.284367816028,-0.0117201141224,-0.196680921822,0.0324030775534,-0.257381632152,-10.8418626785,-0.552748858929,0.531911969185,0.217681735754,-4.44353723526,-0.00892738252878
2017/07/09/10:04:18.125326,424279,1499565860,929809096,,0.80258276633,0.192764353146,0.16878951974,0.722994673544,0.68679072067,0.053659842895,0.0521328043414,-0.0205071445638,-0.312714922139,-0.0110281699202,-0.198696940491,0.0358999164153,-0.293134240223,-11.0477867126,0.124592706561,0.612643837929,0.242720529437,-4.5845413208,0.0789640471339
2017/07/09/10:04:18.135597,424280,1499565860,939796829,,0.802040555361,0.190445732107,0.168335266059,0.723684350438,0.68612248586,0.0525524659972,0.0524893669822,-0.021587410854,-0.286656913624,-0.0146493358836,-0.206827602586,0.0516566837335,-0.241662064255,-11.3993301392,0.0537442117929,0.593546032906,0.359273970127,-4.75676250458,0.105816118419
2017/07/09/10:04:18.145709,424281,1499565860,949800774,,0.802425333217,0.186728278475,0.16856621691,0.724887042529,0.684818414843,0.0515955278757,0.0538555082564,0.00113429050497,-0.282115965423,0.00843488524814,-0.256124185158,-0.00547246722083,-0.211512541746,-11.5282068253,-0.343181580305,0.0435866676271,0.323300629854,-4.85748815536,0.0849353224039
2017/07/09/10:04:18.155589,424282,1499565860,959809795,,0.801840549454,0.183740757448,0.167680814394,0.725355174369,0.684388066826,0.0501514749366,0.0543845066591,-0.015853445837,-0.342402363604,-0.0213019724883,-0.310316891325,0.0314893574599,-0.25951851362,-12.1633367538,-0.340004086494,0.0328981764615,0.33261063695,-5.09148788452,0.0915090367198
2017/07/09/10:04:18.165616,424283,1499565860,969833990,,0.801785285782,0.180175557362,0.168327072424,0.726374062097,0.683267229842,0.0492223329186,0.0557115470771,-0.0213152890108,-0.304422705059,-0.0279922816922,-0.267511121394,0.0558867213528,-0.231990696345,-11.9170732498,-0.717116415501,0.548147380352,0.511400640011,-5.00285816193,0.203355252743
2017/07/09/10:04:18.175624,424284,1499565860,979809769,,0.801477450042,0.178381564621,0.167727370916,0.72688078182,0.682776502156,0.0483073222831,0.0559194039543,-0.00516530187656,-0.278623529757,-0.00743690637945,-0.256222668689,0.0148309620484,-0.217168126704,-12.2445468903,-0.0795926302671,0.408274143934,0.32224920392,-5.05543994904,0.195725873113
2017/07/09/10:04:18.185660,424285,1499565860,989800424,,0.801664693975,0.17481656201,0.167647781755,0.727386994019,0.682213744972,0.0467171616582,0.0575332417835,-0.0175977164109,-0.312269500765,-0.0184172886159,-0.301317751055,0.0526182335568,-0.226198346747,-12.3994293213,-0.357956320047,0.567016780376,0.392755150795,-5.10438299179,0.200267985463
2017/07/09/10:04:18.196291,424286,1499565860,999802204,,0.8009503454,0.171960916695,0.166912291648,0.72774548655,0.68191625814,0.0449214275823,0.0579550604671,-0.0315093236526,-0.313677855542,-0.0320544779137,-0.324682496282,0.0955675147873,-0.189169413432,-12.3689613342,-0.210199147463,0.60850840807,0.294850021601,-5.10223054886,0.166366696358
2017/07/09/10:04:18.205411,424287,1499565861,9803751,,0.801183673079,0.169462955766,0.167306550165,0.728277915114,0.681308155822,0.0438751703977,0.0592067951349,-0.0332707495322,-0.295228513249,-0.0251380907952,-0.336527230942,0.121750224434,-0.166079111847,-12.2792453766,-0.0772208124399,0.308757215738,0.282846599817,-5.15164422989,0.181625902653
2017/07/09/10:04:18.215400,424288,1499565861,19797017,,0.800546562616,0.16632329609,0.166550620986,0.729158282541,0.680447177689,0.041934878187,0.0596766568183,-0.0377426888596,-0.298734601618,-0.0231389536094,-0.33397474626,0.1323616127,-0.190415280954,-11.7472791672,-0.111560113728,0.0439513251185,0.289662718773,-4.99761247635,0.213987082243
2017/07/09/10:04:18.225309,424289,1499565861,29806474,,0.800026751353,0.162682202103,0.166343133779,0.729866479628,0.679716851695,0.0401069080855,0.0605917433443,-0.0421661955923,-0.313879205702,-0.0279972916174,-0.343759569666,0.147054562046,-0.237425884225,-11.3715991974,-0.402018249035,-0.0256795790046,0.247570902109,-4.80396938324,0.213848441839
2017/07/09/10:04:18.235342,424290,1499565861,39830627,,0.799075141868,0.160288389243,0.165736482598,0.73047393594,0.679191390059,0.0379428316139,0.0605576263657,-0.0490579284739,-0.304249000081,-0.0448091790342,-0.346415857383,0.1799458949,-0.187258952732,-11.5192785263,-0.142487570643,-0.243975132704,0.167592957616,-4.84453058243,0.204491332173
2017/07/09/10:04:18.245515,424291,1499565861,49798022,,0.799146420192,0.157876166151,0.165733755114,0.730851663934,0.678784718759,0.0366590420335,0.0613454606495,-0.0698079351605,-0.316887576214,-0.0469824507903,-0.363695480433,0.232443179051,-0.188969822308,-10.7460298538,0.260894060135,-0.0882134288549,0.068991586566,-4.58666419983,0.195425480604
2017/07/09/10:04:18.255823,424292,1499565861,59810705,,0.79838012266,0.154511569809,0.165513079091,0.731494222277,0.678132779348,0.0343361459307,0.062234760639,-0.0646380950414,-0.308822175686,-0.0500711157675,-0.375620931188,0.239646123406,-0.171612315885,-11.2040710449,-0.126706421375,0.108584821224,0.174601137638,-4.7992773056,0.219222009182
2017/07/09/10:04:18.265621,424293,1499565861,69803882,,0.797869390043,0.151627627067,0.165124885848,0.731616696911,0.678055059929,0.0319608175886,0.0629035026433,-0.0518436217628,-0.314018970196,-0.0145538283101,-0.399411532075,0.203676645691,-0.177427744778,-11.6280708313,0.121774442494,0.105998024344,0.086654625833,-4.99287557602,0.243851944804
2017/07/09/10:04:18.275779,424294,1499565861,79801758,,0.797084899572,0.148970921449,0.164692659223,0.731949581608,0.677746771511,0.0297718510279,0.0634252361224,-0.0652879869506,-0.3185539888,-0.0187236401031,-0.419665216796,0.235453489504,-0.17167128178,-11.4685096741,0.795619189739,-0.592268288136,-0.121194303036,-4.92022752762,0.207375377417
2017/07/09/10:04:18.285625,424295,1499565861,89807078,,0.796457023985,0.145110018005,0.164404110282,0.732649453901,0.677018606796,0.0270458774943,0.0643358707201,-0.0744474272665,-0.306819126321,-0.0393286458899,-0.403369465627,0.278954298792,-0.181391871405,-11.1125202179,-0.287583172321,-0.709665358067,0.184731706977,-4.80226421356,0.341279238462
2017/07/09/10:04:18.295415,424296,1499565861,99814595,,0.79591106445,0.142723486993,0.164230164873,0.732830822473,0.676852961315,0.024953401533,0.0648566276075,-0.0580669556863,-0.316187855892,-0.025882885545,-0.444445641903,0.240849043303,-0.169195106248,-10.134604454,0.172629237175,-0.900302708149,-0.0636347159743,-4.44388437271,0.222378537059
2017/07/09/10:04:18.304393,424297,1499565861,108828273,,0.795611801011,0.13960695446,0.163979621748,0.733719206881,0.675873062166,0.0231226139776,0.0657044444077,-0.0478379466115,-0.296572805359,-0.0193914161527,-0.428138793026,0.226098485241,-0.13925575672,-10.2313623428,-0.666265666485,-0.472574681044,0.225706875324,-4.46284914017,0.335333168507
2017/07/09/10:04:18.315583,424298,1499565861,119810155,,0.795130216645,0.136983279471,0.163735655701,0.733842328041,0.675751117989,0.0206363202347,0.0664078790375,-0.0740183185263,-0.326046792547,-0.050280027031,-0.425913777412,0.301744623666,-0.180379579466,-9.74113273621,0.473807930946,-0.583597123623,-0.07614723593,-4.33178091049,0.26393738389
2017/07/09/10:04:18.325419,424299,1499565861,129796949,,0.794200530012,0.134685367527,0.162882791712,0.733905409893,0.675761263867,0.0179048774731,0.0664001426988,-0.0621064424325,-0.312716074673,-0.0483030894185,-0.418423055245,0.2829605729,-0.172801626943,-10.2114982605,0.494708389044,-0.638945877552,-0.0790063738823,-4.52281284332,0.303932994604
2017/07/09/10:04:18.335407,424300,1499565861,139801586,,0.793476760148,0.131777172443,0.162438827435,0.734509899738,0.675113232291,0.0150772191276,0.0670075237292,-0.0511952576849,-0.282196960617,-0.0257825476889,-0.408897172515,0.274628897447,-0.146432638003,-10.3675909042,0.967186570168,-0.0427379049361,-0.205186367035,-4.57026004791,0.3253916502
2017/07/09/10:04:18.345774,424301,1499565861,149798304,,0.792668978202,0.128173376327,0.161953388168,0.735245404358,0.674337137689,0.0123454694929,0.0673142591601,-0.0578419937859,-0.275314566448,-0.0288469675357,-0.411321902682,0.297329547795,-0.151599271921,-10.4399003983,0.384889125824,-0.2705732584,-0.117486812174,-4.55123376846,0.350181698799
2017/07/09/10:04:18.355552,424302,1499565861,159798909,,0.792057194506,0.125654304618,0.161891796858,0.735574236415,0.673966097863,0.0101334082867,0.0678052777459,-0.0635879622134,-0.284912377566,-0.0237948436661,-0.423811133153,0.312303942327,-0.156948926889,-10.015253067,0.33897548914,-0.216628864408,-0.149522766471,-4.32291412354,0.333920419216
2017/07/09/10:04:18.365675,424303,1499565861,169799423,,0.791820037812,0.123131003086,0.161376703153,0.735955077807,0.673533714819,0.00787266018308,0.0682677059347,-0.0609700309877,-0.311659111772,-0.0144899663859,-0.458974616693,0.298589197578,-0.15927396469,-9.38802433014,0.109495438635,-0.725571215153,-0.0699422284961,-4.17122268677,0.353395134211
2017/07/09/10:04:18.375339,424304,1499565861,179809823,,0.791399877972,0.120358845549,0.161539957044,0.735868126445,0.673565029442,0.00526909075854,0.0691410751768,-0.055164748396,-0.301871356344,-0.0356462796241,-0.426418683701,0.31706990481,-0.182708333402,-7.89559459686,0.830864548683,-1.16974616051,-0.287443637848,-3.68391990662,0.276412814856
2017/07/09/10:04:18.385723,424305,1499565861,189805764,,0.79094532474,0.117019145712,0.161339554883,0.736712692738,0.67261162668,0.0027843457399,0.0695719442944,-0.0520380594464,-0.280792379736,-0.0176536534944,-0.408621990991,0.310519257312,-0.160098725133,-7.40739440918,0.236925184727,-1.45765185356,-0.182077810168,-3.43553566933,0.296420961618
2017/07/09/10:04:18.395610,424306,1499565861,199800462,,0.790035602636,0.11418321397,0.161500325684,0.737138170961,0.672116933503,-0.000334598985252,0.0699001620449,-0.0684013243367,-0.291398961704,-0.0201392839134,-0.42216385925,0.356794249857,-0.164647938456,-7.24033164978,0.329197376966,-1.01350712776,-0.157061383128,-3.42089152336,0.309710860252
2017/07/09/10:04:18.405400,424307,1499565861,209797786,,0.789601486321,0.112259653946,0.161157957801,0.737438017876,0.671786222835,-0.00256641786945,0.0698702662064,-0.0709991771526,-0.276314433797,-0.0109867735693,-0.417398682702,0.374319557919,-0.171093051305,-6.66260242462,0.421798139811,-0.959677398205,-0.195430055261,-3.19635367393,0.30708655715
2017/07/09/10:04:18.415671,424308,1499565861,219799958,,0.789088995508,0.109612391398,0.161227582203,0.737577627969,0.671558344086,-0.00515591331944,0.0704418182992,-0.068123907331,-0.277951569894,-0.0151282044143,-0.417240224865,0.382455855555,-0.158173810938,-6.14621067047,0.402047634125,-0.606878995895,-0.111370004714,-2.95417165756,0.286639392376
2017/07/09/10:04:18.425502,424309,1499565861,229799583,,0.787851151646,0.106364298592,0.160397034025,0.738237260511,0.670815122987,-0.0086312943351,0.0702731721467,-0.0637609751291,-0.25038641833,-0.0120072961486,-0.401133943336,0.378048186298,-0.12352346043,-6.03253793716,0.153551325202,-1.57212913036,-0.237121090293,-2.79633998871,0.248539716005
2017/07/09/10:04:18.435733,424310,1499565861,239810764,,0.788321091376,0.105057286312,0.160833319395,0.738028509351,0.670965033113,-0.010057480671,0.0708427188011,-0.0581859198123,-0.245940734989,-0.0139846406668,-0.383598452938,0.368529487836,-0.141936451811,-5.35088157654,0.826635360718,-0.884740054607,-0.35875633359,-2.60821270943,0.21647515893
2017/07/09/10:04:18.445555,424311,1499565861,249820424,,0.78754786691,0.103181815684,0.160798014188,0.738401229714,0.670536339097,-0.0125395512603,0.0706215375171,-0.0468435380614,-0.243481561572,0.000882459476687,-0.344952743282,0.325635034679,-0.171067204825,-4.50145530701,1.08985090256,-0.690993964672,-0.522620022297,-2.21470928192,0.15189114213
2017/07/09/10:04:18.455640,424312,1499565861,259810684,,0.786768414815,0.0999685493869,0.16058442252,0.739575054134,0.669211596704,-0.0150551150538,0.0704125106081,-0.0450913110046,-0.249218885975,0.00855432861815,-0.352239424366,0.320630981678,-0.155547877701,-4.29826307297,0.365006685257,-0.805246293545,-0.387908488512,-2.09580349922,0.179427504539
2017/07/09/10:04:18.465611,424313,1499565861,269797710,,0.786473602794,0.0985079836482,0.160823927566,0.73934907023,0.669393815269,-0.0172166375099,0.0705582016723,-0.0566881157314,-0.235864196534,-0.00997735647692,-0.325814106845,0.363603229527,-0.167599405828,-4.89928150177,0.0418790839612,-0.35480633378,-0.193281054497,-2.25433325768,0.209007412195
2017/07/09/10:04:18.475464,424314,1499565861,279806305,,0.786368597669,0.0959996630663,0.161230605992,0.739973588985,0.66858863654,-0.0192797647345,0.0711098682705,-0.0598257267036,-0.241197812323,0.00210645615013,-0.321149359701,0.359088001317,-0.202784887069,-4.83209180832,0.308271080256,-0.737868070602,-0.231116130948,-2.29116439819,0.243054002523
2017/07/09/10:04:18.485726,424315,1499565861,289805792,,0.785728200961,0.0935373216227,0.161097246043,0.74074974467,0.667701632857,-0.0214767471933,0.0707325567295,-0.054952259893,-0.230615547343,0.0095748801523,-0.31542068192,0.343312725044,-0.203318547438,-4.56897974014,0.392170071602,-0.717182278633,-0.255300790071,-2.12590432167,0.209303453565
2017/07/09/10:04:18.495651,424316,1499565861,299809768,,0.785204049979,0.0919092993564,0.161358800984,0.740998831483,0.667340685111,-0.0237289880649,0.0708101465976,-0.0588834611886,-0.221114458778,0.0222367548226,-0.30456011097,0.344832231366,-0.194381875679,-3.69892954826,0.900863289833,-0.434311449528,-0.331623136997,-1.77903330326,0.140160351992
2017/07/09/10:04:18.505492,424317,1499565861,309798832,,0.783859589635,0.0900225695998,0.160777251341,0.741386517112,0.66688369865,-0.0267915017368,0.0699598467327,-0.0473816203606,-0.196167814778,0.0196495550379,-0.278840633202,0.333009492794,-0.163041582006,-3.20569944382,0.408902347088,-0.83181643486,-0.196771547198,-1.46704018116,0.119528651237
2017/07/09/10:04:18.515637,424318,1499565861,319824116,,0.783697462228,0.0879995840285,0.161268023823,0.742080568046,0.66608960819,-0.028327792599,0.0695600500043,-0.0600947748786,-0.211444242741,0.00797785860182,-0.248101764549,0.366172754125,-0.200499574106,-1.87471652031,0.297389119864,-0.141589492559,-0.118844881654,-0.996801972389,0.064421415329
2017/07/09/10:04:18.525352,424319,1499565861,329796681,,0.782767472154,0.0860118244741,0.161053413355,0.742186334285,0.66587780019,-0.0310757339491,0.0692856346932,-0.0582388032015,-0.205251873162,0.0171562794488,-0.246865099737,0.365428031832,-0.197496017797,-2.65774774551,0.584211885929,-0.453511089087,-0.180916339159,-1.29012727737,0.128891333938
2017/07/09/10:04:18.535309,424320,1499565861,339826274,,0.782197038744,0.0838372384342,0.161703485121,0.743115705342,0.664772228276,-0.0331195764079,0.0689929463516,-0.0469802485028,-0.202352268087,0.0364562673507,-0.258718795198,0.32913171961,-0.209681359664,-2.5259437561,0.526960432529,-0.366218566895,-0.303996086121,-1.31659805775,0.100860521197
2017/07/09/10:04:18.545333,424321,1499565861,349797548,,0.782376569826,0.082070657689,0.162055952288,0.743596784512,0.664145315748,-0.0344485855486,0.0691962180075,-0.045077351642,-0.186541070764,0.0342984374475,-0.227925214408,0.330537872874,-0.205491611143,-2.61339330673,0.237227275968,-0.357344895601,-0.282655656338,-1.36769509315,0.113020271063
2017/07/09/10:04:18.555604,424322,1499565861,359833139,,0.782283469833,0.0802099251314,0.163039812931,0.744040460513,0.663548080905,-0.0360467092159,0.0693424271374,-0.0410234314707,-0.206280481953,0.0494272248212,-0.234579356145,0.306107379759,-0.231282579524,-1.68028080463,0.273279130459,-0.312401860952,-0.270306408405,-1.01840674877,0.0756105482578
2017/07/09/10:04:18.565352,424323,1499565861,369806512,,0.781682614225,0.0785122733977,0.16286054335,0.744579868726,0.662895594911,-0.0381184639898,0.0686821085674,-0.0441751472365,-0.204291227366,0.0396019402325,-0.22037614497,0.310052413499,-0.236756380221,-0.404441922903,0.844965577126,-1.15115630627,-0.374747246504,-0.55330991745,0.00263436511159
2017/07/09/10:04:18.575408,424324,1499565861,379800233,,0.781183438055,0.0762219926233,0.163067068091,0.745244806519,0.662062930019,-0.0401199823125,0.0683611151882,-0.0443949991314,-0.173058962655,0.0313779357401,-0.183869668686,0.320488741272,-0.219044776034,0.535615384579,-0.330397188663,-0.825750589371,-0.0824443101883,-0.142427071929,-0.0245155245066
2017/07/09/10:04:18.586113,424325,1499565861,389799241,,0.780740597512,0.0744399000504,0.16326596511,0.746320846153,0.660828492763,-0.0415990965577,0.0676787478885,-0.0356961614526,-0.182661375486,0.038662812085,-0.176877752991,0.298519036779,-0.243007466585,1.20919585228,-0.00844413042068,-1.38069784641,-0.276760548353,0.16201852262,-0.150871828198
2017/07/09/10:04:18.595525,424326,1499565861,399800580,,0.780617167792,0.0726878962831,0.16437607808,0.746743777951,0.660255182681,-0.0430963734172,0.0676721983666,-0.0280455010263,-0.182766624716,0.0454384736474,-0.169468821628,0.272811236021,-0.244191399931,-0.252644538879,0.0608471557498,-0.342050850391,-0.14855439961,-0.40543115139,0.00122184958309
2017/07/09/10:04:18.605691,424327,1499565861,409802547,,0.780244353272,0.0715021115628,0.164235142486,0.747648155361,0.659207247567,-0.0443740483559,0.0670744688508,-0.017441499063,-0.186479452018,0.063552088647,-0.155183915015,0.225466748638,-0.268142607734,-0.302703350782,0.740051269531,-0.661134243011,-0.359159737825,-0.362727999687,-0.0306097958237
2017/07/09/10:04:18.615531,424328,1499565861,419803866,,0.779772191422,0.0707765838078,0.164934481175,0.747892112659,0.65888873327,-0.046076373568,0.0663324414592,-0.0408489445206,-0.166929673255,0.0450824472846,-0.11424103152,0.274499540002,-0.26917602497,0.332466602325,0.876961410046,-0.510844886303,-0.266280531883,-0.0711288452148,-0.0266788844019
2017/07/09/10:04:18.625514,424329,1499565861,429796588,,0.779088296714,0.067318581138,0.165075419672,0.749376714737,0.657139360754,-0.0475883441193,0.0658615932251,-0.0673391673882,-0.167027272178,0.0354969177223,-0.109397286545,0.335944297065,-0.28320328004,1.14964985847,-0.525068759918,-0.745790719986,-0.00535550434142,0.263895213604,-0.0940309911966
2017/07/09/10:04:18.635812,424330,1499565861,439802295,,0.779134800442,0.0670765891566,0.165895808215,0.749623153321,0.656858527958,-0.0485038490272,0.0651872601263,-0.0566268331683,-0.182524182319,0.0298683451771,-0.0985790687369,0.307393986533,-0.30940715242,2.43007087708,0.605275392532,-0.349652647972,-0.165059715509,0.676730334759,-0.187084436417
2017/07/09/10:04:18.645243,424331,1499565861,449797917,,0.778162097289,0.0656222245518,0.165843628141,0.750681471427,0.655664872321,-0.0499966429801,0.0638845783556,-0.0443628477253,-0.153001474766,0.0525821787047,-0.0734763016907,0.27883811338,-0.261524422422,1.88909053802,0.770640850067,-0.676531553268,-0.299895375967,0.439354449511,-0.126005455852
2017/07/09/10:04:18.655465,424332,1499565861,459809942,,0.777974563142,0.0635135238745,0.166926754189,0.75149114705,0.654631364923,-0.0513366839309,0.0639013055213,-0.0493259687504,-0.166498878899,0.0555800488884,-0.0827979759269,0.274166213349,-0.305751498633,1.34677505493,0.636953353882,-0.391971498728,-0.306734263897,0.179370969534,-0.13184005022
2017/07/09/10:04:18.665715,424333,1499565861,469809431,,0.7777609821,0.061796336847,0.167312983988,0.752555391783,0.653365006116,-0.0524178722497,0.0634579998853,-0.0244409565674,-0.152708722589,0.0801308303281,-0.0617549718125,0.202670869676,-0.2981114329,1.33423864841,0.0147487707436,-0.534945905209,-0.120111785829,0.167387396097,-0.0808301717043
2017/07/09/10:04:18.675714,424334,1499565861,479801385,,0.777832524568,0.0610207134853,0.168340424855,0.753455172645,0.652366469085,-0.0526148545693,0.0628885514738,-0.00424955955115,-0.157814804489,0.0826187737237,-0.0329864782836,0.136569611491,-0.332787444533,2.05385446548,0.494128286839,-0.908983707428,-0.117146722972,0.480103582144,-0.150283426046
2017/07/09/10:04:18.685492,424335,1499565861,489797583,,0.777599788714,0.060160711109,0.16847112155,0.75420467696,0.651508234898,-0.0534105078175,0.0621260232609,-0.0177669995243,-0.143476699414,0.0649821758949,-0.0204233176576,0.166287546874,-0.307755909127,2.6848256588,-0.15950705111,-1.31842851639,0.00374283455312,0.824272990227,-0.188716307282
2017/07/09/10:04:18.695525,424336,1499565861,499812592,,0.777499944155,0.0587376621384,0.169135863657,0.754932374583,0.650679359082,-0.0539611111707,0.0614953652908,-0.0273274765317,-0.143473061529,0.0344759042393,0.0150560875044,0.191211684406,-0.319549862582,3.70480871201,0.00571477413177,-1.02441644669,-0.0667150765657,1.18425703049,-0.274742215872
2017/07/09/10:04:18.705401,424337,1499565861,509796454,,0.777236374723,0.0569942705334,0.169536114143,0.756165633042,0.649213763385,-0.0549164416317,0.0609853201703,-0.0299733323613,-0.139301237667,0.0436685000563,0.0163537057307,0.195290653949,-0.310923662453,3.83364963531,0.13870677352,-1.03770542145,-0.111747741699,1.28201603889,-0.291116893291
2017/07/09/10:04:18.715348,424338,1499565861,519814208,,0.776618615506,0.0553287840228,0.169876040849,0.757237204185,0.648008500736,-0.0555550390004,0.0599202571221,-0.0378046228445,-0.131658700995,0.0450386634144,0.0403043832094,0.203306880645,-0.319382232865,2.86288642883,-0.224565714598,-0.10329913348,-0.154251918197,0.90193772316,-0.241538137197
2017/07/09/10:04:18.725675,424339,1499565861,529799355,,0.776434396466,0.0554620509723,0.17001885328,0.757969488311,0.647263782163,-0.0557310903561,0.0585311597121,-0.0413951270546,-0.146753094039,0.0516114679211,0.0459629806964,0.186046668245,-0.341862730407,2.15721654892,1.06783533096,-0.165651872754,-0.377142906189,0.581842541695,-0.214034184813
2017/07/09/10:04:18.735490,424340,1499565861,539823294,,0.776295934562,0.0534144189472,0.170596178356,0.758807086002,0.646226935802,-0.0564891722724,0.0584082793111,-0.0505774032071,-0.149498194302,0.0352449579379,0.0392630878893,0.207257912425,-0.34133225883,2.66212725639,1.09454107285,-0.0759930461645,-0.384440898895,0.770451068878,-0.250498741865
2017/07/09/10:04:18.745730,424341,1499565861,549795979,,0.775442443,0.0514751938428,0.171105518836,0.760118308846,0.644652334388,-0.0576637608787,0.0576056855415,-0.0344115732887,-0.136319577966,0.0480641978934,0.0484581895647,0.162845330927,-0.334608677174,2.23420763016,0.170394480228,0.189111039042,-0.143411666155,0.597927510738,-0.172905221581
2017/07/09/10:04:18.755460,424342,1499565861,559804786,,0.775212426732,0.0498654357055,0.1716180222,0.761296957441,0.643302477539,-0.0577929485558,0.0569985971854,-0.0415720526494,-0.155109750566,0.0572115959604,0.0447334636747,0.149819199995,-0.369022493779,2.99364519119,0.145762547851,0.325619876385,-0.154502689838,0.853033959866,-0.248181819916
2017/07/09/10:04:18.765771,424343,1499565861,569798488,,0.774867990843,0.0496407154007,0.172095603051,0.761860085093,0.642739346436,-0.0579277374329,0.0556751337719,-0.0375524464444,-0.145341913021,0.0573821224107,0.0534994970465,0.145327221452,-0.333578986396,3.44108653069,0.323942363262,0.0399894230068,-0.172469735146,1.04854726791,-0.299811124802
2017/07/09/10:04:18.774445,424344,1499565861,578831197,,0.773677099204,0.0470131365717,0.171745342131,0.763199774126,0.641103030646,-0.0593791419929,0.0546546097417,-0.0476049667893,-0.144063363109,0.0360484123795,0.0658717415227,0.164053276609,-0.335802977782,3.45418405533,-0.339157819748,-0.714788377285,-0.0930888354778,1.12025976181,-0.297924906015
2017/07/09/10:04:18.786340,424345,1499565861,589802189,,0.773758753865,0.0462693433607,0.172641906694,0.764122459787,0.640076824259,-0.0591432366273,0.0540426040846,-0.0494577179909,-0.146385507945,0.0360170583916,0.0531419464667,0.166086273672,-0.333906909443,3.24359893799,0.277756839991,-0.362072855234,-0.191296815872,1.01832520962,-0.279986709356
2017/07/09/10:04:18.795382,424346,1499565861,599804100,,0.773766072649,0.0445658177698,0.173386637585,0.765098241619,0.638855982779,-0.0596482156036,0.0541276668091,-0.041301543311,-0.162705025646,0.0551574896353,0.00854687172068,0.123515658879,-0.331120824118,3.15033149719,0.149023115635,-0.0124782547355,-0.177077040076,0.990040302277,-0.288871258497
2017/07/09/10:04:18.805629,424347,1499565861,609798384,,0.773262673482,0.0430791481517,0.173737007648,0.766031534879,0.637772962092,-0.059919594188,0.0533945561606,-0.0346042406554,-0.154270338384,0.0595791262621,0.0203610608211,0.101440926782,-0.332310700946,2.95598769188,-0.0282151401043,0.158963754773,-0.152467370033,0.919766366482,-0.291298687458
2017/07/09/10:04:18.815629,424348,1499565861,619807916,,0.772967259345,0.0416263796262,0.174264604032,0.767137772791,0.636470500482,-0.0600578366666,0.0528960851922,-0.0462317189748,-0.146345068396,0.0389470241957,0.0372489586559,0.132548670578,-0.302488551471,3.06137347221,0.257649481297,-0.384255021811,-0.220939934254,0.973394215107,-0.301250576973
2017/07/09/10:04:18.825440,424349,1499565861,629796684,,0.772624095223,0.0408034374316,0.17422978755,0.767913316068,0.635620736552,-0.0601164493399,0.0517825336404,-0.0447448300394,-0.147692895628,0.0325914852871,0.0574898472634,0.126031861704,-0.315711449378,3.23001480103,0.137484759092,0.170181244612,-0.172127082944,0.988749265671,-0.309700548649
2017/07/09/10:04:18.835557,424350,1499565861,639803978,,0.77189521501,0.0385187972267,0.174779929189,0.768790391418,0.634477519939,-0.0610787190834,0.0516623734495,-0.0540243142857,-0.172825577847,0.0385935534049,0.052579616041,0.120281322683,-0.357454154888,3.13559675217,0.0564800053835,0.173430666327,-0.129834681749,0.972285449505,-0.316271662712
2017/07/09/10:04:18.846083,424351,1499565861,649801402,,0.771276137471,0.0362863585355,0.175676958393,0.770231137929,0.632715478078,-0.0615195271008,0.0512880663641,-0.050956385657,-0.163972641178,0.0454921590995,0.0377500379829,0.115065418519,-0.319232957356,2.60483121872,-0.486766010523,0.0272176638246,-0.0446870699525,0.802430868149,-0.279819756746
2017/07/09/10:04:18.855710,424352,1499565861,659804858,,0.771599648012,0.0357097473246,0.176193703437,0.770926137774,0.631929401156,-0.0612061786801,0.0509109589645,-0.0533758437105,-0.160504411401,0.0419176892359,0.0317133761714,0.12437779186,-0.299464592703,2.94190835953,0.645199656487,-0.216199964285,-0.346295237541,0.83503061533,-0.30071824789
2017/07/09/10:04:18.865385,424353,1499565861,669804859,,0.770926698672,0.0333338084825,0.176288158196,0.771846224172,0.630820060402,-0.0614926225162,0.0503797082346,-0.0393655281885,-0.162086637031,0.0474909333526,0.0378283889484,0.0704797698449,-0.311203088542,1.76854872704,0.195873275399,0.0943406522274,-0.252389967442,0.42572003603,-0.219519793987
2017/07/09/10:04:18.875646,424354,1499565861,679797936,,0.769930663536,0.0320720113359,0.176124835579,0.772440336547,0.630044582994,-0.0627119360296,0.0494667867865,-0.043550796861,-0.178127358487,0.0438022588601,0.0349954360063,0.0667582035014,-0.306728437884,1.92560529709,0.609803199768,-0.416330575943,-0.308622777462,0.550608634949,-0.263660132885
2017/07/09/10:04:18.885658,424355,1499565861,689806580,,0.769824556595,0.0315017456619,0.176494788225,0.772453539469,0.630082993786,-0.062528144204,0.0490018518647,-0.0590571284386,-0.163406650535,0.0215302688585,0.0394687854677,0.120787797814,-0.249577327435,2.9783372879,0.787748515606,0.150543391705,-0.298733919859,0.883772552013,-0.307205677032
2017/07/09/10:04:18.895668,424356,1499565861,699804526,,0.769268199209,0.0297049321972,0.176664807021,0.77365928729,0.628645856525,-0.0626208883991,0.0483147865556,-0.042847503257,-0.14321020276,0.031446654649,0.0376062596924,0.0846703838867,-0.206029837269,2.55569672585,0.245722174644,-0.0304167494178,-0.164468586445,0.760277926922,-0.281628549099
2017/07/09/10:04:18.905347,424357,1499565861,709797658,,0.768565060283,0.0275922595405,0.177183532824,0.774153965443,0.627990023324,-0.0632392438766,0.0481140980167,-0.0464925604058,-0.179119846669,0.0382229443996,0.0309578783601,0.0614014069073,-0.244781494362,2.35536503792,-0.0711888819933,0.0259067267179,-0.10595741123,0.704784452915,-0.266975134611
2017/07/09/10:04:18.915598,424358,1499565861,719804150,,0.767938062593,0.0254994118174,0.177567833446,0.775116176287,0.626743910722,-0.0639028718657,0.0479938183267,-0.0569020048915,-0.175015057706,0.0359377645339,0.0411385111312,0.082797335031,-0.252403971706,1.17748916149,-0.23201431334,-0.0785197168589,-0.017578907311,0.258197069168,-0.180010288954
2017/07/09/10:04:18.925603,424359,1499565861,729798000,,0.767424412446,0.0236749741675,0.177869246664,0.776080343773,0.62560745052,-0.0637929266752,0.047382279063,-0.0592601813777,-0.189118220808,0.0262033190426,0.0421967210621,0.0742893710477,-0.291521327707,1.4410777092,-0.0131076723337,-0.351578116417,-0.17227473855,0.278658986092,-0.204633414745
2017/07/09/10:04:18.935610,424360,1499565861,739803121,,0.766962653523,0.0228534736855,0.177765916602,0.777182071517,0.624337468592,-0.0635781870611,0.046352639134,-0.0503357221899,-0.140128839755,0.0319545663062,0.0715773414444,0.0734803033775,-0.259063796606,1.61956107616,0.46914178133,-0.355258822441,-0.294853448868,0.312620162964,-0.196589171886
2017/07/09/10:04:18.944703,424361,1499565861,748832703,,0.766429899695,0.0208107852465,0.177908187474,0.777729676493,0.623565798027,-0.064271398515,0.0465986390941,-0.0592741651629,-0.165239763861,0.0273144084259,0.0206833638708,0.0768669720954,-0.286875073665,1.32684159279,-0.212302669883,-0.735280811787,-0.167209014297,0.19337746501,-0.185963928699
2017/07/09/10:04:18.955688,424362,1499565861,759815667,,0.766332533655,0.0198476676485,0.178334891927,0.778549901126,0.622641987357,-0.0637455916582,0.0459728896233,-0.0541298706671,-0.173832416038,0.0207751843599,0.0212885558373,0.0592005389506,-0.311413189848,2.12776303291,-0.189771339297,-0.116384677589,-0.11021900177,0.466657400131,-0.224062591791
2017/07/09/10:04:18.965406,424363,1499565861,769797916,,0.76544373175,0.0177318703003,0.178293618823,0.779682369335,0.621204643175,-0.0642527222726,0.0455168312385,-0.0554752336468,-0.172715979409,0.0168031657061,0.0357225967579,0.0564444490924,-0.307441322056,1.11604917049,-0.412692010403,-0.649239242077,-0.0823187083006,0.103600382805,-0.146482497454
2017/07/09/10:04:18.975543,424364,1499565861,779799648,,0.764873732809,0.0158053978894,0.178769907807,0.780619863528,0.619988918107,-0.0646729677112,0.0454288161601,-0.0530609132474,-0.192103583017,0.0251474247257,0.0232476637525,0.0255919842763,-0.336578104271,0.174109399319,-0.157019495964,-0.53983849287,-0.0436900854111,-0.303134292364,-0.0921983942389
2017/07/09/10:04:18.985563,424365,1499565861,789803463,,0.765007494141,0.0145270422453,0.179349262908,0.781192104431,0.619337506752,-0.0639740586087,0.0454672247989,-0.0605134230522,-0.177270066713,0.0245169689773,0.00621452900317,0.0589765601629,-0.270757438351,-0.0442117452621,0.331846356392,-0.505577802658,-0.339896172285,-0.413168787956,-0.112005382776
2017/07/09/10:04:18.995349,424366,1499565861,799810890,,0.763686002887,0.0124534614055,0.179382013774,0.782120957635,0.618122527999,-0.0648905843579,0.0447276208938,-0.0658367851383,-0.196747236907,0.0131315269592,0.0363012398062,0.0573308366766,-0.30733936829,0.926179468632,0.37058198452,-0.577411413193,-0.33266711235,0.00853993371129,-0.145780265331
2017/07/09/10:04:19.005448,424367,1499565861,809797507,,0.76292389076,0.0109812853041,0.178721553891,0.783148427271,0.616921326498,-0.0646666198303,0.0436445421072,-0.072303197313,-0.176203270588,-0.00292790328531,0.0277220531635,0.0877264679841,-0.265697032488,1.49020385742,0.268349647522,-0.756660699844,-0.389961689711,0.283195734024,-0.202362805605
2017/07/09/10:04:19.015670,424368,1499565861,819798929,,0.762119734939,0.00856083832173,0.17922585314,0.784202203916,0.615490928975,-0.0653858672919,0.0438464146934,-0.0739999260407,-0.156874900517,0.00749486513748,0.0489834044286,0.0858509952232,-0.285106017446,1.37198412418,-0.217269524932,-0.510744273663,-0.254934936762,0.240815609694,-0.192170292139
2017/07/09/10:04:19.025448,424369,1499565861,829820269,,0.761275578404,0.00721093828393,0.179148613141,0.784716715993,0.61481696004,-0.0660029542889,0.0431670165005,-0.0715304179024,-0.190015124885,0.00666008349086,0.0231721835747,0.0578622068908,-0.313009570896,1.33917605877,0.343008100986,-0.40186265111,-0.337130963802,0.139249056578,-0.193072602153
2017/07/09/10:04:19.035970,424370,1499565861,839803975,,0.760491616589,0.00505137146769,0.17962133469,0.786085742936,0.613039786305,-0.0663078694778,0.0430661306098,-0.0793821292998,-0.179612550443,0.0163675132566,0.00548015781375,0.0799677591606,-0.30792220687,0.081830739975,0.205810442567,-0.281263530254,-0.331420838833,-0.367532849312,-0.0833005309105
2017/07/09/10:04:19.045654,424371,1499565861,849802634,,0.759725161023,0.0032915286188,0.179702481441,0.786684010379,0.612307825355,-0.0663589521422,0.042472159042,-0.0824230467707,-0.172526935427,0.00733479498549,0.0329454824525,0.0900410265894,-0.288149447519,-1.17242479324,0.113552868366,-0.519336938858,-0.371307849884,-0.888185143471,-0.0583680048585
2017/07/09/10:04:19.055666,424372,1499565861,859823570,,0.758922960074,0.00176513620032,0.179202889227,0.786704928525,0.612268260602,-0.0668545172489,0.0418736912432,-0.0986551212253,-0.206486929125,0.00248544055914,0.00698572129677,0.117818463791,-0.260203890271,-1.46602535248,0.734217524529,-1.3304541111,-0.469649493694,-1.03956210613,0.0240255519748
2017/07/09/10:04:19.065385,424373,1499565861,869801733,,0.758127790998,0.00027102910857,0.179352199556,0.786972142519,0.611943975613,-0.0670429130086,0.0412875940845,-0.0904405026146,-0.177750620481,-0.00323712595961,0.0412367721356,0.127808494169,-0.122287811688,-0.858453273773,0.439372450113,-1.29435300827,-0.405398488045,-0.805980324745,-0.0193774551153
2017/07/09/10:04:19.075495,424374,1499565861,879803773,,0.757474266252,-0.00139636605666,0.179731270816,0.787611033021,0.61116748916,-0.0668624869914,0.0408970499052,-0.0861076222091,-0.174251960698,0.00579783475486,0.0486123924978,0.105368968004,-0.0938616743833,-1.26378548145,0.537865698338,-0.643096446991,-0.457519978285,-0.95253610611,-0.060057349503
2017/07/09/10:04:19.085837,424375,1499565861,889799384,,0.756686867483,-0.00364669844486,0.179616038692,0.7883804114,0.610084858664,-0.0676431043093,0.0409536639243,-0.0951945110837,-0.175585918295,1.86087633316e-05,0.033796328687,0.111361270554,-0.175512770253,-1.55695593357,0.536370754242,-0.822132766247,-0.458624660969,-1.06928396225,0.00801536440849
2017/07/09/10:04:19.095650,424376,1499565861,899822262,,0.755491157289,-0.00527549940135,0.179495926635,0.789273579471,0.608939483688,-0.0680344729708,0.0401401599684,-0.0908407392554,-0.194673142535,0.00190828498157,0.0150278039145,0.0766763195132,-0.276048824373,-2.2967133522,0.392396211624,-0.869189977646,-0.40659019351,-1.26205515862,0.0315006822348
2017/07/09/10:04:19.105652,424377,1499565861,909811842,,0.754754169184,-0.00620030816691,0.179070982344,0.789885927071,0.60817278142,-0.0682167936234,0.0394025281292,-0.0898707173801,-0.159762241551,-0.0100425092048,0.0491605143443,0.0874395194828,-0.278807415318,-2.14386987686,0.799837768078,-1.04205274582,-0.516362309456,-1.2265111208,0.0281762182713
2017/07/09/10:04:19.115703,424378,1499565861,919803177,,0.753966511111,-0.00794146374713,0.179244413401,0.790499713036,0.60734466212,-0.0685457373342,0.0392956355979,-0.0877173629682,-0.170391642851,-0.0211574166452,0.0246708741786,0.0822282546299,-0.281416463658,-2.09201407433,0.846178174019,-0.852479934692,-0.511070251465,-1.13315939903,-0.00394357740879
2017/07/09/10:04:19.125670,424379,1499565861,929797846,,0.75364833912,-0.0100211007536,0.179167560241,0.791487878102,0.606112648129,-0.0680467378503,0.0392942497638,-0.0725812211054,-0.161867773305,-0.0112890196664,0.0161667994008,0.0506148453886,-0.235497676357,-2.05443382263,0.204476639628,-0.742089867592,-0.345691084862,-1.08871054649,-0.0437055081129
2017/07/09/10:04:19.135453,424380,1499565861,939817170,,0.752232906997,-0.0114161827006,0.178689461049,0.792229031215,0.605106345982,-0.0689961299625,0.0381969397024,-0.0896437694794,-0.180848321762,-0.0160532029429,0.00540426222813,0.082783762735,-0.255014838804,-2.61030626297,0.48169195652,-0.553111314774,-0.500133514404,-1.25485682487,-0.0427894741297
2017/07/09/10:04:19.145471,424381,1499565861,949799666,,0.751254819167,-0.0134191162575,0.179125246996,0.792970259845,0.604097673329,-0.0693710298493,0.0381028646972,-0.0983223519703,-0.187645526013,-0.0127451315361,0.0297030387901,0.0877362974136,-0.304599459933,-2.42340826988,1.42566204071,-0.447541713715,-0.677351355553,-1.23159408569,-0.0526934564114
2017/07/09/10:04:19.155809,424382,1499565861,959817075,,0.75039333546,-0.0148761435784,0.178129338896,0.793595763768,0.603303411209,-0.0695953986844,0.0372456471951,-0.0904981618351,-0.162740504563,-0.0173966227551,0.01678269438,0.0945327566724,-0.254020074428,-3.4803481102,1.03387176991,-0.686290323734,-0.682332873344,-1.64017212391,0.0541816800833
2017/07/09/10:04:19.165478,424383,1499565861,969802151,,0.749161713113,-0.016703150946,0.177593908835,0.794482409284,0.602111003717,-0.0701967442311,0.0365028442905,-0.103591692643,-0.153707596437,-0.0391822685702,0.0654330929376,0.12564240297,-0.249618717688,-3.44319844246,0.652634322643,-1.29077601433,-0.675713181496,-1.58779060841,0.0135199278593
2017/07/09/10:04:19.175468,424384,1499565861,979798882,,0.748482317835,-0.0172587833011,0.17778214926,0.794744185916,0.601781732048,-0.0703671295576,0.035901156026,-0.0987406892909,-0.152121119052,-0.0243647493198,0.0608788391062,0.096962247072,-0.264464928997,-3.55551314354,1.33686685562,-0.911726713181,-0.696134448051,-1.73347103596,0.0591264367104
2017/07/09/10:04:19.185788,424385,1499565861,989800173,,0.748225414832,-0.0190177730758,0.177998100664,0.795552793371,0.600718244321,-0.0701449551769,0.0362357442824,-0.0790577636158,-0.136043585947,-0.0141793281507,0.0558975540758,0.0630213621353,-0.220682012578,-3.5104842186,1.22880804539,-0.769853174686,-0.720997154713,-1.71920728683,0.0827559828758
2017/07/09/10:04:19.195502,424386,1499565861,999797503,,0.747179110894,-0.0207503159187,0.17708757373,0.796157255646,0.59987136767,-0.0707251985253,0.0358596266688,-0.0802653319444,-0.141034856204,-0.0187779965828,0.0265008052313,0.072580515838,-0.220194460676,-3.72535824776,0.69508433342,-1.4646064043,-0.499876379967,-1.78041136265,0.100364223123
2017/07/09/10:04:19.205333,424387,1499565862,9796830,,0.746745128359,-0.0216872681579,0.177283392038,0.796822378345,0.599021303883,-0.0706093034327,0.0355232477521,-0.0805926753297,-0.165012945279,-0.0353264322046,0.0283735425353,0.0591436068589,-0.237696138705,-4.09335136414,1.58843994141,-1.35753679276,-0.677837610245,-1.94880628586,0.15622626245
2017/07/09/10:04:19.215589,424388,1499565862,19799612,,0.746092807076,-0.0232480334097,0.176911327243,0.797301382348,0.598389490832,-0.0707136507531,0.0352150900107,-0.0666354788743,-0.140956532954,-0.0366454139638,0.0396716807336,0.0371734033771,-0.229219718209,-4.43450212479,1.04338526726,-1.46868610382,-0.623850703239,-2.03693151474,0.160361856222
2017/07/09/10:04:19.225648,424389,1499565862,29797899,,0.745271575717,-0.0242721138274,0.176414803722,0.797658694072,0.597877289696,-0.0712025404982,0.034836079898,-0.0668521530472,-0.141373523324,-0.0213077728074,0.0249136743413,0.0322912306357,-0.199424891619,-4.32743549347,1.29084825516,-1.67472910881,-0.701561510563,-1.95253992081,0.179146111012
2017/07/09/10:04:19.235627,424390,1499565862,39812366,,0.744346882588,-0.0257274672052,0.175748300042,0.7983996272,0.596934896458,-0.0712276488196,0.0339615476954,-0.0686285467444,-0.140875457704,-0.0332814319002,0.0181319903346,0.0467226963547,-0.193382061468,-5.11163711548,1.28755581379,-1.93159091473,-0.687889397144,-2.2199177742,0.21195435524
2017/07/09/10:04:19.245512,424391,1499565862,49803659,,0.743740491749,-0.0272886545563,0.175658881342,0.798663156092,0.596534524145,-0.0715503850165,0.0341213570845,-0.0829088775281,-0.162326903705,-0.0354073241275,0.0231554282987,0.0586389110116,-0.206819618798,-4.47658777237,1.06491065025,-1.38796722889,-0.65341937542,-2.01062178612,0.16310441494
2017/07/09/10:04:19.255621,424392,1499565862,59795497,,0.743180818405,-0.0280077652412,0.175287279593,0.799002951368,0.596091134005,-0.0716493129498,0.0337048901589,-0.0863822694157,-0.142554395997,-0.0434324389924,0.0267689541115,0.0872767678916,-0.182974086281,-4.46462917328,1.5986405611,-1.36782121658,-0.775930047035,-2.11087870598,0.195557773113
2017/07/09/10:04:19.265643,424393,1499565862,69798377,,0.742666747658,-0.0291457009264,0.175016604158,0.799726154329,0.595131263671,-0.0717096570427,0.0333853586294,-0.0650345386753,-0.109492791293,-0.0364194998545,0.0420247406075,0.0550810713221,-0.188254076921,-4.21606445312,1.60081577301,-1.25859618187,-0.748313307762,-2.0285756588,0.185449272394
2017/07/09/10:04:19.275525,424394,1499565862,79800488,,0.741535584407,-0.0312302274801,0.174518100905,0.800531211369,0.594017785886,-0.072093381286,0.0330937161713,-0.0802599452905,-0.104149016084,-0.0373956581307,0.0245342142899,0.104503488648,-0.162876576611,-4.34513092041,0.522673070431,-1.43437874317,-0.59387332201,-2.02940034866,0.177749991417
2017/07/09/10:04:19.285473,424395,1499565862,89827223,,0.740785108993,-0.0323786736128,0.174530525257,0.80131387377,0.592976544011,-0.0721983449793,0.0325928356843,-0.0897569849475,-0.129764763819,-0.0486972594122,0.0505046268308,0.0928046151642,-0.222189532306,-3.84265041351,0.900338351727,-1.22562527657,-0.505003929138,-2.00763320923,0.168113470078
2017/07/09/10:04:19.295544,424396,1499565862,99803783,,0.739803606088,-0.0331697899468,0.173579411248,0.801695113944,0.592454540587,-0.0727030837584,0.031572507472,-0.0711596428972,-0.126995175153,-0.0411312985312,0.0218689984215,0.0624506795539,-0.209595738792,-3.78176951408,0.65920650959,-1.73811805248,-0.526981055737,-1.93074917793,0.175567567348
2017/07/09/10:04:19.305580,424397,1499565862,109796153,,0.739130441207,-0.0343112501898,0.173421549564,0.802026900789,0.591961990185,-0.0730960423892,0.0314773120702,-0.0755267682733,-0.121006538112,-0.0399323951605,0.0205666691653,0.079062767355,-0.202397194105,-3.88349676132,1.12075543404,-1.93226504326,-0.6698127985,-2.03245186806,0.182357519865
2017/07/09/10:04:19.315542,424398,1499565862,119802503,,0.739053320844,-0.0342020214737,0.172796448991,0.802253884986,0.591718594439,-0.0728367726606,0.0308644385869,-0.0737514435077,-0.10318963559,-0.0353652889342,0.0395224620124,0.0801822445428,-0.177563902156,-3.56781578064,1.92083358765,-2.25800275803,-0.856478273869,-1.96328473091,0.169372051954
2017/07/09/10:04:19.325401,424399,1499565862,129803035,,0.737674887084,-0.0356864889668,0.172477645048,0.803047961572,0.590622616282,-0.0733153218153,0.030062603656,-0.0646336754796,-0.105696018925,-0.0439452524918,0.0370607337608,0.0696455534217,-0.165297698817,-3.93250846863,1.53569412231,-2.01969957352,-0.7549508214,-2.08882117271,0.195856273174
2017/07/09/10:04:19.335594,424400,1499565862,139814305,,0.737461926754,-0.0374324297072,0.172408413909,0.803665196551,0.589760364109,-0.0733259416771,0.0304675410122,-0.0750858602658,-0.110917919163,-0.0419425506988,0.0244437464355,0.0902945980948,-0.183923846184,-3.82603049278,1.03573358059,-1.84608340263,-0.630935370922,-2.06294775009,0.181829273701
2017/07/09/10:04:19.345927,424401,1499565862,149804409,,0.736690033947,-0.0379905089258,0.171637042199,0.803797883006,0.589562067671,-0.0737454977203,0.029784781419,-0.0709114015246,-0.117286390255,-0.0458023955862,0.0215961271013,0.0798342955962,-0.187803317429,-3.77297377586,1.07800126076,-1.6362067461,-0.591370344162,-1.99724841118,0.184688597918
2017/07/09/10:04:19.355762,424402,1499565862,159797041,,0.735927498196,-0.0395306515558,0.17152741367,0.804621224725,0.588435479031,-0.0738628362637,0.0295407034188,-0.0745878377605,-0.117226772009,-0.0542935780008,0.0422491184678,0.075041288675,-0.178663289322,-3.88063240051,1.31587052345,-1.30283784866,-0.657445907593,-1.95922613144,0.166409060359
2017/07/09/10:04:19.365575,424403,1499565862,169804722,,0.735248637333,-0.040228123518,0.170834024055,0.804940583436,0.587954211989,-0.074408717851,0.0290490008545,-0.0568145243773,-0.0961610768433,-0.0265494386858,0.01197450982,0.0502648889127,-0.156621920202,-3.78348898888,1.43882608414,-1.72027003765,-0.66235345602,-1.78418159485,0.158291101456
2017/07/09/10:04:19.375507,424404,1499565862,179801362,,0.734731898098,-0.0414347444164,0.170498215373,0.805433626442,0.587276586593,-0.0745019070203,0.0288504780781,-0.0713519865833,-0.0964182986011,-0.0406690899635,0.0392760393895,0.0849653993629,-0.170764988522,-3.8472340107,1.49091184139,-1.49506413937,-0.783850550652,-1.83202683926,0.135537981987
2017/07/09/10:04:19.385564,424405,1499565862,189799347,,0.733424761844,-0.0422741219051,0.170236239522,0.805941828844,0.58651991276,-0.075329717651,0.0278853741991,-0.0870207567951,-0.102993228059,-0.0515297524243,0.049247483063,0.124600177878,-0.170784093583,-4.44711780548,1.01747870445,-1.73642659187,-0.609596788883,-2.03397321701,0.185070440173
2017/07/09/10:04:19.395262,424406,1499565862,199795648,,0.732577841139,-0.0429267190182,0.169571213127,0.806202042096,0.58614568099,-0.0757356049216,0.0271224284395,-0.0975733548126,-0.0849769995281,-0.0505123305866,0.0704331333804,0.157828867268,-0.176782893404,-4.80695199966,1.3010327816,-1.8491975069,-0.643720626831,-2.31674933434,0.24538102746
2017/07/09/10:04:19.405242,424407,1499565862,209799777,,0.732069485305,-0.0435417462445,0.168988642455,0.806462497495,0.585772425751,-0.0760236724494,0.0266328104316,-0.0893019373163,-0.0786787658662,-0.0366756933382,0.0478500418124,0.145219657449,-0.157561839825,-5.18327569962,1.41758394241,-2.57258987427,-0.79555106163,-2.43403816223,0.212866708636
2017/07/09/10:04:19.415945,424408,1499565862,219804177,,0.731490090865,-0.0443380228909,0.168461806204,0.806910339489,0.585174200149,-0.0760608453813,0.0261076101235,-0.0857244529899,-0.0815986708298,-0.0465525106883,0.0513572357528,0.136951171193,-0.149804864055,-4.34278440475,1.514367342,-2.02410769463,-0.741324901581,-2.18262338638,0.239439249039
2017/07/09/10:04:19.425831,424409,1499565862,229797713,,0.730588006159,-0.0448199589115,0.168351735363,0.807169571188,0.584822082116,-0.0762962611847,0.0252843063344,-0.0805091033973,-0.0724353280116,-0.0528346766874,0.0787529737043,0.117794442737,-0.143104678556,-4.21326494217,0.969232022762,-1.49545013905,-0.487812936306,-2.10799050331,0.203451827168
2017/07/09/10:04:19.435465,424410,1499565862,239797094,,0.729810369044,-0.0457943934648,0.167725637416,0.80761040711,0.584154467302,-0.0768566795646,0.0249407190062,-0.0670173087108,-0.0813202373929,-0.0407381050149,0.0538593251092,0.0775441435974,-0.141523860338,-4.07643890381,1.21547758579,-1.34168624878,-0.614057660103,-1.94395411015,0.171201914549
2017/07/09/10:04:19.445333,424411,1499565862,249796872,,0.72941759854,-0.0457628482843,0.167519970603,0.807692336901,0.584055309715,-0.0769389028244,0.0243493190501,-0.0520931513,-0.0553551776143,-0.0426188479594,0.0521412628592,0.0693096799103,-0.122744730231,-3.74918150902,1.2250264883,-1.00387680531,-0.495694756508,-1.74774861336,0.128142163157
2017/07/09/10:04:19.456350,424412,1499565862,259799352,,0.728765723358,-0.0469100350182,0.166740745614,0.808063100406,0.583522858252,-0.0772096414989,0.0239535157877,-0.0475539564853,-0.0597175430097,-0.0385806505294,0.0521545600443,0.0541040664297,-0.116982411364,-4.62765645981,1.08016872406,-1.56782925129,-0.632498264313,-1.96661877632,0.139929875731
2017/07/09/10:04:19.465693,424413,1499565862,269798204,,0.728722144789,-0.0470946011274,0.166486089757,0.80860048469,0.582846825673,-0.0767647832186,0.0237065817498,-0.0540660689031,-0.0855735210285,-0.0424333354132,0.0322838001312,0.0638884157366,-0.120961525102,-4.35168170929,1.17270231247,-1.16631364822,-0.453831076622,-1.88071894646,0.156534165144
2017/07/09/10:04:19.475745,424414,1499565862,279802447,,0.727864184112,-0.0480231926693,0.165607706523,0.808581601975,0.582809101228,-0.0774232706438,0.0231296700414,-0.0325154551262,-0.0582873645697,-0.0477046861653,0.0351851931821,0.0359869869414,-0.0950403211554,-4.74976682663,1.09598064423,-1.42213571072,-0.500725209713,-2.00309062004,0.162607163191
2017/07/09/10:04:19.485296,424415,1499565862,289799331,,0.727660321905,-0.0489860983705,0.165845722082,0.809110885962,0.582073556499,-0.077411664998,0.0231815263475,-0.0242495702604,-0.0386772755356,-0.03727625133,0.0291083126906,0.0312122354896,-0.0697982446994,-4.80004692078,0.866034507751,-1.0239341259,-0.569487333298,-1.97385704517,0.166105359793
2017/07/09/10:04:19.495474,424416,1499565862,299800048,,0.727946042124,-0.0492974999038,0.165867369123,0.80925239628,0.581936282565,-0.0768356762541,0.0236008687051,-0.0433754192246,-0.0673746399865,-0.0245761435136,0.00646344486033,0.0554601272204,-0.0777410305913,-5.00865507126,1.33577108383,-1.05848264694,-0.630204737186,-2.17753481865,0.16198861599
2017/07/09/10:04:19.505430,424417,1499565862,309797934,,0.727286946275,-0.0496090578312,0.165366864534,0.8090840588,0.582122813001,-0.0773898947515,0.0229525721739,-0.0437047760822,-0.0752612540242,-0.0346326480345,0.019911194617,0.0409460885687,-0.108090400438,-5.52862453461,1.41822946072,-1.11712646484,-0.627019882202,-2.33691573143,0.228296458721
2017/07/09/10:04:19.515604,424418,1499565862,319827795,,0.727235038292,-0.0499572944487,0.164945756379,0.80952052228,0.581533248269,-0.0772921253872,0.0228370864676,-0.0393173386122,-0.0533758086386,-0.0364174636775,0.0292190110054,0.0460979055309,-0.0945470093694,-4.57750034332,1.90581011772,-0.977493405342,-0.744710326195,-2.03238081932,0.170083731413
2017/07/09/10:04:19.525424,424419,1499565862,329799690,,0.726750837446,-0.05043115051,0.164593998752,0.809557202229,0.581506590666,-0.0772549396425,0.0223359717162,-0.0105734364224,-0.0173517516331,-0.0261449495453,0.0286018094932,0.0183996911018,-0.0343209939513,-5.54140329361,1.76112949848,-1.03991520405,-0.788546979427,-2.32776260376,0.217871025205
2017/07/09/10:04:19.535467,424420,1499565862,339796895,,0.726258909766,-0.0515009130736,0.164214035994,0.809804725731,0.581101165975,-0.077717856647,0.0223086495345,-0.0250683276997,-0.0213435398918,-0.0339234934249,0.0560650400164,0.0386948431588,-0.0301896120719,-4.72274398804,0.814431071281,-1.28390109539,-0.547393679619,-1.95953524113,0.139437183738
2017/07/09/10:04:19.545460,424421,1499565862,349798028,,0.726394268833,-0.0508430337887,0.164047769999,0.810045951575,0.580851043581,-0.0772316722976,0.0217460410478,-0.0374211580696,-0.054841191598,-0.0347502397514,0.0256439421626,0.0496397997585,-0.0525289091262,-5.2652759552,1.95088100433,-1.23327898979,-0.6468770504,-2.24755215645,0.199954241514
2017/07/09/10:04:19.554494,424422,1499565862,358833538,,0.725911801508,-0.0511968042973,0.163317978882,0.809907551365,0.580978367088,-0.0777991195946,0.021475386074,-0.0384298998612,-0.0436736974613,-0.0374607501498,0.0298057679957,0.0553344816612,-0.0725095022816,-4.8409576416,1.79896616936,-1.19777953625,-0.735635995865,-2.07959532738,0.167966961861
2017/07/09/10:04:19.565414,424423,1499565862,369806937,,0.725829157719,-0.0512411563384,0.163595581576,0.810075252274,0.580756940233,-0.0777122680457,0.0214537973144,-0.0186987695972,-0.0170647752577,-0.0308924493062,0.0196385836501,0.0381195555938,-0.0459455348869,-5.49031066895,2.11084628105,-0.961155414581,-0.828726232052,-2.31919169426,0.224430263042
2017/07/09/10:04:19.575356,424424,1499565862,379802866,,0.726001196022,-0.0515187520539,0.163185739282,0.810043677637,0.580805139874,-0.0776470168655,0.0215770847944,-0.0228983790925,-0.0137172121847,-0.0310678785653,0.00700355772824,0.0573912956351,-0.0236617874641,-5.72039747238,2.04788947105,-0.703033208847,-0.788641214371,-2.53782224655,0.257546246052
2017/07/09/10:04:19.585286,424425,1499565862,389795969,,0.72509381552,-0.0514713870116,0.162704870238,0.810298891349,0.58039084017,-0.0783194739639,0.0206939441294,-0.00966178052977,-0.010808635928,-0.032465022919,0.0229424663605,0.0247601932202,-0.0136094085452,-5.19071245193,2.33284163475,-0.894851565361,-0.76255774498,-2.26897859573,0.217223197222
2017/07/09/10:04:19.595237,424426,1499565862,399835734,,0.725286993197,-0.05157987536,0.162586360284,0.810255150254,0.580487823163,-0.0780427610009,0.0207317655408,-0.00183825941525,-0.0202319459399,-0.0219215771445,0.0163435388247,-0.00813650673937,-0.0434987398341,-5.11825466156,1.79521858692,-1.38566660881,-0.639547407627,-2.16896176338,0.201965346932
2017/07/09/10:04:19.605587,424427,1499565862,409797464,,0.725380114347,-0.0517882254151,0.162362053097,0.810291649253,0.58042381531,-0.0781233902261,0.0207935968867,-0.0195535607676,-0.00758409782943,-0.0295324850123,0.0314295167653,0.0435173986672,-0.0358008403505,-5.10892057419,1.70905840397,-1.14994513988,-0.620204269886,-2.25287342072,0.205913484097
2017/07/09/10:04:19.615512,424428,1499565862,419806870,,0.724728373169,-0.0517359679893,0.161803494326,0.810312939859,0.580386357801,-0.078397166322,0.0199624519713,-0.0145814462991,-4.98596755336e-05,-0.0197911259686,0.028186460437,0.0393023272666,-0.000878344139841,-5.1726899147,1.9368724823,-1.41450357437,-0.719398498535,-2.19865202904,0.168847113848
2017/07/09/10:04:19.625862,424429,1499565862,429801997,,0.724796024641,-0.052101403922,0.161977090939,0.810424925239,0.580192245253,-0.078572677644,0.0203650049713,-0.0124001172402,-0.00701733275557,-0.0149464831216,0.005587071002,0.0320313844055,0.00616030287272,-5.98612499237,2.02316188812,-1.14229345322,-0.789745986462,-2.50857591629,0.259739220142
2017/07/09/10:04:19.635702,424430,1499565862,439800065,,0.724923411324,-0.0518087417355,0.161545232274,0.810450733487,0.580231093556,-0.0781033718493,0.0200337207347,-0.00928610773763,0.00557485065279,-0.0242914709,0.00101631145183,0.0481547661755,0.0234374119057,-5.57837867737,1.72578644753,-0.872416138649,-0.659835994244,-2.42152047157,0.224669009447
2017/07/09/10:04:19.645737,424431,1499565862,449821550,,0.724939303682,-0.0521390481246,0.161966797178,0.810422165429,0.580207554576,-0.0784499018373,0.0205114674264,0.000323979619959,0.00474788449625,-0.0134111888073,0.0150714260832,0.00464553091904,-0.00725160101162,-5.6606965065,2.10443687439,-0.536158919334,-0.81088835001,-2.44631505013,0.253015309572
2017/07/09/10:04:19.654560,424432,1499565862,458831036,,0.724890605555,-0.0518414333003,0.161475646077,0.810331916976,0.580342968025,-0.0784828885801,0.0201161624906,-0.000617527806121,-0.00484428769983,-0.00501279971729,0.00154006924611,0.0040386494052,-0.0154746958517,-5.75590133667,2.1848282814,-0.877553462982,-0.77826166153,-2.50088977814,0.240450158715
2017/07/09/10:04:19.665345,424433,1499565862,469798053,,0.724697655464,-0.0517330446426,0.161594541768,0.810152789517,0.58055678997,-0.0787676111474,0.0200483089303,-0.0147347263051,0.0147003120767,-0.0221218341823,0.0287049770701,0.0494746272507,0.00214831340761,-4.81610870361,1.98969316483,-0.454864233732,-0.695845842361,-2.18960475922,0.194865435362
2017/07/09/10:04:19.675597,424434,1499565862,479818329,,0.725189769454,-0.0514799137763,0.161442337373,0.810125499932,0.580666525271,-0.0782140749492,0.0201399917981,-0.000734989828396,0.0250441780612,-0.00202065916361,0.0208304721251,0.0255134668838,0.0454184955617,-4.96624326706,1.60381889343,-1.16904044151,-0.582052588463,-2.28573775291,0.215079843998
2017/07/09/10:04:19.685590,424435,1499565862,489795592,,0.724401231238,-0.0516109169651,0.16110021158,0.810022081226,0.580717319546,-0.0790556970879,0.0195402012311,-0.00164034941814,0.000519934929823,-0.0129266533683,-0.0116057636631,0.0210701313903,0.00480875239367,-4.42013549805,1.48682010174,-1.28884005547,-0.503306925297,-2.00486469269,0.15915068984
2017/07/09/10:04:19.695378,424436,1499565862,499808892,,0.724456256897,-0.0517596171605,0.161360088413,0.810416458561,0.580128561232,-0.0792314059771,0.0199599710066,-0.00604024505189,0.00676138411047,-0.0136726792518,0.00705427837464,0.0241334673207,-0.0295406891104,-4.49882125854,0.875574290752,-1.17427539825,-0.383897423744,-2.04039359093,0.188363730907
2017/07/09/10:04:19.705383,424437,1499565862,509797086,,0.724634558835,-0.0507860366408,0.161053033635,0.810145094563,0.580608348935,-0.0786435975298,0.0193405136786,0.0110742441279,0.0107161232321,-0.00069312857935,0.00414679025754,-0.0153852377868,0.0137706330007,-4.4655418396,1.8235180378,-1.36857545376,-0.559248507023,-2.05890750885,0.171679005027
2017/07/09/10:04:19.715831,424438,1499565862,519796856,,0.725187775066,-0.051294547741,0.161792872796,0.810224954318,0.580505871683,-0.0783651373176,0.0201832008338,0.0235833993965,0.0173934522506,0.000406425820176,0.0080622900302,-0.0382845150553,0.0316350648591,-5.11647081375,1.3567289114,-1.16113471985,-0.405911624432,-2.32314443588,0.247722029686
2017/07/09/10:04:19.725787,424439,1499565862,529798330,,0.725144963178,-0.0510064163714,0.161158875767,0.809861314136,0.581002485022,-0.0785399255762,0.0198051598016,0.00196860957628,-0.000358452610942,-0.00158104200297,-0.00963497495908,0.00519507683567,0.0146491388191,-5.02587080002,1.84292817116,-1.53403055668,-0.649333655834,-2.25458264351,0.200477063656
2017/07/09/10:04:19.735497,424440,1499565862,539802997,,0.724893948515,-0.0512954902395,0.161246834374,0.810143795007,0.580608012092,-0.0785545524629,0.0197623377598,-0.000108077331301,-0.00158770264541,-0.00288031920048,-0.00217108335199,0.0032651322888,0.013199515952,-4.7615776062,1.56428253651,-1.1669639349,-0.504814982414,-2.18882751465,0.196006372571
2017/07/09/10:04:19.745363,424441,1499565862,549799188,,0.724889383255,-0.0513263738676,0.161099703642,0.809886336622,0.580905865817,-0.0789461635196,0.0200000019498,0.00212915483316,-0.00591801489892,0.00265099499827,-0.0261284198443,-0.00452177408553,-0.00201807591274,-4.81313943863,1.32407474518,-1.17033135891,-0.393402844667,-2.20389556885,0.21614164114
2017/07/09/10:04:19.755293,424442,1499565862,559796324,,0.724773301262,-0.0510334323198,0.160871809772,0.809920815354,0.58086015228,-0.0790174854291,0.0196467133935,-0.0117844363364,0.00255290711963,-0.0150082690225,0.00235358086271,0.0437422267552,0.0187260853117,-3.71959447861,0.769560575485,-0.956989586353,-0.139837563038,-1.80855679512,0.115877941251
2017/07/09/10:04:19.765703,424443,1499565862,569802982,,0.724988721702,-0.0512469523094,0.161093607678,0.81008576128,0.580656184838,-0.0787722235762,0.0198592843272,-0.00782770567875,0.00598694398669,-0.00619780200426,0.00618464520981,0.0338366801938,0.012466996193,-4.00530862808,0.597466349602,-0.900681138039,-0.157229870558,-1.94102752209,0.162363469601
2017/07/09/10:04:19.774343,424444,1499565862,578835500,,0.724777049229,-0.0509201661254,0.160780361388,0.809820691339,0.580969310082,-0.0792506358467,0.0196072777377,0.00774499922602,-0.0037051258476,0.0122025046587,-0.0151917729954,-0.0196225673037,-0.00065114707824,-3.72478938103,1.10726583004,-1.08152151108,-0.303726285696,-1.82096815109,0.117088288069
2017/07/09/10:04:19.785425,424445,1499565862,589799038,,0.725308992326,-0.0508548077556,0.160902273861,0.809897140385,0.580915953038,-0.0787585777729,0.0200090961863,0.00630366223337,-0.0101312035943,0.00395879811573,-0.011608883121,-0.026040791922,-0.0357918690589,-4.08857727051,1.35541069508,-1.14521718025,-0.39105451107,-1.93621659279,0.168658286333
2017/07/09/10:04:19.794305,424446,1499565862,598839649,,0.724648864053,-0.0509874864888,0.160715535792,0.809989090433,0.580806647458,-0.0788215722014,0.0191956089471,0.0110045815792,-0.00292790347318,-0.00832976313542,0.00726535800202,-0.0210061459459,-0.0057103981747,-4.95938920975,1.39847946167,-1.34485936165,-0.405466347933,-2.23132395744,0.197324365377
2017/07/09/10:04:19.805298,424447,1499565862,609796622,,0.725400528708,-0.051455401145,0.161104909032,0.810218466523,0.580502924823,-0.078479196891,0.0200849802646,0.0063781281017,-0.00210354474058,-0.00767849881158,0.0014682292532,-0.00953554929588,-0.00197332642065,-4.86643505096,0.852068543434,-0.974746644497,-0.399896860123,-2.18287348747,0.185179769993
2017/07/09/10:04:19.815832,424448,1499565862,619803715,,0.725982298167,-0.0507869005755,0.161305109071,0.810278418189,0.580528514122,-0.0776182284451,0.0202716531435,0.00897596458821,-0.00185257882783,0.00707519415294,0.00369999122743,-0.0241513111502,-0.00453973714166,-5.20790576935,1.60552036762,-1.16835772991,-0.494538664818,-2.35786128044,0.236928373575
2017/07/09/10:04:19.825308,424449,1499565862,629797225,,0.725321240289,-0.0509130987467,0.16072766153,0.809857995366,0.580961752446,-0.0788372015397,0.0199540770276,0.0111558591691,7.95865326654e-05,0.000634895203463,-0.00861839275623,-0.0209997729301,0.00492970689523,-4.46427297592,1.62014400959,-1.6820962429,-0.482579290867,-2.06644630432,0.172822505236
2017/07/09/10:04:19.835277,424450,1499565862,639801734,,0.7251832896,-0.0512775281548,0.161022426233,0.810206468024,0.580492672001,-0.0787296970935,0.019883956336,-0.0129567670638,0.0140966104798,-0.0210226991951,0.0211959647008,0.0527964933895,0.00603975358463,-4.13405036926,0.669055342674,-0.952352404594,-0.25790143013,-1.93506968021,0.15250697732
2017/07/09/10:04:19.845534,424451,1499565862,649806929,,0.725361160354,-0.0512046543042,0.161129368493,0.810152734986,0.580602176379,-0.0784733381801,0.0198895443229,-0.00291154612853,0.00124811470466,0.00246673490922,-0.012241332952,0.019880748832,0.0178893430878,-3.76044869423,0.328918009996,-0.552537441254,-0.0827581807971,-1.80590569973,0.137713938951
2017/07/09/10:04:19.855355,424452,1499565862,659797416,,0.72577976995,-0.0510222033969,0.161232463157,0.809922942622,0.580925455491,-0.078362571332,0.0202422724038,0.0157599349695,-0.011035226183,0.00061800457123,0.00131127148813,-0.0343220103002,0.00747520850848,-2.81583881378,0.418393671513,-0.25078523159,-0.0951320901513,-1.51482546329,0.0838298648596
2017/07/09/10:04:19.865430,424453,1499565862,669799566,,0.725672818484,-0.0515549726839,0.160847493321,0.810271198644,0.580451767461,-0.0782908498227,0.0201710964961,0.00320104788564,-0.007265282386,0.00018584333234,-0.00933061921812,0.00285978078211,-0.000527698514175,-3.09477639198,0.796256184578,-0.496146887541,-0.26272892952,-1.62005448341,0.0934184342623
2017/07/09/10:04:19.875644,424454,1499565862,679805989,,0.726051329301,-0.0516323511866,0.161065020412,0.810344761811,0.580357524065,-0.0780856271989,0.0207158415539,0.00751569402153,-0.0109730265258,-0.000845846187309,-0.0231147384425,-0.00833959812067,-0.0102965335499,-2.91819787025,0.622622013092,-0.473661482334,-0.181215465069,-1.55313706398,0.0895498096943
2017/07/09/10:04:19.885564,424455,1499565862,689801672,,0.725590474547,-0.0515164719663,0.160886652123,0.810081580036,0.580637456547,-0.0788285973894,0.0203477264914,0.0237074588324,0.00163527425769,0.00990162842039,-0.0212427651223,-0.0424307042637,0.00529196644523,-3.28982448578,0.790989279747,-1.28127098083,-0.268683731556,-1.56258022785,0.104163773358
2017/07/09/10:04:19.895517,424456,1499565862,699812953,,0.725838258309,-0.0523519060122,0.161104888125,0.810283637139,0.5804232403,-0.0782274917887,0.0207303891021,0.0208320646798,-0.0037529215871,0.00295793013055,-0.0060001032367,-0.0379101152666,0.0131317348224,-3.06010985374,0.0818256884813,-1.25187516212,-0.0990430563688,-1.43518936634,0.0551362931728
2017/07/09/10:04:19.905443,424457,1499565862,709799860,,0.726096224229,-0.0517749444188,0.161235437762,0.810386865362,0.58032111012,-0.0779497872259,0.020600200725,0.0155742757066,-0.0127537575375,-6.82076659217e-05,-0.00422538198265,-0.034125574359,-0.0038661823339,-1.57160532475,0.0176843553782,-0.876408874989,0.061870791018,-0.945831000805,0.0197252333164
2017/07/09/10:04:19.915805,424458,1499565862,719804018,,0.726090328917,-0.0525634392017,0.161141464578,0.810573329425,0.580057795321,-0.0779282183342,0.0207611295495,-0.00216937631789,-0.0305527657657,-6.69393201145e-05,-0.0198094597093,-0.00909530719109,-0.0437158105821,-1.88137996197,-0.245143279433,-0.74463570118,-0.0614398270845,-1.04853224754,0.0553178265691
2017/07/09/10:04:19.925735,424459,1499565862,729797084,,0.725687795775,-0.0520643216819,0.161245466047,0.810167957228,0.580520749598,-0.0787465118133,0.0205554675279,-0.00141184819458,-0.0226185390976,0.00478569157589,-0.0242716743548,0.00451928082688,-0.0177869203554,-2.1582171917,0.511740922928,-1.02038049698,-0.364685297012,-1.14918577671,0.0711624920368
2017/07/09/10:04:19.935593,424460,1499565862,739811969,,0.726335583821,-0.0528689500025,0.161571524636,0.810292495463,0.580352136771,-0.0784414858535,0.0215499985857,0.00337291875564,-0.0340773761148,0.0157102921256,-0.0703173025046,-0.000234747067868,-0.0117369901633,-2.57688188553,0.177460044622,-0.397842407227,-0.413892865181,-1.3969758749,0.0960647687316
2017/07/09/10:04:19.945507,424461,1499565862,749799556,,0.726293994607,-0.0531617083873,0.161723213403,0.810202284578,0.580368329343,-0.079136256507,0.0219616316957,0.0136351096498,-0.0484389311514,0.0130137995079,-0.121455689537,-0.0105536835095,-0.000420140308847,-2.86818814278,0.874509572983,-0.678153336048,-0.477221608162,-1.45514917374,0.0943300873041
2017/07/09/10:04:19.955450,424462,1499565862,759803992,,0.726638075467,-0.0535553713156,0.161361375038,0.810060735664,0.580551224384,-0.0791133430969,0.0224267551216,0.00418569496257,-0.0349076416777,-0.00167401559936,-0.113292237574,0.0189551786314,0.0192506434764,-2.57473421097,0.310714960098,-1.10988140106,-0.271911919117,-1.38786709309,0.0605963245034
2017/07/09/10:04:19.965498,424463,1499565862,769796304,,0.726720279714,-0.0535102781928,0.161083380176,0.810003223726,0.580618622903,-0.0791969910346,0.0224639467094,0.00637319954054,-0.0302557912522,-0.00822787140262,-0.0876034750602,0.0160993617417,0.0443003066726,-2.20086789131,0.290865033865,-0.850750684738,-0.178825169802,-1.20631444454,0.0268970578909
2017/07/09/10:04:19.975621,424464,1499565862,779803068,,0.726803165931,-0.0538351466683,0.16124432121,0.810071271135,0.58046435949,-0.0794975098979,0.0229305247248,0.0109603447871,-0.0442111440913,0.00905219232637,-0.0849807748099,-0.0299680711138,-0.00953981738134,-2.56848025322,0.52541333437,-0.451496660709,-0.221054375172,-1.34509801865,0.0497653335333
2017/07/09/10:04:19.985699,424465,1499565862,789799369,,0.726609241741,-0.0547569532471,0.16201526042,0.81012672867,0.580352482128,-0.0796456689891,0.023286206075,0.00383077751817,-0.0406436621963,0.00524235331281,-0.0777085314573,-0.00787591320518,-0.0162491553386,-2.35294389725,0.637524843216,-0.528193056583,-0.207876309752,-1.25504720211,0.0420707687736
2017/07/09/10:04:19.995332,424466,1499565862,799804551,,0.727303805206,-0.0545751992462,0.162022980425,0.81005626614,0.580462865632,-0.0793880489022,0.0238588558263,0.0129914298798,-0.0152679673824,0.00407099515296,-0.0597694673847,-0.00771028212806,0.0163439508964,-2.00637888908,0.708112835884,-0.430784314871,-0.305428683758,-1.19799125195,0.0227728113532
2017/07/09/10:04:20.005724,424467,1499565862,809796277,,0.727487134401,-0.0542150401039,0.162347364157,0.81016639102,0.580386942683,-0.0788767080609,0.0236617951606,0.0229829371444,-0.00057666079043,0.0132793484757,-0.0309343186728,-0.0322462555695,0.0211895225577,-2.60131216049,0.821216464043,-0.536646068096,-0.265688419342,-1.41669678688,0.0843544825912
2017/07/09/10:04:20.015315,424468,1499565862,819799765,,0.727441708665,-0.0542358793112,0.161900291661,0.81028818259,0.580163519888,-0.0792953167082,0.0235712556954,0.0168235782343,-0.00666906643883,0.0161018078868,-0.0169074949278,-0.0336170801942,0.00498799054278,-2.89646959305,0.579201936722,-0.988728702068,-0.280495911837,-1.47791302204,0.062616571784
2017/07/09/10:04:20.025313,424469,1499565862,829798499,,0.727250632877,-0.0545925437918,0.162004167136,0.810305651974,0.580143340992,-0.0793005506314,0.0234494552213,0.00516433972704,-0.0208361974393,0.0100392489925,-0.00964585647978,-0.0190305859957,-0.0493636010361,-1.34593307972,0.0899916291237,-1.00261175632,-0.132527202368,-0.887082278728,-0.0179722309113
2017/07/09/10:04:20.035429,424470,1499565862,839804286,,0.727878381087,-0.0550347862183,0.16206383867,0.810126132556,0.580386085525,-0.079101078976,0.0243035055793,0.00602998682098,-0.0308915824398,-0.0041287595929,-0.00670136764299,-0.027036927478,-0.0576150849282,-1.00867319107,0.463506996632,-0.805517375469,-0.133322447538,-0.841372191906,-0.0214553698897
2017/07/09/10:04:20.045416,424471,1499565862,849804638,,0.727990936873,-0.0547057960307,0.161690434319,0.810361695148,0.580123451238,-0.0787384522482,0.023894779713,0.0160968363306,-0.00270839526781,-0.00148744847164,0.00403442044581,-0.0292089041643,0.00927002260218,-1.50318706036,0.62466365099,-1.27850627899,-0.218857169151,-0.99016392231,0.0133107677102
2017/07/09/10:04:20.055348,424472,1499565862,859812245,,0.727363006682,-0.0551553145269,0.161469882414,0.810745234145,0.579538137301,-0.079195888657,0.0235737978541,0.0135171277756,0.0125157452394,-0.0166536301471,0.0429369025437,-0.0114069022789,0.0116652831393,-1.2342621088,0.16252681613,-0.932556629181,-0.126985132694,-0.78443479538,-0.0165887251496
2017/07/09/10:04:20.065320,424473,1499565862,869798952,,0.727810659954,-0.0547163522457,0.161334380634,0.810325022347,0.580141859097,-0.0790417389104,0.0236893434264,0.0106390032186,-0.0116596955649,-0.0111166155957,-0.00397600780792,-0.0133358111106,-0.0201394879176,-1.78528559208,0.971940398216,-0.785942912102,-0.330983608961,-1.04816031456,0.0022047162056
2017/07/09/10:04:20.075350,424474,1499565862,879805778,,0.728261635532,-0.055015099806,0.161784007969,0.810446649027,0.579970254441,-0.0788599176397,0.0243278941557,0.00788700494996,-0.0205196716737,-0.0138460256792,-0.0128968537529,-0.0173754806439,-0.0378051177185,-1.27677667141,0.740734159946,-0.479300916195,-0.272633820772,-0.87623488903,0.0102764330804
2017/07/09/10:04:20.085748,424475,1499565862,889798853,,0.727682760983,-0.0556456631791,0.16114897759,0.810746494306,0.579518622533,-0.0792505998833,0.0238249979189,0.0185781434514,0.000699568469654,0.00418012238084,-0.0111381249253,-0.0306532492706,-0.00569240107004,-2.61056494713,0.612163186073,-1.0381500721,-0.338224828243,-1.29663741589,0.0510336831212
2017/07/09/10:04:20.095549,424476,1499565862,899804488,,0.728028499993,-0.0549244080627,0.161160761099,0.810456870933,0.57994325449,-0.0791125750726,0.0238050917625,0.0263992204985,0.00486747555652,0.0136922331502,-0.0210711734771,-0.0445507434763,0.00493163774059,-1.87949836254,0.539170384407,-1.42008292675,-0.258195757866,-1.01214849949,0.0237032547593
2017/07/09/10:04:20.105693,424477,1499565862,909804391,,0.728168494063,-0.0549978239623,0.161290721316,0.810606762062,0.579743325843,-0.0789944601779,0.0239630695134,-0.00507984123958,-0.00469682255665,-0.0124861880894,0.0105118994391,0.0194544151118,-0.0194368693921,-0.690978884697,0.0935322493315,-1.1248344183,-0.0389993041754,-0.599570989609,-0.0549259856343
2017/07/09/10:04:20.115299,424478,1499565862,919807992,,0.728072548526,-0.0550323865434,0.161190353732,0.810571061457,0.579807975508,-0.0789636003418,0.0237068700219,0.0105107082166,0.00772796386714,-0.000620372777265,0.0239625109175,-0.0155050892258,-0.00640928937729,-0.257246136665,0.0423735380173,-1.2738468647,-0.0583698675036,-0.424080729485,-0.0885818079114
2017/07/09/10:04:20.125369,424479,1499565862,929797559,,0.728430605561,-0.0556182782219,0.161704857955,0.810592561686,0.579766626998,-0.0788139573619,0.0244687000804,0.0126090949687,-0.0126441951441,-0.00393635854285,0.00753613822722,-0.0304215057399,0.00091080181009,-0.799426615238,0.0200318545103,-0.794510304928,-0.0895931497216,-0.605565905571,-0.0470487326384
2017/07/09/10:04:20.135361,424480,1499565862,939797078,,0.728087488969,-0.0554585362997,0.161160300078,0.810724054566,0.579614562214,-0.0788096776903,0.0237171102841,0.0110965547987,-0.00645834970814,-0.00312330570516,0.00137504852064,-0.0246350491519,-0.00296221007971,-1.70908033848,0.251408725977,-1.0421050787,-0.215817198157,-0.902823388577,-0.0231488496065
2017/07/09/10:04:20.145608,424481,1499565862,949802615,,0.72829055427,-0.0551588375341,0.160881213539,0.810777063089,0.579527326767,-0.0788808781997,0.0237999696183,-0.00636157888778,-0.0243081611477,-0.0103496292917,0.00180632035544,-0.000267236960472,-0.0512501079422,-2.29511094093,0.965111494064,-1.0343811512,-0.383051782846,-1.15007674694,0.0389122515917
2017/07/09/10:04:20.155412,424482,1499565862,959803874,,0.728327499647,-0.0550129284844,0.160858253346,0.810684954508,0.579681096284,-0.0787388517285,0.0236627211953,0.0176463770647,-0.00851896806451,-0.00612359706638,-0.0146366059079,-0.032047175847,-0.0249234292134,-1.99801647663,1.30083942413,-0.772848725319,-0.423486202955,-1.08656108379,0.0274057015777
2017/07/09/10:04:20.165530,424483,1499565862,969796470,,0.728019494582,-0.0552926450786,0.16023383689,0.810935935511,0.579298121667,-0.0790336606907,0.0234579455396,0.00812355441467,0.00843266147372,-0.0129521121973,0.0108774604997,-0.00400535961227,0.00524897093189,-2.37741756439,0.855252027512,-0.778996944427,-0.355467826128,-1.16519117355,0.0293633490801
2017/07/09/10:04:20.175334,424484,1499565862,979798297,,0.728756575338,-0.0548380030655,0.160524901317,0.810586472262,0.579875870999,-0.0783029076166,0.0237107544806,0.000173934221305,-0.00351731212467,-0.0104122640501,-0.00393687588067,0.00906347024968,-0.00413014181152,-1.52343714237,0.964453101158,-0.474536269903,-0.318657755852,-0.891915678978,-0.0118919759989
2017/07/09/10:04:20.185421,424485,1499565862,989834738,,0.728185582856,-0.0555433959969,0.16026224474,0.810983549726,0.579221790575,-0.0790344895789,0.0236928017153,0.00900609899614,0.0115878387167,-0.00178937989357,0.00927275392619,-0.00219631168668,0.0192044861955,-2.82249879837,1.0033261776,-0.793410420418,-0.423820793629,-1.34525680542,0.0725970566273
2017/07/09/10:04:20.195512,424486,1499565862,999803063,,0.728632436723,-0.0547232997585,0.160380405176,0.810726013807,0.579651564544,-0.0785333271631,0.0236624339819,0.00654866875138,-0.00714270448053,0.00512973895292,-0.00114395383182,-0.0098680173522,0.00559288312354,-2.55079674721,1.54691696167,-0.89789891243,-0.535508155823,-1.26552975178,0.059922337532
2017/07/09/10:04:20.205402,424487,1499565863,9797867,,0.72858734816,-0.0554527162625,0.160775069034,0.810823292045,0.579484321042,-0.0786238711391,0.0241204815475,0.00733090429907,0.00774214822186,-0.00950021812401,0.00665733314302,-0.00488176528161,0.012051967003,-2.71640372276,0.759459495544,-0.544222772121,-0.371075361967,-1.25594770908,0.0468655079603
2017/07/09/10:04:20.215452,424488,1499565863,19804210,,0.72853817343,-0.055154823095,0.16027969056,0.810846212007,0.579464211063,-0.0786516005285,0.0237397199956,0.0209992580381,0.0151544719794,-0.00814318348722,0.00250673280577,-0.0282966073587,0.0277813540713,-1.74141216278,0.525482535362,-0.815503716469,-0.154584735632,-0.880931019783,0.0167377814651
2017/07/09/10:04:20.225398,424489,1499565863,29795330,,0.729019004604,-0.0546839858579,0.160214108941,0.810544063988,0.579957529785,-0.0781180628466,0.0237729307677,0.0141411947089,0.00675241079354,-0.014172695942,0.00394621750999,-0.0160755297644,0.0256043602004,0.197573572397,0.251515477896,-0.590468227863,-0.0716649070382,-0.125868827105,-0.141838729382
2017/07/09/10:04:20.235277,424490,1499565863,39804311,,0.728919655341,-0.0555844526962,0.160392244266,0.81079294846,0.579554174486,-0.0784090431464,0.0241614469029,0.00180151197894,-0.0167321562936,-0.00955778103566,0.0100987054271,-0.0203742884808,-0.0358557983284,-0.670456290245,0.0796206593513,-0.92178940773,-0.0153433606029,-0.506784141064,-0.0668863877654
2017/07/09/10:04:20.245827,424491,1499565863,49803184,,0.728616878881,-0.0546957234794,0.159747758653,0.810536482499,0.579898912558,-0.078775564346,0.0232867390183,-0.0102893731378,-0.00748093853071,-0.0205785405492,0.00581985100172,0.0303795620081,-0.0228839456728,-1.51794826984,0.903770744801,-1.26501095295,-0.271885246038,-0.805728495121,-0.00343924760818
2017/07/09/10:04:20.255389,424492,1499565863,59802525,,0.728383594156,-0.0553420533973,0.15982217615,0.810817187091,0.579452317335,-0.0790709380773,0.0236281147023,-0.00284191845684,0.00988273290769,-0.0179885109741,0.0100226951706,0.0310857949982,-0.0022420968335,-2.04213523865,0.64878988266,-1.21004247665,-0.250428020954,-0.953541815281,0.0173640847206
2017/07/09/10:04:20.265354,424493,1499565863,69797274,,0.729455604397,-0.0549722969075,0.160284776149,0.810572450044,0.579917802892,-0.0779894881033,0.0241926613516,-0.000155173875991,-0.00213504086233,-0.00590331139159,-0.000258099866688,0.00697790808613,0.00221808411519,-1.72685325146,1.19367456436,-0.569687843323,-0.344877034426,-0.976165831089,0.0384638011456
2017/07/09/10:04:20.275836,424494,1499565863,79805688,,0.728171879486,-0.0552702879795,0.15913847071,0.810720584179,0.579629383116,-0.0789568573699,0.0229723157326,-0.00658491782732,-0.00858855022385,-0.0044867695518,-0.00205691002859,0.0137842001468,0.00398233224944,-2.45891809464,0.594401896,-1.18450820446,-0.282772868872,-1.11434221268,0.0217347443104
2017/07/09/10:04:20.285394,424495,1499565863,89795514,,0.728866628649,-0.0549170830829,0.159751383035,0.810621890352,0.579776123813,-0.0786721269407,0.0237169471291,-0.0116133726371,0.00295584429297,-0.0100783810846,0.0119140166518,0.031456410156,-0.00010274518396,-1.32799875736,0.897378921509,-0.809640407562,-0.21122995019,-0.754688084126,-0.00382306426764
2017/07/09/10:04:20.296511,424496,1499565863,99799024,,0.728239089621,-0.0550157420191,0.159526868404,0.810621202023,0.579740692219,-0.0791300173417,0.0230745957985,-0.00468991881658,0.00591846397208,-0.00115712002746,0.00591568233889,0.017684953292,0.00391405367734,-1.3091148138,0.504002511501,-1.10808897018,-0.223482400179,-0.715955734253,-0.0400878712535
2017/07/09/10:04:20.305265,424497,1499565863,109796436,,0.728421030717,-0.055304518391,0.159493857602,0.810792696563,0.579502786634,-0.0790103542082,0.0234326142611,0.00432119205002,0.0195086275834,-0.0154458032033,0.0161541907094,0.0149429385374,0.0264696981142,-0.715686917305,0.295577287674,-1.08055460453,-0.101141065359,-0.482992649078,-0.0544007718563
2017/07/09/10:04:20.315553,424498,1499565863,119800828,,0.728599656818,-0.0548730439958,0.159311547861,0.810387452422,0.580054931943,-0.0791246839995,0.0234037874704,-0.00504415266807,0.0220548828673,-0.0239532717492,0.026016070568,0.0374988527371,0.0329453107351,-0.486662149429,0.0317820310593,-0.931305110455,-0.0243371576071,-0.442333549261,-0.0720905959606
2017/07/09/10:04:20.325841,424499,1499565863,129797211,,0.728349945764,-0.0551110953346,0.15900718265,0.810529699089,0.579837334429,-0.079319890482,0.0232083491569,0.00617611945034,0.0120427600175,-0.0174310176923,0.0201857776247,0.0041176912699,0.0149562906234,-0.623719632626,0.199954777956,-0.999472379684,-0.123280465603,-0.426679253578,-0.0608831457794
2017/07/09/10:04:20.335545,424500,1499565863,139798551,,0.728443625569,-0.0552997951213,0.15889517224,0.810398163185,0.580028094944,-0.0792125867388,0.02340068983,-0.00619145523987,-0.00805658070074,-0.0210990185145,-0.0106158404497,0.0262728713801,-0.00650531130445,-0.781302928925,-0.61748945713,-0.843928396702,0.023157723248,-0.434191793203,-0.070786125958
2017/07/09/10:04:20.345981,424501,1499565863,149797065,,0.728589142634,-0.0543926056329,0.158654012564,0.810276030545,0.580247956996,-0.0790009141535,0.0228892614414,-0.000279098602132,-0.00196365249707,-0.0119287033883,0.00287633465238,0.00951495931048,0.00513307340065,-0.348772615194,0.595850944519,-1.04836702347,-0.213437393308,-0.320494860411,-0.0494230315089
2017/07/09/10:04:20.355399,424502,1499565863,159800666,,0.728685528672,-0.054313796671,0.158646032156,0.810365503129,0.580152175884,-0.0788314955856,0.0227332236863,-0.00370653618736,-0.000956616381049,-0.0183311866667,0.00957438817598,0.0145362012792,-0.018646403478,-0.869644165039,0.583409488201,-0.751531362534,-0.257216751575,-0.557980597019,-0.0279400795698
2017/07/09/10:04:20.365710,424503,1499565863,169795803,,0.728356407204,-0.055147122847,0.158422858691,0.810290482422,0.580165103023,-0.0793910353521,0.0231268423348,-0.0185558307637,-0.0137860242285,-0.0277275520831,-0.00492977600141,0.0506543680174,-0.0164473566851,-0.615448653698,0.228157535195,-1.04479146004,-0.0908221080899,-0.45373737812,-0.0382361747324
2017/07/09/10:04:20.375417,424504,1499565863,179804044,,0.728029361795,-0.0557128628486,0.158304134281,0.81054734669,0.579735991867,-0.0798844783181,0.0231872515055,-0.00747094325306,-0.0261548885321,-0.00255532638456,-0.0396078723208,0.00927320941141,-0.00397567762955,-0.725214898586,-0.110729500651,-0.867076098919,-0.0568641498685,-0.452208757401,-0.0579524450004
2017/07/09/10:04:20.384403,424505,1499565863,188828477,,0.727971113334,-0.0559980782815,0.158180173741,0.810686651614,0.579546856149,-0.0798563288666,0.0231421944113,-0.0114222857268,-0.0235222002033,-0.00982023065797,-0.0378494716903,0.029725305915,0.0166654939953,-1.209410429,-0.104152262211,-1.10268735886,-0.148830115795,-0.600702762604,-0.0511184707284
2017/07/09/10:04:20.395466,424506,1499565863,199803881,,0.727975684142,-0.0554502136092,0.157948353809,0.810501098389,0.579810791883,-0.0799258066415,0.0227877282465,-0.0156404085695,-0.00639697637701,-0.0135940576311,-0.0108665535714,0.0448639346102,-0.00616901967589,-1.17431426048,0.759171307087,-0.806235074997,-0.25624576211,-0.713366627693,-0.0196750313044
2017/07/09/10:04:20.405344,424507,1499565863,209798393,,0.727914766112,-0.0559238296059,0.157767507051,0.810473437003,0.57980109808,-0.0801973003574,0.0230626883269,-0.001604378386,-0.00985961904578,-0.0103967451669,-0.0208665030277,0.0125004368583,-0.0142538638432,-1.8712066412,0.52039295435,-1.10272288322,-0.257456660271,-0.885608673096,0.0125063508749
2017/07/09/10:04:20.415431,424508,1499565863,219804208,,0.727320834849,-0.0559824529007,0.157329490782,0.810508692227,0.57970657977,-0.0806514812206,0.0226114964784,-0.0146045494406,-0.0161671881935,-0.014731819534,-0.0292370203266,0.0405344158795,-0.00438692671637,-1.11405611038,0.489608317614,-1.06569314003,-0.173560932279,-0.57369852066,-0.0367868691683
2017/07/09/10:04:20.425454,424509,1499565863,229799369,,0.727669402139,-0.0552333117551,0.15748611602,0.810259136759,0.580139226201,-0.0801272714112,0.0223210639958,3.58879861683e-05,0.00070451907548,-0.0207361893244,0.0101286266535,0.016041059427,0.00635483727888,-0.228160947561,0.523672699928,-0.5519541502,-0.156763374805,-0.29833316803,-0.0877700001001
2017/07/09/10:04:20.435483,424510,1499565863,239807476,,0.728039893195,-0.0551477027573,0.157094611503,0.810206087498,0.580191955126,-0.0801957785488,0.0226280377158,-0.00281053668934,0.0111631122333,-0.0136013780465,0.00976723422057,0.02330605036,0.0184621566393,-0.701256096363,0.725044250488,-0.848045706749,-0.274059563875,-0.466683804989,-0.0728614777327
2017/07/09/10:04:20.445576,424511,1499565863,249806632,,0.72745265842,-0.0563170423656,0.157681294421,0.810354006123,0.579876238288,-0.0808612774883,0.0230518292862,-0.00419953921654,0.00303403472448,-0.00628186953611,-0.0124263397441,0.0197579538021,0.0265911822702,-1.04035210609,0.162159115076,-0.509771704674,-0.136776074767,-0.561830282211,-0.0645203739405
2017/07/09/10:04:20.455247,424512,1499565863,259795067,,0.727837076081,-0.0550429244024,0.157090187672,0.810138668497,0.580270356212,-0.0803412021597,0.0225153890287,-0.000402158734711,-0.00436939073083,-0.00571997598813,-0.00524312653892,0.00190007099665,-0.00700482501097,-1.24604189396,0.746951758862,-0.72283500433,-0.270784795284,-0.643484950066,-0.0370730385184
2017/07/09/10:04:20.465432,424513,1499565863,269798897,,0.727994504105,-0.0553732162852,0.157794623085,0.810414322661,0.579913223859,-0.0800429507148,0.0228561689917,-0.00243509135277,-0.0052027385689,-0.00638578787511,0.00293459493444,0.00765177610354,-0.0111247739503,-1.32717227936,1.00383973122,-0.133706569672,-0.301565647125,-0.709670364857,-0.0208445712924
2017/07/09/10:04:20.475533,424514,1499565863,279832849,,0.727952220526,-0.0557436726203,0.157900604439,0.810269937213,0.580034448339,-0.0804985466012,0.0232948832285,2.98153684231e-06,-0.00679077651426,-0.00289642246525,-0.00726773980442,-0.000857027001992,0.0132096494267,-1.77931821346,0.705274343491,-0.314353257418,-0.327112644911,-0.810762166977,-0.0168855860829
2017/07/09/10:04:20.485501,424515,1499565863,289797172,,0.727881149375,-0.0560594993109,0.1572107677,0.810218714786,0.580146105092,-0.0802761550549,0.0230623044526,0.0131111196321,-0.00740073123314,-0.00319461898089,-0.00404656210243,-0.0329642687437,-0.000790356765514,-2.48770332336,0.811106741428,-0.631107509136,-0.355860441923,-1.05142867565,0.024071328342
2017/07/09/10:04:20.495443,424516,1499565863,299815656,,0.72814645098,-0.0554099008391,0.15706074913,0.810240451305,0.580161962449,-0.0799767523495,0.0229396486664,0.00998325222202,0.00793049783449,-0.00936545869161,-0.00830705829158,-0.00639053397384,0.0335792927466,-1.71191811562,0.979438185692,-0.625911474228,-0.290763199329,-0.802488803864,0.0241909474134
2017/07/09/10:04:20.505728,424517,1499565863,309806269,,0.728215882842,-0.0555874877426,0.157293211453,0.810630360278,0.579630877385,-0.0798482541993,0.0230373887219,0.00404525298441,0.0236175329921,-0.0180300008937,0.0272833469316,0.0118621537157,0.00608184393511,-1.73526084423,0.612349867821,-0.0857851579785,-0.216363787651,-0.871455252171,0.0145791769028
2017/07/09/10:04:20.514720,424518,1499565863,318827248,,0.728025885365,-0.0555854307398,0.157108437683,0.810183480018,0.580209760993,-0.0802277818076,0.0228662410711,-0.003243211151,-0.000107301466038,-0.00432764596193,-0.00791062782711,0.0045769819503,-0.015954810533,-1.78054058552,0.555930972099,-0.152680233121,-0.204646855593,-0.806971132755,0.0119495540857
2017/07/09/10:04:20.525645,424519,1499565863,329830867,,0.728375904975,-0.0551251335144,0.15757019953,0.810355406958,0.580028328178,-0.0797597902497,0.0230136651538,-0.00143999740569,-0.00741756126121,0.0134756462632,0.00111600818552,-0.0126473074778,-0.0181591091141,-1.56528282166,1.00093114376,0.0563438050449,-0.277362257242,-0.785496473312,0.00372451543808
2017/07/09/10:04:20.535635,424520,1499565863,339804306,,0.728052623183,-0.0553291945637,0.156867557651,0.81021714789,0.580178339698,-0.0801738839433,0.0226586792094,0.00155797091897,-0.00111458672934,0.00475141280539,-0.00645412443477,-0.00178146598803,0.0156660730552,-1.70746946335,0.802396833897,-0.620229661465,-0.319613307714,-0.765261650085,-0.0105021670461
2017/07/09/10:04:20.545608,424521,1499565863,349798402,,0.727973200467,-0.0547480331626,0.157075125166,0.810094007389,0.580312582015,-0.0804596754547,0.0226107711934,-0.017575271544,-0.0114600249973,-0.0119662641791,-0.0174678924845,0.0476712214746,-0.00651665835525,-0.723443388939,1.19403731823,-0.394065827131,-0.28335288167,-0.421963453293,-0.0449021197855
2017/07/09/10:04:20.555572,424522,1499565863,359797762,,0.728070148169,-0.0556851826307,0.156852960395,0.810216289295,0.580125523284,-0.0804549846352,0.0230420755116,0.0017287478033,-0.00341757046045,-0.000233484000518,-0.00465058230819,-0.00122554362178,-0.00935634520662,-1.11064064503,0.389165997505,-0.673320353031,-0.214780256152,-0.527792811394,-0.0618414916098
2017/07/09/10:04:20.565682,424523,1499565863,369799378,,0.728347899463,-0.055948037351,0.157204577723,0.810393917657,0.579927938154,-0.0799953335878,0.0233673142943,0.0113867969,0.00810219085376,-0.00913791742377,0.00795022008025,-0.0138597749679,0.0179830634205,-0.657796442509,0.113466724753,-0.126795858145,-0.144187361002,-0.369552135468,-0.0843605026603
2017/07/09/10:04:20.575512,424524,1499565863,379803405,,0.728322376316,-0.0556922971797,0.157353171485,0.810217090726,0.580162684243,-0.0801280291534,0.0232169044304,0.00832601468229,-0.00258733954969,-7.39958384553e-05,-0.00423124867329,-0.0163977710909,0.00217198232366,-1.41885089874,0.991882741451,0.0781790837646,-0.278381317854,-0.755725264549,-0.000191815197468
2017/07/09/10:04:20.585418,424525,1499565863,389801160,,0.72830559988,-0.0553279830995,0.157083353314,0.810135519375,0.580267758747,-0.0802233777804,0.0231079653698,0.00407198908735,0.00301834395992,-0.00508295825051,-0.00525677539044,0.00208153127438,0.00784381788937,-1.85149526596,1.00059902668,-0.00962670519948,-0.291070729494,-0.901660501957,0.0332498028874
2017/07/09/10:04:20.595416,424526,1499565863,399795958,,0.728251148254,-0.0550650529554,0.156727469678,0.809978089922,0.580497549701,-0.0802690181763,0.0226930244438,0.00529057278803,0.00525225633035,-0.00648686124322,0.0121785015232,-0.00617356344988,0.0144426223622,-1.6149456501,1.0879496336,-0.0144286938012,-0.343134820461,-0.804210543633,-0.00776702910662
2017/07/09/10:04:20.605298,424527,1499565863,409796272,,0.728782974044,-0.0548143028913,0.157202600269,0.809819432785,0.580748154209,-0.0799420175466,0.0230941875246,0.00567424165155,0.00844293343267,0.00199447683628,0.0292403592584,-0.0143683024796,-0.00908103381475,-1.30237388611,1.15917479992,-0.0830896645784,-0.341697245836,-0.71743273735,-0.0215601250529
2017/07/09/10:04:20.615370,424528,1499565863,419801369,,0.72827432018,-0.0562398250577,0.1572510091,0.810354760797,0.579932265972,-0.0802883830378,0.0236115244383,0.012778920397,-0.00745315722238,-0.0052783033015,-0.0188762753924,-0.0273225768243,-0.00205519526729,-0.829791545868,0.00588780641556,-0.0118124969304,-0.0637083649635,-0.424362659454,-0.063254326582
2017/07/09/10:04:20.625635,424529,1499565863,429796177,,0.728516976039,-0.0559761586039,0.157445434897,0.810497078634,0.579752190381,-0.0801403166366,0.0236519116233,0.00775194816018,-0.0191827173277,0.0143646041612,-0.0396789683802,-0.0271619426393,-0.0331630443405,-1.09827661514,0.22826012969,-0.0234442129731,-0.0479715913534,-0.567293822765,-0.0539425760508
2017/07/09/10:04:20.635243,424530,1499565863,439798687,,0.728232905337,-0.0559980529535,0.156579588368,0.810447137836,0.579805334137,-0.0803944479839,0.0231936201014,-0.00109921256308,-0.0145769520058,0.00173833502803,-0.0104870526397,-0.000813476327858,-0.0299163703287,-1.23930048943,0.819219350815,-0.927076339722,-0.278802454472,-0.607252120972,-0.0497668795288
2017/07/09/10:04:20.645356,424531,1499565863,449843229,,0.72873627591,-0.0557145284243,0.156990586946,0.810278912339,0.580079108033,-0.0800472592341,0.0234253907408,0.00770769222695,-0.000159404613506,-0.00903873042396,0.00521022475942,-0.0063527124549,0.010300674336,-1.84822463989,0.93342924118,-0.678142905235,-0.26682433486,-0.869516730309,0.0255546867847
2017/07/09/10:04:20.655395,424532,1499565863,459798876,,0.728617032463,-0.0563658396894,0.156991476146,0.810544853672,0.579673176415,-0.0802013225521,0.0237444012916,0.00951659649729,-0.0101067194557,-0.000756998841417,-0.0224879673706,-0.0189123141578,0.00245302009291,-2.24722504616,1.17629909515,-0.880680382252,-0.459456622601,-0.989326238632,0.0272118151188
2017/07/09/10:04:20.665351,424533,1499565863,469824548,,0.728803180899,-0.0561591847998,0.157119970827,0.81066918713,0.579524707546,-0.0799706004938,0.0239015781473,0.0101562340542,-0.0140859396117,0.00420939173816,-0.0279936047759,-0.0293161179667,0.00519749122794,-2.14602804184,0.853979945183,-0.345143318176,-0.256668508053,-0.985374927521,0.047413110733
2017/07/09/10:04:20.675505,424534,1499565863,479801042,,0.729231345099,-0.0558221571434,0.156696583093,0.810254681728,0.580152538654,-0.0796374688451,0.0238381246628,0.00779470555575,-0.00295356728202,-0.0180314170184,0.00352296731168,-0.0147311328938,0.00275215619898,-1.71411955357,1.19133388996,-0.106901869178,-0.388562500477,-0.856938838959,-0.00425753742456
2017/07/09/10:04:20.685399,424535,1499565863,489796159,,0.728849357988,-0.0562571819408,0.156568534539,0.81054935089,0.579731174569,-0.0797542461124,0.0236806932164,0.0252811724305,-0.00226478627343,-0.00208933795543,-0.00181019990936,-0.0522141836349,0.0096738912446,-0.775044381618,0.415208846331,-0.0967655256391,-0.0882463604212,-0.461925536394,-0.030242588371
2017/07/09/10:04:20.695266,424536,1499565863,499804535,,0.729339565635,-0.0564027323437,0.156710376177,0.810386001188,0.579920132248,-0.0798111770207,0.0244406488117,0.017713087032,-0.00541261660121,-0.00398760557447,-0.0153462638226,-0.0352729929291,0.0159791750012,-0.716743350029,-0.146050184965,-0.216100096703,0.0988050922751,-0.398730456829,-0.058664880693
2017/07/09/10:04:20.704374,424537,1499565863,508826389,,0.729097438878,-0.0560025446539,0.156618640662,0.810422838253,0.579907332596,-0.0797433939429,0.0237339411429,0.0024567551772,-0.00156570923527,-0.00575549975153,-0.000936285868055,-0.00291256915873,0.00195453921279,8.33809757233,0.393019914627,-0.585556924343,-0.256134748459,3.11744761467,-0.548874914646
2017/07/09/10:04:20.715445,424538,1499565863,519800499,,0.729667625011,-0.0561895583476,0.156719426127,0.810340374852,0.58006444582,-0.079266530395,0.0243008794024,0.00312860108502,0.0034112990406,0.00203090889145,0.0196599571765,-0.0029026874443,0.00172849608512,7.64346599579,0.300431340933,-0.624775111675,-0.237577646971,2.84270906448,-0.534475386143
2017/07/09/10:04:20.725375,424539,1499565863,529797843,,0.729616798449,-0.055782521173,0.156529013662,0.810518167615,0.579836651705,-0.0792042804813,0.0240091494972,0.00200884519139,-0.0145478835874,0.00193344117078,-0.0169696418296,-0.00403806113394,-0.00653577826295,3.4019472599,0.305946409702,-1.00014805794,-0.176069051027,1.20379388332,-0.294333040714
2017/07/09/10:04:20.735439,424540,1499565863,539800537,,0.729130102015,-0.0555127848726,0.156010223719,0.810499080249,0.579809023856,-0.0797572334082,0.0234844733833,0.00277958768522,0.00319983519319,-0.00733562975381,0.00867238839962,-0.00122567147568,-0.0108542305095,3.14085054398,0.360445737839,-1.07719635963,-0.194341227412,1.12255394459,-0.269753843546
2017/07/09/10:04:20.745387,424541,1499565863,549796478,,0.729322341025,-0.0564789493178,0.1565680721,0.810654690723,0.579640811142,-0.079236818081,0.0240214305885,0.00509995172869,-0.00733337042414,-0.0097564269207,-0.00338573986355,-0.0224407604706,-0.0225854491999,4.19616937637,-0.0688883513212,-0.740524947643,0.015629850328,1.5060864687,-0.345960527658
2017/07/09/10:04:20.755740,424542,1499565863,559804439,,0.729989404036,-0.0557217705663,0.156677237515,0.81019847761,0.580343229864,-0.0787243851594,0.0241378045982,0.0181206332416,-0.0119971188216,0.00347367014772,-0.0141713130744,-0.05640578276,0.00445621249736,6.01953983307,-0.682202279568,-0.376218736172,0.214861527085,2.21219301224,-0.428947716951
2017/07/09/10:04:20.765494,424543,1499565863,569796936,,0.729419955254,-0.0559045557436,0.155741164872,0.810326514438,0.580083232861,-0.0794654345792,0.0236564506858,0.0111025015094,-0.0134311780609,0.00155675268798,-0.0249701124607,-0.0389415394003,-0.00145222445023,5.81622505188,-0.579687058926,-0.524078607559,0.197171479464,2.09777569771,-0.452872306108
2017/07/09/10:04:20.775357,424544,1499565863,579802172,,0.728955359042,-0.0561654887017,0.155255454103,0.810345100553,0.580055332306,-0.0795688145278,0.023354511919,-0.00231598597926,-0.00665728919184,-0.0129690306647,0.00205861536105,0.00160986092666,-0.00580807598639,5.14091587067,-0.52715921402,-0.656775951385,0.181284606457,1.86410069466,-0.398183614016
2017/07/09/10:04:20.785283,424545,1499565863,589797097,,0.73021104079,-0.0566593191104,0.156622272931,0.810586045388,0.579758766983,-0.0787635739604,0.0250266766885,-0.00229370714095,-0.0218971623114,-0.00823897795136,-0.00475288450682,-0.00889722273491,-0.0329269856021,5.18875074387,-0.269718468189,-0.507415354252,0.0991655066609,1.84667766094,-0.377082139254
