time,.header.seq,.header.stamp.secs,.header.stamp.nsecs,.header.frame_id,.pose.position.x,.pose.position.y,.pose.position.z,.pose.orientation.x,.pose.orientation.y,.pose.orientation.z,.pose.orientation.w,.twist.linear.x,.twist.linear.y,.twist.linear.z,.twist.angular.x,.twist.angular.y,.twist.angular.z,.wrench.force.x,.wrench.force.y,.wrench.force.z,.wrench.torque.x,.wrench.torque.y,.wrench.torque.z
2017/07/09/09:57:55.236406,385990,1499565478,39654523,,0.78014757065,0.401697892544,0.165769984225,0.620906206969,0.781354168892,0.0553250099685,0.0300048025126,-0.00950105992227,0.00730718782634,-0.00297562239245,-0.000225584779897,0.0134086399027,0.017265733281,5.61181640625,0.641993403435,-1.13990402222,-0.0749267488718,2.19329857826,-0.113350406289
2017/07/09/09:57:55.246159,385991,1499565478,49648565,,0.780635698256,0.401112305695,0.165665605617,0.621882483509,0.780566541149,0.0554785348494,0.0300030617468,-0.00441693297099,0.00456943962784,0.000303488335274,-0.000591501977861,0.00261242054003,0.00133047618047,5.8348274231,0.762111723423,-1.09272885323,-0.157540842891,2.31446552277,-0.127884507179
2017/07/09/09:57:55.256419,385992,1499565478,59655044,,0.780443931608,0.401490767185,0.165697872273,0.621232910372,0.781077910509,0.0555239234905,0.0300676355307,-0.0097549866101,0.00195987153411,-0.0117483152875,-0.000118752056264,0.0246215435225,0.00350797706733,6.24165964127,0.884514331818,-0.94303047657,-0.211214795709,2.47390055656,-0.106751918793
2017/07/09/09:57:55.266250,385993,1499565478,69658379,,0.780256032755,0.401355140539,0.165508344203,0.621377319899,0.78098057333,0.0553814336139,0.0298741896538,-0.00555812965814,-0.0113632510045,-0.00481671063118,-0.00181617774509,0.0192413777013,-0.00976369522664,6.09891986847,0.778359413147,-1.07677233219,-0.146927505732,2.38949131966,-0.110515639186
2017/07/09/09:57:55.276390,385994,1499565478,79652304,,0.780340810316,0.40090952303,0.165942904898,0.621677701099,0.780731665419,0.0554457081879,0.0300112647409,-0.00385799988989,-0.0114755907123,0.00460643794088,-0.0151676615493,0.00447784681765,-0.00490938051016,5.96270275116,0.683858215809,-1.13080501556,-0.10415866971,2.30179810524,-0.0885530412197
2017/07/09/09:57:55.286393,385995,1499565478,89663955,,0.78018138812,0.401337587461,0.165303030083,0.62141785139,0.780958272651,0.0553575858359,0.0296575124158,0.00392288664727,0.000890671051155,0.00421806555908,0.0196813078749,-0.00392171684776,-0.0214566215982,6.15502786636,0.945097386837,-1.21045649052,-0.240979894996,2.3800508976,-0.144727960229
2017/07/09/09:57:55.296356,385996,1499565478,99647030,,0.779747709801,0.401928677462,0.16526595357,0.62117777868,0.781178573041,0.0551481629632,0.0292725881714,-0.000851659406084,0.0239060807076,-0.0117661686796,0.0182326443364,0.000444451377081,0.0282642844518,6.33115148544,0.97749042511,-1.00802385807,-0.27314889431,2.47781634331,-0.127130761743
2017/07/09/09:57:55.306695,385997,1499565478,109651389,,0.78008840678,0.401587051866,0.165191989887,0.621158788567,0.781178569935,0.0552360296197,0.0295090205339,0.00435562755595,-0.00767109720307,-0.00391171045741,-0.00475557359062,-0.0126539717015,0.0106973344951,6.15916538239,0.660773932934,-1.00065672398,-0.120813861489,2.4200463295,-0.127685293555
2017/07/09/09:57:55.316204,385998,1499565478,119656800,,0.780075053622,0.401992049761,0.165437135259,0.62134343906,0.781016682487,0.0554634808213,0.0294800730941,-0.0051834452975,0.0104339424136,0.00268218887291,-0.000634792800429,0.00907336316389,0.0127233600891,6.23772382736,0.981407880783,-1.05765616894,-0.25944802165,2.42400288582,-0.166305795312
2017/07/09/09:57:55.326359,385999,1499565478,129647759,,0.77967034882,0.401481338202,0.165151727541,0.621138139708,0.781222286711,0.0549750578946,0.0292727374158,-0.00622211530905,-0.00752841824443,-0.00750334223311,-0.00470835820148,0.0232510697321,-0.0224674598736,6.30215978622,1.12712550163,-1.13179254532,-0.321104049683,2.43912029266,-0.131090536714
2017/07/09/09:57:55.336158,386000,1499565478,139649817,,0.779949940029,0.401131247137,0.165378616512,0.621586579884,0.780839062576,0.0552535414236,0.0294538320859,0.00422297657999,-0.008140145248,0.011525658043,0.00457182963044,-0.0083355367544,-0.0117280461585,5.92895030975,0.869030594826,-1.09737932682,-0.263486564159,2.3043255806,-0.16707649827
2017/07/09/09:57:55.346467,386001,1499565478,149650526,,0.779815912993,0.401621703686,0.165405315756,0.621448735048,0.780960631763,0.0553215894073,0.029008327931,0.0114844280885,0.0141550475695,0.0191819552561,0.0128704307644,-0.0384886337629,0.00530475593606,6.27069425583,0.779289245605,-1.0192220211,-0.241065397859,2.44152784348,-0.131768450141
2017/07/09/09:57:55.356444,386002,1499565478,159651118,,0.779983841716,0.401831405213,0.165531268048,0.621355779047,0.781006612756,0.0555136302249,0.0293922359839,0.00256773999077,0.0145255041357,0.0137106968885,0.0122468526847,-0.0183747335279,0.0165739720476,6.21603536606,0.88340061903,-1.0716547966,-0.265945613384,2.39832544327,-0.150704190135
2017/07/09/09:57:55.366415,386003,1499565478,169646540,,0.780036586253,0.402059042146,0.165853137337,0.62110298763,0.781186083776,0.0557986722995,0.0294259994251,0.00488879815208,0.0114000831334,0.0051474597739,0.0240207072117,-0.0125030151472,0.0100461843486,5.97640562057,0.80604916811,-1.19191777706,-0.245069414377,2.29170417786,-0.14161631465
2017/07/09/09:57:55.376473,386004,1499565478,179654486,,0.780542088235,0.401335426049,0.166044030623,0.621659319247,0.780725079256,0.055826399397,0.0298572360537,-0.00794137723407,-0.00516961939463,-0.0055205640838,-0.00335480214692,0.0234719457946,-0.0100523781899,6.08943033218,0.590406596661,-1.07319319248,-0.129453897476,2.35502433777,-0.11900138855
2017/07/09/09:57:55.386221,386005,1499565478,189646882,,0.779831841052,0.402104015087,0.165736288853,0.621224256128,0.781095420695,0.0557900129482,0.0292889368698,-0.0120239107702,0.0110018176935,-0.00322177431157,0.00294551413086,0.0237676194843,0.00375739792486,6.09966945648,0.665924727917,-1.15144777298,-0.1892773211,2.34163761139,-0.117289811373
2017/07/09/09:57:55.396162,386006,1499565478,199647246,,0.780171799292,0.401643260631,0.16594736476,0.621206530762,0.781109400172,0.0555962718899,0.029658146492,-0.00401003154224,0.0049759355052,0.000768914833629,0.00309747638688,-0.002810459971,0.0171098508749,6.5801987648,0.845935463905,-1.06617641449,-0.322347760201,2.53443336487,-0.141689971089
2017/07/09/09:57:55.406284,386007,1499565478,209650023,,0.779546821899,0.402315962314,0.165358353197,0.620890585694,0.781406687507,0.0552088633845,0.029162488225,-0.0132341498618,0.00848134108934,-0.0146933491408,-0.00366104789079,0.0259764048137,0.0331187009469,6.57141208649,0.930629134178,-1.11644864082,-0.339873313904,2.51149368286,-0.176536276937
2017/07/09/09:57:55.416363,386008,1499565478,219656256,,0.779980392023,0.401283410252,0.165585443934,0.621592334847,0.780823292667,0.0553772146321,0.0295181128787,0.0170730258077,-0.00427915988611,0.00848963373524,0.0167066809951,-0.0342131719675,-0.0283588318496,6.5253329277,1.0521068573,-1.15409052372,-0.386889994144,2.50248575211,-0.18829639256
2017/07/09/09:57:55.426172,386009,1499565478,229647246,,0.780121306482,0.40226084682,0.165834261918,0.621263268761,0.781045771435,0.0559767784715,0.0294287968567,0.00759660598878,0.0138981397834,0.00787356496698,0.0189201540837,-0.0194854300041,-0.00260335034346,6.35121059418,0.998340427876,-1.07336199284,-0.345763981342,2.42017674446,-0.154011130333
2017/07/09/09:57:55.436199,386010,1499565478,239650368,,0.779973933365,0.402578805489,0.165985641695,0.620982237041,0.781282591399,0.0558047684457,0.0294007053499,-0.00762457794243,0.011860692016,0.00293622670548,0.019078380047,0.0150081533926,0.000436315285652,6.20072221756,0.804512143135,-1.15994405746,-0.277071624994,2.38074803352,-0.15578623116
2017/07/09/09:57:55.446583,386011,1499565478,249649978,,0.779107741399,0.40168287673,0.165041031765,0.621393782079,0.781048289269,0.0549334513778,0.028559645381,0.00605014721439,-0.0140383079873,0.00110369747636,-0.00695220600893,-0.00415809892651,-0.0141397291339,6.5533323288,0.909499168396,-1.08240962029,-0.32887083292,2.54368972778,-0.145305305719
2017/07/09/09:57:55.456213,386012,1499565478,259648383,,0.780269422697,0.401321890626,0.165646659834,0.621648445925,0.780762576949,0.0555655946533,0.029588389711,-0.00187610448942,-0.00774752341739,0.0013776876763,-0.00678649611948,0.00573940256743,0.000398579707339,6.18193626404,0.964094877243,-1.15009999275,-0.338000774384,2.36549496651,-0.158967107534
2017/07/09/09:57:55.466384,386013,1499565478,269660091,,0.779849718517,0.40162632337,0.165401041561,0.62135653962,0.781036770308,0.0551327813167,0.0292914752777,-0.00364854207651,-0.0134209537955,-0.0115292977238,-0.0151032384806,0.017492587563,-0.0116121587524,6.12698698044,0.92698019743,-1.17365169525,-0.335833460093,2.36289930344,-0.198474466801
2017/07/09/09:57:55.476423,386014,1499565478,279647116,,0.779513480789,0.40242933777,0.16539927003,0.620965839128,0.781341587315,0.0553957997841,0.0289491957449,0.00835741421633,-0.01008372294,-0.00102901547744,0.00501166888741,-0.0129032081443,-0.0332899640158,6.25453281403,0.911271691322,-1.19851946831,-0.306398838758,2.41732215881,-0.157393634319
2017/07/09/09:57:55.486207,386015,1499565478,289645170,,0.780143351228,0.401361171442,0.165803196864,0.62160942797,0.780804134168,0.0555771112209,0.0292883566275,0.00403219480046,0.000150255852213,-0.00141288713089,0.0156844204552,-0.00628265632643,-0.00585855769335,5.82950782776,0.941633403301,-1.12724006176,-0.30491438508,2.2714407444,-0.180519461632
2017/07/09/09:57:55.496644,386016,1499565478,299652319,,0.780539956342,0.402161107966,0.166138468239,0.62126176593,0.781018273382,0.0561765808476,0.0298071568864,0.0048572504889,-0.00441430747478,-0.0057432821757,0.0110981942869,-0.00463442272558,-0.00203079789516,6.13667201996,1.34298729897,-0.93799495697,-0.487458109856,2.41696286201,-0.19186656177
2017/07/09/09:57:55.506246,386017,1499565478,309649568,,0.780726947965,0.400675162043,0.165861657326,0.622188235124,0.780296642131,0.0560462156754,0.029627218244,0.0108294374268,-0.0199236531539,0.00615620431842,-0.00785212148715,-0.0235967343766,-0.028128662309,5.99962091446,1.4012966156,-0.841712653637,-0.513051152229,2.38623118401,-0.213839069009
2017/07/09/09:57:55.516330,386018,1499565478,319645999,,0.780105363729,0.400760158655,0.165251271764,0.621936783693,0.780561492852,0.0552942678282,0.0293417264577,0.00122647902681,-0.0382323304678,-0.0161762570225,-0.0196349064102,0.0174104736084,-0.0386991220065,5.59017753601,1.28457903862,-0.926745355129,-0.434490710497,2.21082377434,-0.186074510217
2017/07/09/09:57:55.526400,386019,1499565478,329652001,,0.780334888047,0.401026338238,0.16568667159,0.621527791391,0.780854675995,0.0556361563917,0.0295600677959,-0.000308005672732,-0.0237768579719,-0.0317293379649,-0.00291385265933,0.036338403554,-0.039998722918,5.30813407898,1.67660260201,-0.717493712902,-0.617327928543,2.13509702682,-0.231956660748
2017/07/09/09:57:55.536301,386020,1499565478,339645540,,0.780121853746,0.400256914901,0.165083967928,0.622270387936,0.780296158885,0.0553955885052,0.0291341295118,0.00126173264069,-0.0339703914047,-0.0152046717294,-0.00423924635899,0.024493948426,-0.0544535030836,5.53135442734,1.81930398941,-0.746680736542,-0.704667627811,2.18831086159,-0.25978988409
2017/07/09/09:57:55.546449,386021,1499565478,349650878,,0.779806460004,0.40011296642,0.164441215356,0.622374096511,0.780256912938,0.0549296424329,0.0288507917857,0.00507003110071,-0.0225568857238,0.00213293756068,0.00616400034157,-0.00408231279293,-0.0478469624846,5.2540769577,1.86726498604,-0.752982854843,-0.695364952087,2.07269954681,-0.251673221588
2017/07/09/09:57:55.556450,386022,1499565478,359668881,,0.780424517299,0.399300708614,0.164878812026,0.622804022129,0.779887295501,0.055013939681,0.0294010676159,0.000447752000213,-0.0498721406165,-0.010911130556,-0.0157333759027,0.0297456451022,-0.056550898947,5.20675897598,1.95204949379,-0.63868278265,-0.731952369213,2.06635522842,-0.274792909622
2017/07/09/09:57:55.566640,386023,1499565478,369650777,,0.780613224881,0.399231022773,0.165009987298,0.622803314979,0.779857036688,0.0553837741178,0.0295240705849,0.0104566055725,-0.062337037062,-0.00926776841085,-0.0251175465239,0.0107565006252,-0.0765640888821,4.62537193298,2.16191339493,-0.597333610058,-0.845486283302,1.83348357677,-0.297460496426
2017/07/09/09:57:55.576200,386024,1499565478,379658124,,0.780449796432,0.398657949462,0.164714073363,0.62303397061,0.779702803739,0.0551990714972,0.0290735586569,0.0168165407143,-0.0528615928224,-0.0118648786329,-0.00999293439629,-0.00689148002154,-0.0674942068798,4.88882923126,2.34146881104,-0.416494458914,-0.917779684067,1.97022533417,-0.322795122862
2017/07/09/09:57:55.586127,386025,1499565478,389649480,,0.780402751811,0.398097421331,0.164558969982,0.623517071145,0.779334041518,0.0548608810073,0.0292437592789,0.00781354117289,-0.0418368148014,-0.0129535486931,-0.00126035181429,0.0102427812378,-0.0632859169861,4.59982442856,2.34389305115,-0.424336969852,-0.895503520966,1.84866845608,-0.28396910429
2017/07/09/09:57:55.596450,386026,1499565478,399653534,,0.780964733987,0.396969188014,0.164653789137,0.623727008317,0.779144794519,0.0548622747539,0.0298016623501,0.00431884559603,-0.0521051464204,-0.00439903569127,-0.0205300501849,0.0111710432231,-0.0605394947988,3.19685316086,1.91189241409,-0.0843655541539,-0.775055170059,1.3195950985,-0.19137775898
2017/07/09/09:57:55.606413,386027,1499565478,409647826,,0.780487453013,0.395803047598,0.163845365271,0.624308666452,0.778750638867,0.054161575815,0.029200259634,0.017198188064,-0.0720543416882,-0.00293272642731,0.005369910625,-0.00887525764543,-0.0945626510551,1.65701842308,1.10605943203,0.20065613091,-0.427332222462,0.806846380234,-0.104663856328
2017/07/09/09:57:55.616399,386028,1499565478,419654043,,0.781661413006,0.395827762607,0.164789338099,0.624316239921,0.778619995103,0.0553937729224,0.0301938026514,0.00563749341898,-0.081543799306,-0.0114454959166,-0.017153511133,0.016227111143,-0.0879201202484,1.63712263107,0.761552214622,0.00386593304574,-0.265298187733,0.83925974369,-0.0445818826556
2017/07/09/09:57:55.626561,386029,1499565478,429649185,,0.7809190712,0.394243850184,0.163790919589,0.624840779055,0.778316018518,0.0541028025868,0.0295137747719,0.027521773208,-0.0766067820911,-0.00565133678758,0.00142620378431,-0.0363153211363,-0.120729467225,2.67987346649,0.701960861683,0.100375711918,-0.185637563467,1.2950963974,-0.033856600523
2017/07/09/09:57:55.636197,386030,1499565478,439647648,,0.78117181259,0.393995622715,0.163998081447,0.625299898489,0.77791030606,0.0545641284226,0.0296369459305,0.0124231553616,-0.0710440724656,-0.0153883910605,-0.00336937230195,-0.00598533721818,-0.086259247484,3.23775744438,0.793578028679,0.0893686786294,-0.200242131948,1.53891968727,0.00248435139656
2017/07/09/09:57:55.646264,386031,1499565478,449647184,,0.781414634995,0.393285635557,0.16428159272,0.625569576686,0.777677052436,0.0546508718318,0.0299063378991,0.00136379803101,-0.0963102535831,-0.0168015452399,-0.0226294542988,0.0344843619884,-0.117481788567,3.38174819946,1.17937195301,0.079939365387,-0.407331585884,1.58335745335,-0.0589038282633
2017/07/09/09:57:55.656250,386032,1499565478,459652323,,0.78132916779,0.391756199816,0.164039669703,0.626436266296,0.777015266074,0.0542359359707,0.02972110035,0.00645871916397,-0.101958089113,-0.00875564632027,-0.020047306431,0.0258313819278,-0.122786581678,2.91629242897,1.12976622581,-0.0515058785677,-0.373401045799,1.35822069645,-0.0590969920158
2017/07/09/09:57:55.666646,386033,1499565478,469650478,,0.781582346123,0.391798838074,0.164005048563,0.626343191883,0.777070178453,0.054515802126,0.0297350140301,0.0160266389609,-0.111525443246,-0.00207567123479,-0.00919760633233,0.0106480231728,-0.155706794249,2.69072747231,0.980323851109,0.0161251183599,-0.313181877136,1.27579915524,-0.0389029383659
2017/07/09/09:57:55.676334,386034,1499565478,479659291,,0.781992684879,0.390052679035,0.164175344197,0.627418669338,0.776196899298,0.0543288448061,0.0302086661106,0.0247292217812,-0.109462269106,-0.00683420871388,-0.00165950329319,-0.011835003203,-0.159531654823,3.36172246933,1.25172054768,0.419392824173,-0.39891153574,1.62076973915,-0.0453172549605
2017/07/09/09:57:55.686239,386035,1499565478,489647920,,0.782067612748,0.388119367826,0.163784613796,0.62844878968,0.775391388078,0.054032204057,0.0300139129342,0.022642085873,-0.12422596755,-0.0234379567176,-0.0143640663525,0.00027573904566,-0.164482606761,3.15008950233,0.970022201538,0.467586696148,-0.319947600365,1.49941980839,-0.0452863425016
2017/07/09/09:57:55.696238,386036,1499565478,499645693,,0.781757795682,0.387317700749,0.162863411369,0.628876858937,0.775103504573,0.05344989142,0.0295222390666,0.0177440271675,-0.136343989428,-0.0162179360411,-0.0270970685586,0.0179936009673,-0.177553552026,3.32740879059,0.962251901627,0.753614604473,-0.277942597866,1.60876083374,-0.0366811081767
2017/07/09/09:57:55.706363,386037,1499565478,509646134,,0.782605470668,0.386531958839,0.163716191907,0.629069803587,0.774871074196,0.0541858307377,0.0301644880174,0.00288034149094,-0.129713815616,-0.026705953497,-0.0240071623281,0.0527945291611,-0.15970079995,3.47522878647,1.02654051781,0.777654767036,-0.337401121855,1.65734839439,-0.0415408611298
2017/07/09/09:57:55.716507,386038,1499565478,519653056,,0.782604545305,0.384048106388,0.163231479195,0.630343571232,0.773886136058,0.0535444764932,0.0300036607827,0.0212811731671,-0.130062612017,-0.00589612619963,-0.0258175876277,0.0104238489691,-0.160311683113,3.2110979557,0.86575114727,0.849351227283,-0.252971976995,1.5596101284,-0.0379609167576
2017/07/09/09:57:55.726400,386039,1499565478,529646040,,0.782507065732,0.383901790191,0.163226748065,0.630412593025,0.773827959277,0.053508276036,0.0301183729964,0.0118683909388,-0.162422217297,-0.0204933340438,-0.0269769031509,0.0387620729321,-0.223539251833,3.55146074295,1.08616256714,0.936819672585,-0.366779863834,1.69152545929,-0.0689834430814
2017/07/09/09:57:55.736338,386040,1499565478,539648751,,0.78308636351,0.381373911367,0.162879956052,0.631949894374,0.772572654659,0.0535557362155,0.0300434250949,0.0307519923084,-0.175852760477,-0.0145791822809,-0.0226555784412,0.00944435190295,-0.24337751375,3.00382018089,1.09224081039,1.0087864399,-0.34408301115,1.47478091717,-0.0580255761743
2017/07/09/09:57:55.746294,386041,1499565478,549647887,,0.783239575732,0.379468625631,0.162751815317,0.632757901981,0.771937091534,0.0530889789791,0.0302013990529,0.0405200019832,-0.1835492442,-0.000973650231947,-0.012111143827,-0.0170651648671,-0.240804276475,2.5275554657,0.969871461391,1.05258142948,-0.30119740963,1.28516590595,-0.0842533186078
2017/07/09/09:57:55.756085,386042,1499565478,559647455,,0.784080107364,0.377232010863,0.162850525123,0.633755683879,0.771069585813,0.0535000096713,0.0307111698071,0.0373853733673,-0.183914570033,-0.00488424121638,-0.00246538936727,-0.0139220372618,-0.256274604602,2.5335111618,0.884704709053,1.15982222557,-0.240099713206,1.31033492088,-0.0478924289346
2017/07/09/09:57:55.766661,386043,1499565478,569647766,,0.784441806571,0.375616806755,0.162724913115,0.634793996425,0.77021744939,0.0534231577123,0.0307835829272,0.0415938218022,-0.20155808971,-0.0035125818224,-0.0305020357363,-0.0263637833497,-0.262612502712,2.28646111488,0.696411728859,1.20498716831,-0.187648445368,1.20837855339,-0.0454718098044
2017/07/09/09:57:55.776472,386044,1499565478,579652180,,0.784863801908,0.373159207702,0.162690755697,0.636000633613,0.769226819775,0.0530909385862,0.0312193213267,0.0437389314957,-0.212265434978,-0.00100856409617,-0.0354447968153,-0.0360030411168,-0.269987153907,2.38227248192,0.686082422733,1.2620074749,-0.231072247028,1.23639571667,-0.0512346476316
2017/07/09/09:57:55.786088,386045,1499565478,589646018,,0.785419983298,0.37128550799,0.162918181113,0.6367455118,0.76858627564,0.0530291556042,0.031909226801,0.0479520052157,-0.21266756535,-0.00669708349393,-0.0369132947599,-0.0371438007706,-0.280456131238,2.25257611275,0.746534109116,1.10785388947,-0.209608078003,1.15213108063,-0.0565849915147
2017/07/09/09:57:55.796436,386046,1499565478,599653749,,0.785610712734,0.368930000005,0.162771758749,0.637708253561,0.767803119119,0.0527268518515,0.0320379884571,0.0569044989554,-0.192135242177,0.00911110159946,-0.0296138099927,-0.0747606678273,-0.228421979731,1.74831104279,0.835276722908,1.08776915073,-0.253589451313,0.904949605465,-0.0728897750378
2017/07/09/09:57:55.806330,386047,1499565478,609649590,,0.786478994066,0.366973080643,0.162778078268,0.639026468729,0.76665590822,0.0531954896383,0.0324673765198,0.0551979046282,-0.21968031735,-0.00177854963148,-0.045114619213,-0.0644047357329,-0.264599977647,1.74316251278,0.78140938282,1.16993355751,-0.184917867184,0.918071746826,-0.0565727129579
2017/07/09/09:57:55.816327,386048,1499565478,619651188,,0.787244805803,0.365341217213,0.162611514416,0.639550370512,0.76617124854,0.0535658453341,0.0329794133126,0.0656696838065,-0.230164036753,0.0047680919017,-0.0322900688237,-0.0946208409331,-0.293330655572,1.74741613865,0.755118846893,1.29955863953,-0.266330420971,0.935470283031,-0.14036090672
2017/07/09/09:57:55.826385,386049,1499565478,629653938,,0.787886112703,0.362689918891,0.162879923593,0.640872288706,0.765031288671,0.0536221525773,0.0336823644826,0.0694567475834,-0.231909625384,-0.0129997223875,-0.0132446344538,-0.0901013584754,-0.31376421044,1.80973815918,0.51301074028,1.30555903912,-0.107438698411,0.989073753357,-0.0411850214005
2017/07/09/09:57:55.836414,386050,1499565478,639645482,,0.78902153823,0.360699287398,0.163324818117,0.642076874232,0.763934568207,0.0544232899652,0.034341936235,0.0714260474204,-0.235986748016,-0.00267068979268,-0.00102304270343,-0.0948041786896,-0.328223345406,1.99305939674,0.671310842037,1.18639409542,-0.239183068275,1.05931282043,-0.0937606692314
2017/07/09/09:57:55.846772,386051,1499565478,649655776,,0.78933396035,0.358295394675,0.162936345597,0.643432954695,0.762792743833,0.0545341455158,0.0341656222232,0.0861365519565,-0.228827330557,0.00393416803869,0.0151853751158,-0.13630324906,-0.326305080959,1.68176412582,0.589018642902,1.20336055756,-0.218160003424,0.903583228588,-0.0926907658577
2017/07/09/09:57:55.856525,386052,1499565478,659647309,,0.789633429523,0.355487458079,0.162599211695,0.644586504856,0.761825052651,0.0542043665467,0.0345356852873,0.0736917245114,-0.259770110002,-0.00488705802067,0.0168355832838,-0.0934623274228,-0.376981231875,1.72329854965,0.629909813404,1.22612380981,-0.178872302175,0.907119274139,-0.0790638178587
2017/07/09/09:57:55.866495,386053,1499565478,669654384,,0.790774706778,0.352484406434,0.162763812782,0.646462386153,0.760159068667,0.0548327233569,0.0351844576761,0.0611794023776,-0.244871922464,-0.00673329938248,0.0148984898875,-0.0773926869559,-0.350583112452,1.67405068874,0.566277801991,1.17499959469,-0.160117894411,0.837398588657,-0.089621335268
2017/07/09/09:57:55.876395,386054,1499565478,679646705,,0.791305830346,0.350099466908,0.162127931594,0.647720980559,0.759080107388,0.0548176003308,0.0353546687833,0.0564446146882,-0.246641849656,-0.0120048031208,0.0202547019039,-0.0638155380756,-0.353514153248,2.05219221115,0.817194700241,1.15907907486,-0.345479309559,0.956204891205,-0.123730629683
2017/07/09/09:57:55.886263,386055,1499565478,689653371,,0.79185108149,0.348627343235,0.162418835786,0.648758306201,0.758144558241,0.0553089499759,0.035642797269,0.0685771748542,-0.259082492953,-0.00496001192882,0.0147981079833,-0.0893442118182,-0.3776444528,2.19573116302,0.688526928425,1.14902436733,-0.271623015404,1.04005551338,-0.10754480958
2017/07/09/09:57:55.896444,386056,1499565478,699653423,,0.792556101374,0.34584101032,0.162200916329,0.649978352708,0.757068108563,0.0554041055691,0.0361442262892,0.0663707378208,-0.25847401265,0.00530030406722,0.0120807404441,-0.100643228909,-0.364381097201,1.93122124672,0.594431102276,1.23752069473,-0.140383556485,0.990350425243,-0.0499998107553
2017/07/09/09:57:55.906522,386057,1499565478,709647675,,0.792893048258,0.34404731533,0.162621360816,0.650976558136,0.756153768022,0.0559917117932,0.0364132952957,0.065258823588,-0.264219480219,-0.00146655338868,0.0202022129311,-0.0907215599168,-0.375685782631,1.82850587368,0.561853647232,0.925569832325,-0.208196043968,0.935241937637,-0.101049259305
2017/07/09/09:57:55.916357,386058,1499565478,719655669,,0.793913402361,0.34046949302,0.162393745616,0.652860132813,0.754485374431,0.0562733847404,0.0368615371838,0.0593438088438,-0.27846133939,-0.0182965163579,0.0028713874989,-0.0716714876027,-0.381072834219,1.43520200253,0.398818522692,0.793240904808,-0.14105258882,0.823651909828,-0.097168803215
2017/07/09/09:57:55.926730,386059,1499565478,729649594,,0.794236360623,0.337471382998,0.162343458386,0.654496605856,0.753052960434,0.0562435799924,0.0371764900647,0.0726321423958,-0.293218918229,-0.00812390872237,0.0125193152261,-0.105031379611,-0.416840431433,1.79075396061,0.176222980022,0.799847126007,-0.120145149529,0.974998533726,-0.0979326665401
2017/07/09/09:57:55.936591,386060,1499565478,739678563,,0.794543833481,0.335064968704,0.16170754285,0.65565973774,0.752028555553,0.056477865245,0.0370622540817,0.0641032184322,-0.307847308974,-0.00974609953668,0.00365631534068,-0.0930967994262,-0.44020132857,1.5008327961,0.356632739305,0.996964395046,-0.167093038559,0.896770656109,-0.100862465799
2017/07/09/09:57:55.946532,386061,1499565478,749646523,,0.795004780383,0.332723122928,0.161110090179,0.656899499025,0.750928832715,0.0565935953039,0.0372303820696,0.0399775767777,-0.287407310219,-0.0149733623304,0.0105661234696,-0.0517825651256,-0.385291774056,1.35882890224,0.461149930954,0.97471922636,-0.240875288844,0.799064040184,-0.109598591924
2017/07/09/09:57:55.956493,386062,1499565478,759654687,,0.795937777183,0.329012004687,0.161977920823,0.658836756212,0.749133036528,0.0572504682752,0.0381602689872,0.0336787648834,-0.292517147374,-0.0314865518555,0.0457084157454,-0.0252146702495,-0.414203725337,1.20243358612,0.512406826019,0.730015039444,-0.22984713316,0.694735884666,-0.110423028469
2017/07/09/09:57:55.966134,386063,1499565478,769647560,,0.795876135866,0.326230260575,0.160956934619,0.660280829758,0.747891198653,0.0569181102743,0.0380566624077,0.0512237709005,-0.309435066955,-0.0192739190036,0.0160434192555,-0.0769390744084,-0.423689410739,1.10728442669,0.399112164974,0.89295065403,-0.169062152505,0.682121515274,-0.107632920146
2017/07/09/09:57:55.976148,386064,1499565478,779666332,,0.796276460942,0.323491066671,0.161003751328,0.661665115195,0.746627660894,0.0572185122469,0.0383725576171,0.041254926029,-0.301395686409,-0.027116340795,0.00860500471515,-0.0541457908133,-0.408327580451,1.05960333347,0.672902643681,0.830100953579,-0.348777979612,0.640095412731,-0.166757926345
2017/07/09/09:57:55.986217,386065,1499565478,789646950,,0.796890863484,0.320372398794,0.16112798745,0.662962552329,0.745427759467,0.0573575630478,0.0390924492391,0.0393420966839,-0.288422250044,-0.0166724673232,0.0273615193885,-0.0730802441474,-0.401505763173,0.508208274841,-0.666002750397,0.860212504864,0.0354077741504,0.437749356031,-0.0776764675975
2017/07/09/09:57:55.996372,386066,1499565478,799650667,,0.797044400457,0.317165884358,0.160474921853,0.66494649069,0.743657736859,0.0574819915091,0.0389249994398,0.046037132824,-0.316499496143,-0.0264893107718,0.0290365084853,-0.0874435951187,-0.449079160188,0.345514327288,-0.745187103748,0.984516561031,0.0586385801435,0.437350094318,-0.0793269127607
2017/07/09/09:57:56.006265,386067,1499565478,809647448,,0.797504436503,0.313875240222,0.159803549653,0.666512747649,0.742211152715,0.0577816820816,0.039301898463,0.0452250236247,-0.315226855194,-0.0299620139632,0.0206983812098,-0.0914416182287,-0.436606564471,-0.00320634245872,-0.64963722229,1.00541377068,0.0147273764014,0.314888447523,-0.0783826857805
2017/07/09/09:57:56.016373,386068,1499565478,819674605,,0.797931043715,0.310943646463,0.15960587676,0.667821734691,0.740974220514,0.0582387365165,0.0397439904558,0.0369735814572,-0.317247692939,-0.0435357281798,0.0173051774213,-0.0725182368605,-0.417516263879,0.82300722599,0.167750403285,0.751607894897,-0.418676525354,0.59796911478,-0.198973149061
2017/07/09/09:57:56.026642,386069,1499565478,829655618,,0.798392230133,0.307903244045,0.159425304744,0.669165459119,0.739714617422,0.0583092280527,0.0404957654442,0.0321540633874,-0.312457779648,-0.0374523949177,0.0142908880203,-0.0777657485909,-0.409022046636,0.0956994891167,0.180001378059,0.727257192135,-0.406332552433,0.269565194845,-0.209838777781
2017/07/09/09:57:56.036371,386070,1499565478,839654052,,0.799276936934,0.304958409178,0.159446128432,0.670821835148,0.738115031123,0.0591005855785,0.0411264769172,0.0249176790477,-0.318960376587,-0.0508176718829,0.00132914453734,-0.0696887478369,-0.404649813329,-0.297917693853,0.0989448130131,0.773368835449,-0.350905388594,0.0764313787222,-0.19813644886
2017/07/09/09:57:56.046557,386071,1499565478,849647019,,0.799455505918,0.302061923245,0.158661631862,0.672290372614,0.736745994208,0.059461357102,0.0411745299995,0.0402954359789,-0.312168248217,-0.0439712374889,0.0331077595742,-0.10878990287,-0.418103841086,-0.599473059177,-0.0227109491825,0.732762932777,-0.302761316299,0.00300121679902,-0.218157783151
2017/07/09/09:57:56.056452,386072,1499565478,859645950,,0.800170721437,0.299130843388,0.15862272674,0.673734031228,0.735302388577,0.0602751720465,0.0421871562634,0.0476787033139,-0.323302266166,-0.0465040789988,0.0266229339215,-0.124823257011,-0.450006781257,-0.212339699268,-0.0504284203053,0.807942271233,-0.280620396137,0.182391315699,-0.19351914525
2017/07/09/09:57:56.066377,386073,1499565478,869644965,,0.800523826938,0.296431977473,0.157575705169,0.675156213871,0.733971563714,0.0604391301189,0.0423903536328,0.0579952839885,-0.33173122892,-0.0292194324296,0.0150125286084,-0.171046497276,-0.445013962117,-0.78374093771,-0.0870246142149,0.550608634949,-0.27531927824,-0.0213737674057,-0.205554366112
2017/07/09/09:57:56.076385,386074,1499565478,879657960,,0.801490375439,0.292565516974,0.157753901304,0.676610677977,0.732500964694,0.0611041787575,0.0436647055213,0.0653659454364,-0.32504311272,-0.0341157834623,0.0217331821448,-0.190829712061,-0.435646708142,-1.12096619606,-0.344399988651,0.640272736549,-0.18099540472,-0.165618479252,-0.187028512359
2017/07/09/09:57:56.086487,386075,1499565478,889654492,,0.802063208432,0.289718746762,0.157434669395,0.677965216619,0.731147172533,0.061778771189,0.0443887438625,0.0694963498188,-0.326909737331,-0.0347541190174,0.0421314081075,-0.203319721332,-0.444459026395,-0.934142529964,-0.337857663631,0.764169931412,-0.100765146315,-0.0572027340531,-0.130690217018
2017/07/09/09:57:56.096506,386076,1499565478,899654322,,0.802377427858,0.286977302413,0.156886258132,0.679416933511,0.729730037167,0.0624027623073,0.0446385323541,0.0699650901828,-0.331524042448,-0.0406457291845,0.047113124294,-0.204598782474,-0.460589854763,-0.968756496906,-0.103160023689,0.669254124165,-0.1828520298,-0.0764629244804,-0.190299957991
2017/07/09/09:57:56.106411,386077,1499565478,909647010,,0.803391819907,0.283117133624,0.156106365127,0.681366602348,0.727793031616,0.062946630897,0.0457665597867,0.0621974730765,-0.333814523629,-0.0554377364281,0.0355598567585,-0.183746517463,-0.470996130792,-1.35318028927,-0.724722385406,0.431099206209,0.0633531734347,-0.287536293268,-0.122491456568
2017/07/09/09:57:56.116566,386078,1499565478,919654132,,0.804242482679,0.279949669594,0.156014573858,0.683122202874,0.725993607982,0.0641984490682,0.046431629813,0.072134593789,-0.343905951187,-0.0538992832997,0.0363541564866,-0.205807557389,-0.474615175754,-1.68040561676,-0.607105433941,0.670633852482,-0.0458839833736,-0.456650912762,-0.146549865603
2017/07/09/09:57:56.126517,386079,1499565478,929648774,,0.804903109179,0.276483560488,0.15521423881,0.684531769248,0.724559942285,0.064739691194,0.0473066518499,0.0859024043377,-0.308421343935,-0.0325487797985,0.066434836667,-0.259644994929,-0.435572277234,-2.38018584251,-1.18106472492,0.658494889736,0.153926342726,-0.719143509865,-0.133276596665
2017/07/09/09:57:56.136306,386080,1499565478,939652935,,0.805534931353,0.274033412732,0.154967553634,0.685796443267,0.723227937535,0.0657627076967,0.0479568039824,0.0889836974801,-0.321405961026,-0.0300495947512,0.0488389984603,-0.274987033964,-0.440523053719,-2.17720675468,-1.05048775673,0.710469722748,0.125701934099,-0.597159445286,-0.125215247273
2017/07/09/09:57:56.146434,386081,1499565478,949645600,,0.807507351005,0.271304923906,0.15545262391,0.687219651238,0.721563975736,0.0679227540929,0.049609266756,0.0939047038853,-0.316042495808,-0.0312054998335,0.0443561369857,-0.293761974203,-0.420034973231,-2.25308012962,-1.05417740345,0.911991357803,0.235606312752,-0.618419647217,-0.0827134028077
2017/07/09/09:57:56.156579,386082,1499565478,959663111,,0.807687762335,0.267759430386,0.154585249641,0.688648846857,0.720155741652,0.0680042807059,0.0501387205015,0.0960951169429,-0.314784921564,-0.0337752471072,0.0588460064837,-0.294205372454,-0.44292817982,-2.51748132706,-1.15586447716,0.795309603214,0.250989019871,-0.68369525671,-0.0597983747721
2017/07/09/09:57:56.166328,386083,1499565478,969645388,,0.808003755593,0.264619986059,0.15346584791,0.690210593741,0.718571640253,0.0685468718535,0.0506503748355,0.0636120540473,-0.337279237328,-0.0720052067872,0.0373228947196,-0.208129128026,-0.458851065554,-1.49289214611,0.631785869598,0.297603160143,-0.687937915325,-0.375752180815,-0.340869069099
2017/07/09/09:57:56.176316,386084,1499565478,979654284,,0.808617511065,0.261167141222,0.152825074533,0.691883675475,0.716869027443,0.0690597568997,0.0512496544469,0.0785221263613,-0.349767053216,-0.0575860382764,0.0145051458836,-0.248186523649,-0.472679240765,-1.17185080051,1.4321398735,0.100993067026,-1.14360749722,-0.309836834669,-0.440663039684
2017/07/09/09:57:56.186598,386085,1499565478,989663118,,0.809563830828,0.25781712537,0.152037736151,0.69363096904,0.715009454064,0.070143184707,0.0521295791956,0.0688171298122,-0.352262677884,-0.0700681299177,0.0274727711044,-0.21738046001,-0.482867375667,-1.03809678555,2.04401731491,0.136723786592,-1.38165986538,-0.35398286581,-0.51629114151
2017/07/09/09:57:56.196483,386086,1499565478,999663240,,0.810122662121,0.254479947862,0.152043182146,0.694846973841,0.713698811717,0.0705528819747,0.0533289784472,0.0885508696869,-0.358089195627,-0.0378312265819,0.0185628146968,-0.274820364639,-0.479779029356,-1.44523775578,1.55173051357,0.089754126966,-0.987684607506,-0.520319879055,-0.398262023926
2017/07/09/09:57:56.206554,386087,1499565479,9646363,,0.810885836605,0.251406331838,0.151194300416,0.696293850967,0.712142424133,0.0713876510258,0.0541465062203,0.0579953951817,-0.354442876601,-0.0643772888895,-0.00736259488776,-0.207846523228,-0.456791345712,-2.12079119682,0.347274631262,0.382140815258,-0.328987360001,-0.716801702976,-0.213241249323
2017/07/09/09:57:56.216546,386088,1499565479,19661772,,0.812132536765,0.247886136742,0.151312104359,0.697694557263,0.710551480728,0.0723849074481,0.0556715652348,0.0830288744175,-0.336475810297,-0.0526280183923,-0.00484410800266,-0.259073596799,-0.423297601435,-2.6009554863,-0.490212082863,0.750326991081,0.119867086411,-0.804131627083,-0.113728486001
2017/07/09/09:57:56.226441,386089,1499565479,29645250,,0.812473609894,0.244526302532,0.150123666782,0.699280163553,0.708918846968,0.0727203431939,0.0561522302313,0.0782134902596,-0.342225123985,-0.0614418533128,0.0033570702639,-0.252745206795,-0.448778046481,-2.95666456223,-0.676562070847,0.767245233059,0.206293389201,-0.855536222458,-0.0807104706764
2017/07/09/09:57:56.236349,386090,1499565479,39652216,,0.813235783282,0.24132811876,0.149838315917,0.700747481654,0.707284651088,0.0737706045835,0.0570901671978,0.0750709459226,-0.331989607023,-0.0538273003573,0.0498292163204,-0.244725650044,-0.458954569594,-3.54997444153,-0.792857527733,1.01155424118,0.186522141099,-1.00681352615,-0.0933309867978
2017/07/09/09:57:56.246159,386091,1499565479,49646126,,0.813939088981,0.238628011995,0.149039908464,0.701850830583,0.706029336524,0.0747864709811,0.0577492106965,0.0740659292245,-0.348178610307,-0.0596300227214,0.0502141325315,-0.249688240839,-0.481783862389,-3.63424539566,-0.121513187885,0.752157866955,-0.0974387824535,-1.12204182148,-0.19026003778
2017/07/09/09:57:56.256470,386092,1499565479,59654679,,0.814944387321,0.235123526216,0.148666106717,0.703669172566,0.704032407835,0.0756135264729,0.0589122984913,0.0674512559778,-0.329721103637,-0.0655412474031,0.0556805428578,-0.223648503958,-0.461674864156,-4.42556285858,-0.227338373661,1.09922719002,-0.0459277182817,-1.45698332787,-0.146192163229
2017/07/09/09:57:56.266597,386093,1499565479,69651988,,0.815103727464,0.232357848865,0.147628904558,0.705329489186,0.702310919416,0.0762230428918,0.0588194855978,0.0702147796446,-0.342183548594,-0.0661440302017,0.0432038245764,-0.212331333522,-0.480839120451,-4.84755659103,0.0119374096394,0.870331645012,-0.0989585965872,-1.64367580414,-0.175640761852
2017/07/09/09:57:56.276298,386094,1499565479,79651365,,0.815965897081,0.229270030119,0.147227190391,0.706423115899,0.701049642755,0.0767732268693,0.0600137596933,0.0370698367383,-0.313429435201,-0.101537870764,0.0466319932446,-0.126702340076,-0.429071546104,-4.31570148468,-0.288328200579,0.962613523006,-0.0300168469548,-1.55604541302,-0.151802808046
2017/07/09/09:57:56.286700,386095,1499565479,89649598,,0.816251913474,0.225917710618,0.146188405102,0.707865322482,0.699541014115,0.0770532851255,0.060264799429,0.0457043352509,-0.323854832675,-0.0808054956936,0.0295834505505,-0.140618265623,-0.419092853269,-3.67729997635,-0.26413449645,0.679963290691,0.119175046682,-1.37934732437,-0.0860416069627
2017/07/09/09:57:56.296447,386096,1499565479,99650170,,0.81646293289,0.223293441741,0.145593251589,0.709048180612,0.698302736675,0.0772429208796,0.0604772411513,0.0414982681923,-0.292817490318,-0.071990213524,0.0279036598547,-0.122984890755,-0.371566345024,-3.63550829887,-0.457804590464,0.675131678581,0.183952242136,-1.35297822952,-0.0709059610963
2017/07/09/09:57:56.306457,386097,1499565479,109658148,,0.816847321191,0.219894337621,0.144761847831,0.710219150567,0.697050923977,0.0772761698439,0.0611323247214,0.0324861871769,-0.306395400686,-0.067929488674,0.00488396857823,-0.0988189526398,-0.381914551434,-4.10168170929,-0.337419748306,0.817598342896,0.189326226711,-1.52757835388,-0.0963146090508
2017/07/09/09:57:56.316404,386098,1499565479,119653641,,0.816730022351,0.217038461315,0.143764703078,0.712117479573,0.695140218789,0.0771845311873,0.0609206012248,0.0378618322729,-0.329457008764,-0.0800103733132,0.0249281066512,-0.0848035024263,-0.452821759959,-3.91807556152,-0.161573976278,0.465466201305,0.0698565468192,-1.43319821358,-0.147275283933
2017/07/09/09:57:56.326431,386099,1499565479,129670479,,0.817241059438,0.214458827066,0.143368728271,0.713282430507,0.693876752536,0.0776338174142,0.0611246023594,0.0143471880885,-0.324709369608,-0.0887483566202,0.0179692200827,-0.0225193087354,-0.441127790825,-4.86960029602,0.45513933897,0.271630167961,-0.0648440271616,-1.76001679897,-0.182452395558
2017/07/09/09:57:56.336679,386100,1499565479,139652423,,0.817053641792,0.210279506589,0.142684415829,0.715003721338,0.692143724045,0.0769661205122,0.0615057723389,0.0208225169918,-0.318337954747,-0.0836956607112,0.0454864740713,-0.0281286474672,-0.45409664965,-6.35071611404,-0.345923393965,0.419991612434,0.0858900696039,-2.2179775238,-0.153112724423
2017/07/09/09:57:56.346266,386101,1499565479,149649662,,0.817150581182,0.207400732749,0.141662341571,0.716405014895,0.690687196848,0.0771077458428,0.0613958164244,-0.00101385440826,-0.315721802585,-0.0921968212988,0.0351471334889,0.0251232322961,-0.439955057566,-7.60042858124,0.000889003276825,0.0614621974528,0.0374946892262,-2.73723602295,-0.160109296441
2017/07/09/09:57:56.356652,386102,1499565479,159646740,,0.816956167213,0.205401863497,0.140363120624,0.717504873898,0.689613727863,0.076808199586,0.0609931369211,-0.00117564020197,-0.325569680881,-0.0857778112232,0.0168893132818,0.0347454281239,-0.43393548004,-8.70022678375,0.587462484837,-0.132375404239,0.0659608393908,-3.10091686249,-0.138031810522
2017/07/09/09:57:56.366144,386103,1499565479,169647600,,0.817070204258,0.201763016658,0.139874333422,0.719333830625,0.687725214545,0.0766301534613,0.0609974505837,0.00314692673743,-0.314143547099,-0.076901595533,0.0170065056021,0.0237257043574,-0.421091349394,-9.01143932343,0.41244366765,-0.00506435334682,0.0725708603859,-3.1625995636,-0.148286804557
2017/07/09/09:57:56.376363,386104,1499565479,179645453,,0.816337764045,0.199121317977,0.138391002774,0.720347986286,0.686780406168,0.075969239395,0.0604989836525,-0.0103444474752,-0.319003353922,-0.0830880905896,0.00192583378183,0.045950819668,-0.406862779017,-9.03458595276,0.398351490498,-0.241809874773,0.123059600592,-3.07842302322,-0.133354157209
2017/07/09/09:57:56.386118,386105,1499565479,189647344,,0.81692422036,0.195111080648,0.13780835253,0.722050768763,0.684940493468,0.0759298979113,0.0611053053426,-0.020323026515,-0.309207043163,-0.105786914678,0.00130131894044,0.0838510026817,-0.401420649812,-8.52123165131,0.0589742213488,0.0130255706608,0.123526528478,-2.93624639511,-0.143802598119
2017/07/09/09:57:56.396488,386106,1499565479,199645976,,0.816975463146,0.192230202433,0.137057964839,0.723308654585,0.683657752046,0.0755700906148,0.0610395746549,-0.0121500290985,-0.320612768218,-0.100298552621,0.010418757743,0.0754350256877,-0.414874446229,-9.41928100586,-0.202128410339,0.189967229962,0.224909484386,-3.24277281761,-0.0973894298077
2017/07/09/09:57:56.406091,386107,1499565479,209648689,,0.816225294155,0.189847555733,0.135538017631,0.724356532811,0.682697238734,0.074722428681,0.0604040747869,-0.0103851163755,-0.328195722419,-0.0951656452065,-0.018957848321,0.0718759170042,-0.398865843256,-9.72856235504,0.286480307579,0.404982835054,0.0753518491983,-3.39888596535,-0.148852407932
2017/07/09/09:57:56.416290,386108,1499565479,219653317,,0.815730159551,0.186782636377,0.134437483479,0.725359655113,0.681757303942,0.0737217369026,0.0602117493853,-0.0166611980034,-0.311038437872,-0.0977053138416,-0.0279595994258,0.0948580632941,-0.35812057337,-10.2373247147,0.612284064293,0.0283738784492,-0.125738963485,-3.5861787796,-0.206550076604
2017/07/09/09:57:56.426485,386109,1499565479,229647361,,0.816201546345,0.182614661665,0.133721908408,0.72703968715,0.679942936102,0.0734573898135,0.060785761781,-0.0198251768098,-0.322778942175,-0.105357760355,-0.0630315901681,0.111530531762,-0.357890367544,-10.6632432938,0.0486986339092,0.03930638358,-0.0446984618902,-3.82102012634,-0.190804749727
2017/07/09/09:57:56.436550,386110,1499565479,239654212,,0.816007874938,0.179557927588,0.132714595737,0.728196094893,0.678771850868,0.0726530665671,0.0609979816955,-0.0188437233656,-0.345863288732,-0.111694713208,-0.093759826855,0.115572783718,-0.353475969941,-9.12873268127,0.283462196589,-0.12016697228,-0.0724604353309,-3.27070355415,-0.182519212365
2017/07/09/09:57:56.446537,386111,1499565479,249654295,,0.816150742639,0.176933945764,0.131822287647,0.728888175145,0.678106043797,0.0718830082535,0.0610496078996,-0.0116300288126,-0.348003250731,-0.113756946562,-0.10492641287,0.0961835727903,-0.352238653075,-8.49652385712,0.343009382486,-0.12540717423,-0.013013780117,-3.13500380516,-0.1578386724
2017/07/09/09:57:56.456517,386112,1499565479,259659979,,0.816432128556,0.173654076654,0.130807471168,0.730157030727,0.676750317119,0.0715212210142,0.06135498108,9.3270945049e-05,-0.34661787297,-0.111597336751,-0.11076617731,0.0866926074422,-0.355443286524,-7.86839485168,0.481515109539,-0.458448141813,0.00753991305828,-2.99219179153,-0.132061868906
2017/07/09/09:57:56.466372,386113,1499565479,269649244,,0.816331329028,0.169450665455,0.129736176716,0.73152118915,0.675332385415,0.0705108563032,0.0618961887241,0.00276745855353,-0.330005431856,-0.107994213196,-0.106345296124,0.0922210309495,-0.321270534892,-8.04737377167,-0.0150044262409,-0.503780901432,0.00818710029125,-3.13320946693,-0.133186638355
2017/07/09/09:57:56.476428,386114,1499565479,279659753,,0.816898388595,0.167256677017,0.129235177674,0.732299427078,0.674501546083,0.0702357175569,0.0620657507184,0.0108305654429,-0.332875689827,-0.105027893574,-0.125324825799,0.0793695611129,-0.320783007219,-8.26782512665,0.477585494518,-0.464126110077,-0.0732016339898,-3.30354261398,-0.153039380908
2017/07/09/09:57:56.486243,386115,1499565479,289646401,,0.816580565512,0.164212277899,0.127616977715,0.73296071749,0.67392205951,0.0689221438488,0.0620272714939,0.0289970976528,-0.334712076006,-0.0907359690528,-0.120534515375,0.0316573194245,-0.322795155513,-8.5582485199,0.52202296257,-0.605544686317,-0.0954259410501,-3.38736748695,-0.138417035341
2017/07/09/09:57:56.496322,386116,1499565479,299656549,,0.817165935938,0.160917529214,0.126735325898,0.734087673152,0.672657999288,0.0685081877647,0.0628739399849,0.0359774047625,-0.344650325406,-0.090503736953,-0.151666858696,0.0150187471953,-0.31311190515,-8.63414669037,0.646688580513,-0.189651980996,-0.0848393961787,-3.43932247162,-0.14183807373
2017/07/09/09:57:56.506392,386117,1499565479,309652213,,0.817627282212,0.157615130414,0.126313823337,0.73494403343,0.671714711986,0.0679435405167,0.0635632655703,0.0246413777669,-0.335433853422,-0.105446134236,-0.160268186094,0.049090826279,-0.278370817284,-7.68094158173,0.511144220829,-0.274107217789,-0.0952213034034,-3.12796187401,-0.129809141159
2017/07/09/09:57:56.516386,386118,1499565479,319654480,,0.81749446963,0.154079964652,0.124620099545,0.735633100874,0.671059622641,0.0663622523691,0.06417924291,0.0314335201526,-0.349270254204,-0.0981423889204,-0.184791430603,0.0433779411295,-0.291031597216,-7.45196628571,0.277885288,-0.864064872265,-0.0764263942838,-3.0639731884,-0.134199768305
2017/07/09/09:57:56.526305,386119,1499565479,329647100,,0.818982365704,0.150256776817,0.124739770066,0.737011532376,0.669385594178,0.0667279999166,0.0654545756949,0.0755559931139,-0.34752598741,-0.0652642588504,-0.18557480785,-0.0559415612632,-0.29797320227,-7.32357931137,-0.0298134833574,-1.05791449547,0.0711509138346,-3.04336047173,-0.0563441962004
2017/07/09/09:57:56.536329,386120,1499565479,339654398,,0.819517882869,0.147670052971,0.124311393352,0.737429242899,0.668914725954,0.0660672092429,0.0662293362577,0.0809944585793,-0.32266177523,-0.0664083923693,-0.162331072624,-0.0605491954054,-0.276385582553,-6.97031736374,0.177709132433,-0.75414276123,-0.0195036381483,-2.96247792244,-0.0902840420604
2017/07/09/09:57:56.546480,386121,1499565479,349647065,,0.820149419258,0.144464610185,0.122603765662,0.738313600736,0.667971367528,0.0653351583662,0.0666227904913,0.0754201020519,-0.326008780787,-0.0724336478923,-0.17067881746,-0.0460199297242,-0.278016382729,-7.35203361511,0.356571853161,-1.09819841385,-0.0859291851521,-3.11388754845,-0.0934347882867
2017/07/09/09:57:56.556528,386122,1499565479,359671734,,0.820777857349,0.14152240185,0.121966200246,0.739084143636,0.667052614139,0.0650885866598,0.0675197340278,0.0560342638071,-0.341720164995,-0.0864213844827,-0.202337723338,-0.00463636482172,-0.282916202822,-7.17921638489,0.614226698875,-1.15318000317,-0.185839295387,-3.02432155609,-0.146583840251
2017/07/09/09:57:56.566216,386123,1499565479,369648310,,0.821655019097,0.138194025314,0.121346137697,0.739835726917,0.666154000828,0.0645376184046,0.068679255735,0.080949661841,-0.343752425051,-0.0728844450832,-0.20156387294,-0.0700100774924,-0.277026363149,-7.5210351944,0.731476783752,-0.630869746208,-0.302290558815,-3.13799595833,-0.166865110397
2017/07/09/09:57:56.576486,386124,1499565479,379649538,,0.822001199746,0.135796431526,0.120433634127,0.740524897878,0.66541807026,0.0637339201931,0.0691350476338,0.0961947695623,-0.329324392303,-0.0576872688392,-0.212986767805,-0.0931256206596,-0.258170290694,-7.48872995377,1.43061172962,-0.909104645252,-0.384142577648,-3.10306596756,-0.149002820253
2017/07/09/09:57:56.586089,386125,1499565479,389645052,,0.823553126675,0.132405862762,0.120546714973,0.740997518261,0.664715930687,0.0635011160328,0.0710142076285,0.0797006152632,-0.341359159683,-0.0642737397118,-0.20579490682,-0.0587070998218,-0.272566449624,-6.72520065308,1.12234628201,-1.02266895771,-0.319068849087,-2.91903710365,-0.117583312094
2017/07/09/09:57:56.596188,386126,1499565479,399656220,,0.824244944084,0.12906449381,0.119333914016,0.741955770019,0.663627939516,0.0631255538259,0.0715175340966,0.100344476765,-0.33405564994,-0.0522076884516,-0.210259564889,-0.0920149855009,-0.260544217942,-5.6218752861,0.739861488342,-1.76369833946,-0.340403825045,-2.63118362427,-0.121827922761
2017/07/09/09:57:56.606327,386127,1499565479,409649797,,0.82530919053,0.125064512929,0.119583495291,0.74280365966,0.662557376648,0.0624195608528,0.0732410012688,0.0882552133559,-0.313369947553,-0.067479496859,-0.202659900322,-0.0518999258997,-0.244222833127,-5.20878124237,-0.110786154866,-1.66151177883,-0.0693681240082,-2.51602911949,-0.0558331310749
2017/07/09/09:57:56.616394,386128,1499565479,419653865,,0.825910055552,0.122031194568,0.118663153478,0.743586341822,0.661659206331,0.0616428518331,0.0740716258135,0.105304096281,-0.348600776961,-0.0478802891423,-0.254293174154,-0.0986552429455,-0.25680578277,-5.53976154327,0.346675395966,-2.21424126625,-0.134487077594,-2.6380469799,-0.0743554979563
2017/07/09/09:57:56.627804,386129,1499565479,429656186,,0.827825093338,0.119120026377,0.118962386055,0.744060273287,0.660882456155,0.0616919308694,0.0761760758313,0.0921825367926,-0.35006316049,-0.0528695486412,-0.252308625294,-0.0711300528161,-0.271950407596,-5.55064582825,0.55643683672,-1.49148702621,-0.149744510651,-2.73791122437,-0.0494404956698
2017/07/09/09:57:56.636483,386130,1499565479,439671255,,0.827732253166,0.116193746961,0.11733423206,0.744801450996,0.660158219896,0.060435034749,0.0762202720533,0.109942018588,-0.334125057373,-0.0314849547079,-0.249760187054,-0.120438527027,-0.241834191272,-5.89961910248,0.689751088619,-1.6021323204,-0.19425547123,-2.81048893929,-0.0522700473666
2017/07/09/09:57:56.646128,386131,1499565479,449646643,,0.82927214539,0.113890604631,0.117339169872,0.744861646773,0.659907097419,0.0607510498834,0.0775439222716,0.105536269087,-0.306869023519,-0.0445699290812,-0.21000420277,-0.0993990098282,-0.229606469127,-5.65815544128,0.612043142319,-1.79169857502,-0.0646340548992,-2.75365686417,0.0335864275694
2017/07/09/09:57:56.656385,386132,1499565479,459666182,,0.829949475729,0.110574577284,0.116850079823,0.746023347631,0.65853304621,0.0600480092566,0.0785978907047,0.0783682568637,-0.323375863123,-0.0642033670738,-0.216675015934,-0.0381593480344,-0.243001808236,-4.70120811462,0.344433128834,-1.26899766922,-0.0822216719389,-2.39050364494,-0.0477751046419
2017/07/09/09:57:56.666398,386133,1499565479,469648591,,0.830664000504,0.107870818834,0.116341022886,0.746668846019,0.657780362512,0.0595244465083,0.0791673502551,0.0995580353139,-0.321099765789,-0.0192618366208,-0.220956864617,-0.0903704704419,-0.254756400056,-4.71390771866,0.716658949852,-1.65817451477,-0.291703760624,-2.4259288311,-0.114013388753
2017/07/09/09:57:56.676355,386134,1499565479,479651336,,0.832299348208,0.10473929187,0.116519966827,0.747072127786,0.657113301533,0.0592710011605,0.0810696814777,0.0880206627456,-0.306099076437,-0.0457289080642,-0.209005798239,-0.0467660783419,-0.240382671423,-3.98454356194,1.14111971855,-1.73259592056,-0.302546590567,-2.22479081154,-0.066474750638
2017/07/09/09:57:56.686459,386135,1499565479,489647404,,0.832770604495,0.101480140237,0.116073340539,0.748154796513,0.65586081417,0.0585890054166,0.0817209969081,0.0841953062957,-0.292322654576,-0.0428666802071,-0.206343662121,-0.0411576600715,-0.232269475295,-3.83553266525,0.398334592581,-1.89065849781,-0.14159399271,-2.13474559784,-0.0460853725672
2017/07/09/09:57:56.696486,386136,1499565479,499648233,,0.833208006784,0.098138535368,0.115547379331,0.748856558595,0.655040647495,0.0575249767768,0.082622526134,0.0883066852213,-0.324741957391,-0.0252204656514,-0.21475235983,-0.0604928866308,-0.266981414847,-3.54156422615,0.372181415558,-1.79906904697,-0.135053604841,-1.9721057415,-0.0191343128681
2017/07/09/09:57:56.706272,386137,1499565479,509648068,,0.834630438526,0.0958930778848,0.115769795769,0.74946982508,0.654205502662,0.0575829072106,0.083632232894,0.0890975732239,-0.292052811184,-0.0204243667593,-0.178679774275,-0.0453471301864,-0.262203746472,-3.53398728371,0.686106443405,-1.68740165234,-0.213890224695,-1.97474646568,-0.0730937793851
2017/07/09/09:57:56.716289,386138,1499565479,519652585,,0.835237646233,0.0927896549245,0.115629389192,0.750180756902,0.653354575494,0.0567236506653,0.0844929471069,0.0864836987091,-0.305151769715,-0.0106520125406,-0.194456442605,-0.0492632569048,-0.266370987021,-4.50083589554,0.355480134487,-1.53225970268,-0.2481354177,-2.22257876396,-0.0457254350185
2017/07/09/09:57:56.726196,386139,1499565479,529648607,,0.835070567853,0.0897384882146,0.114592296044,0.751089228415,0.65242337302,0.05543275504,0.0844743923579,0.0480308175817,-0.302094563783,-0.0432746072179,-0.182929055527,0.0566630407903,-0.262648965311,-4.88981342316,0.574334979057,-1.6071010828,-0.379099845886,-2.37742137909,-0.0809730291367
2017/07/09/09:57:56.736381,386140,1499565479,539654798,,0.835858340368,0.087361851795,0.114696375702,0.751729114969,0.651660430577,0.0548020004791,0.0850809124983,0.0523654758786,-0.311260588497,-0.0204174444291,-0.201492123947,0.0511614578416,-0.262256788213,-4.58979225159,1.44109630585,-0.897071778774,-0.509178042412,-2.29516935349,-0.118739329278
2017/07/09/09:57:56.746284,386141,1499565479,549646155,,0.836273788416,0.0845838316343,0.114834856317,0.752742023872,0.650500284945,0.0539896300397,0.0855216032986,0.0461042122117,-0.28383745563,-0.023852132697,-0.176848603441,0.061545415553,-0.249920575994,-4.63168811798,0.814872026443,-1.141264081,-0.450511515141,-2.31113004684,-0.078446187079
2017/07/09/09:57:56.756310,386142,1499565479,559653952,,0.835793222204,0.0819292394938,0.113966709953,0.753619539151,0.649656340972,0.0524972464941,0.0851367603035,0.044472279829,-0.291866592132,-0.0137368644159,-0.181380288682,0.0654110069975,-0.275026965585,-4.61167001724,1.21207213402,-1.38778138161,-0.446044683456,-2.32966709137,-0.0571021735668
2017/07/09/09:57:56.766244,386143,1499565479,569648328,,0.836067176983,0.0791948979848,0.11370383837,0.754353520214,0.648857559796,0.0512442518087,0.0854907029675,0.0298468095416,-0.288303404239,-0.0183816354532,-0.175028661024,0.104276804897,-0.267600015697,-4.99792528152,0.755773603916,-1.92532968521,-0.314722180367,-2.51270842552,-0.00887669622898
2017/07/09/09:57:56.776474,386144,1499565479,579647259,,0.837071457882,0.07645225002,0.114677746432,0.754950434179,0.648019961938,0.0506955129226,0.086890366738,0.0403600637559,-0.285163468955,-0.0100170901547,-0.190195476098,0.0806224717247,-0.255709824476,-3.4282579422,0.337925434113,-1.28731763363,-0.296406924725,-2.00520396233,-0.0795335695148
2017/07/09/09:57:56.786478,386145,1499565479,589650246,,0.836743336318,0.0730761364479,0.113076553627,0.755891540577,0.647075225352,0.0494230302932,0.0864811869569,0.0261795727692,-0.2844245838,-0.0115144667722,-0.185498743761,0.106179093772,-0.256278692632,-3.55797982216,0.187015071511,-1.87714540958,-0.273885607719,-2.00425577164,-0.0525038912892
2017/07/09/09:57:56.796106,386146,1499565479,599646603,,0.837314735899,0.0704697348274,0.113539344027,0.75658134004,0.646242853472,0.0482227688988,0.0873465213981,0.0198519638123,-0.248363292564,-0.0129243491065,-0.153894201097,0.125900310655,-0.242977707188,-2.30497145653,0.0513408482075,-1.60078954697,-0.315090030432,-1.40533268452,-0.114957541227
2017/07/09/09:57:56.806343,386147,1499565479,609652564,,0.838433127513,0.0686583975295,0.114182053249,0.75722415053,0.645392932504,0.0482532652548,0.0880407344417,0.0302178703474,-0.264523518414,-0.00364101380691,-0.160733309341,0.104462609598,-0.261172878863,-1.25488555431,0.664079070091,-1.03362429142,-0.522207856178,-1.05045604706,-0.207865402102
2017/07/09/09:57:56.816343,386148,1499565479,619652334,,0.83780185174,0.0666026960526,0.113627022824,0.758444971688,0.644173841263,0.0469582160996,0.0871562567716,0.0376884718593,-0.274794145193,0.00223914885,-0.133792158663,0.0768234039548,-0.318079797497,-2.50340485573,0.923268675804,-1.42501807213,-0.530920147896,-1.43003976345,-0.1750574857
2017/07/09/09:57:56.826319,386149,1499565479,629678771,,0.838440467466,0.0633516748377,0.114186252973,0.759162840865,0.643259302768,0.0459190453885,0.0882082293393,0.00952645035792,-0.249710483914,-0.00394452747779,-0.0992215325082,0.135934424952,-0.302039405881,-2.72952365875,0.395961999893,-0.954299628735,-0.418327450752,-1.64205086231,-0.0890116691589
2017/07/09/09:57:56.836229,386150,1499565479,639654091,,0.838088650913,0.0613664157289,0.113977942876,0.759855490317,0.642588046255,0.0447925931362,0.0877146523982,0.0091846395857,-0.275060005392,0.0107657272783,-0.136284113366,0.14168628743,-0.312137166465,-2.51787304878,0.622651457787,-1.38160979748,-0.475804388523,-1.45432984829,-0.132090166211
2017/07/09/09:57:56.846720,386151,1499565479,649651075,,0.838217301393,0.058999573229,0.114151038324,0.760503856676,0.641868289749,0.0434201537274,0.0880549421998,0.00306126950519,-0.245663992511,0.00745945787106,-0.127882879833,0.157103720101,-0.273033742476,-1.57121384144,0.705108880997,-1.30305171013,-0.377619743347,-1.08752954006,-0.151315972209
2017/07/09/09:57:56.856395,386152,1499565479,659646863,,0.838299584266,0.0569529566437,0.114232826208,0.761438939121,0.640858841788,0.0425610232175,0.0877453485653,-0.00216477503946,-0.253327144621,0.0105925126051,-0.145782849808,0.167320474342,-0.265190720361,-0.4809448421,0.744973778725,-1.14493596554,-0.235985264182,-0.675338149071,-0.12637680769
2017/07/09/09:57:56.866616,386153,1499565479,669647962,,0.838475571044,0.0540511621916,0.114348858638,0.762447657449,0.639685587199,0.0415635472213,0.0880249437529,-0.00361540717903,-0.258857376159,0.0168500740822,-0.124627003668,0.167477708852,-0.29162327899,-0.894100129604,0.584952831268,-1.43198943138,-0.188072934747,-0.769082248211,-0.128348618746
2017/07/09/09:57:56.876375,386154,1499565479,679664270,,0.83820110632,0.0526069068441,0.114213608397,0.763482749549,0.638609895966,0.0406180221566,0.0873021660169,0.00173298976155,-0.238814824423,0.0260760347345,-0.0981471149935,0.154004027147,-0.299890894316,-1.61494874954,0.954513430595,-1.31845510006,-0.420319616795,-0.907428920269,-0.195191055536
2017/07/09/09:57:56.886406,386155,1499565479,689648677,,0.838292982412,0.049517778507,0.115092983446,0.764331948793,0.637614930946,0.0394328451578,0.0876865018776,-0.00269064597859,-0.225322865932,0.0289880359475,-0.0882219957818,0.165290543548,-0.298668606347,-2.12250709534,0.238782554865,-0.853150308132,-0.308768868446,-1.06669962406,-0.117375276983
2017/07/09/09:57:56.897274,386156,1499565479,699653546,,0.838288880073,0.0480013512975,0.115315678771,0.764924973597,0.636987589615,0.0385445118426,0.0874695149781,-0.00565268156067,-0.236270446473,0.0354236957493,-0.0875029003226,0.162267028282,-0.304084680189,-1.35541284084,0.428799510002,-0.761056900024,-0.331183344126,-0.594563901424,-0.205197706819
2017/07/09/09:57:56.906121,386157,1499565479,709648467,,0.838010465548,0.0459078571221,0.115399824178,0.765809144717,0.636053102691,0.037371380716,0.0870412794506,-0.00999384833881,-0.225338811487,0.0281859031842,-0.0686594315868,0.172040870617,-0.306476216189,-0.354867339134,0.541982412338,-0.872760415077,-0.284462511539,-0.183630764484,-0.203546896577
2017/07/09/09:57:56.916618,386158,1499565479,719660497,,0.837947346925,0.043974023759,0.115890534003,0.766605065292,0.635175609937,0.0364246759557,0.0868438909286,-0.0219995419092,-0.204885825132,0.0205653701008,-0.0475184387334,0.209742084536,-0.280484433672,0.481950730085,0.592468440533,-0.861054301262,-0.247547402978,0.098805822432,-0.246444791555
2017/07/09/09:57:56.926189,386159,1499565479,729645997,,0.837266955821,0.0416158315487,0.115925388723,0.76801122091,0.633652242318,0.0350158858019,0.086124840221,-0.0275757585027,-0.235129832997,0.0304261274827,-0.0898421731803,0.213489072098,-0.304432910485,0.722220122814,0.622688233852,-1.18066179752,-0.272872328758,0.0875014513731,-0.272216677666
2017/07/09/09:57:56.936167,386160,1499565479,739666705,,0.83729977755,0.03919349627,0.11684498625,0.768909198121,0.632615919377,0.0341098504135,0.0860944928542,-0.0334265942167,-0.222145152433,0.0389522495807,-0.0581408005235,0.232911242577,-0.308251485063,0.0500897988677,0.803948521614,-0.92739379406,-0.291400104761,-0.303185284138,-0.20481339097
2017/07/09/09:57:56.946642,386161,1499565479,749651990,,0.837562415616,0.0370433731189,0.117614840208,0.76986915258,0.63149589648,0.0335135374626,0.0859724574593,-0.00937465925924,-0.239042894929,0.0576831271833,-0.0705255585626,0.16239045903,-0.335659660804,0.352392047644,0.688735663891,-0.865087985992,-0.307764530182,-0.258722662926,-0.240037381649
2017/07/09/09:57:56.956409,386162,1499565479,759651122,,0.837116782365,0.0357941366711,0.117489114382,0.770685891378,0.630658582194,0.0327753834954,0.085081042386,-0.00320578424783,-0.214901751012,0.0557823457879,-0.0508452479359,0.155225442036,-0.316148110118,0.600548028946,0.946022629738,-1.38522613049,-0.361724346876,-0.0915138870478,-0.254422098398
2017/07/09/09:57:56.966704,386163,1499565479,769654097,,0.836916749601,0.0335981389387,0.117769782434,0.771762283695,0.62943776596,0.0318530670118,0.0847139797875,-0.0187163986216,-0.200378822245,0.0487505824416,-0.0211037506106,0.176662370631,-0.32230704706,1.12299001217,0.496010959148,-1.26610565186,-0.278387963772,0.184615179896,-0.253788411617
2017/07/09/09:57:56.976260,386164,1499565479,779649555,,0.837143367231,0.031353883742,0.118935035894,0.77299228276,0.627927554049,0.0315787561539,0.0848097861016,-0.0336447663153,-0.211160092774,0.0267302768258,-0.0193431926522,0.196398001185,-0.33148448617,2.21760129929,0.118548095226,-0.201038092375,-0.161922112107,0.67354798317,-0.277446657419
2017/07/09/09:57:56.986506,386165,1499565479,789645935,,0.836815793407,0.0298812612016,0.119251192998,0.773350928055,0.627585217926,0.0304905024383,0.0844716850739,-0.0201664964354,-0.193002552323,0.0515558010001,-0.0279658919868,0.158328650948,-0.309087800059,1.80328190327,0.472724467516,-0.266517847776,-0.161587506533,0.603968918324,-0.266254723072
2017/07/09/09:57:56.996329,386166,1499565479,799673155,,0.836664293416,0.0274587128183,0.119680686861,0.774972141621,0.625662850212,0.0298489387789,0.0841024282064,-0.0218204009298,-0.213094344638,0.0566879921968,-0.0398633676276,0.146819951113,-0.319597097858,1.19278872013,0.40847286582,0.0857982411981,-0.112040832639,0.348256766796,-0.242998272181
2017/07/09/09:57:57.006126,386167,1499565479,809648097,,0.835662915791,0.0250691707583,0.119676807561,0.775740332805,0.624847022306,0.0279810870785,0.083726898549,-0.0309183920391,-0.216449337638,0.0548613538172,-0.0510697259924,0.169127140146,-0.314080607901,2.20688939095,0.341986179352,-1.09821069241,-0.153957486153,0.791878581047,-0.309408575296
2017/07/09/09:57:57.016250,386168,1499565479,819646921,,0.83586156148,0.0240790093754,0.120592825041,0.776304834003,0.62420012879,0.0277576423421,0.0833937480485,-0.0280136752564,-0.207671499714,0.0521819673562,-0.0401635666244,0.159391777986,-0.317134639005,2.55419564247,0.889454960823,-1.30319321156,-0.218619793653,0.834231138229,-0.322714477777
2017/07/09/09:57:57.026626,386169,1499565479,829653609,,0.835925780502,0.0225674988029,0.121219755411,0.777177819474,0.623167491441,0.0274495071135,0.0830869369282,-0.0298551234899,-0.189359274396,0.0468273554457,-0.0169283885734,0.164765961668,-0.299073285736,2.99233031273,0.698966503143,-0.504964053631,-0.142386376858,0.878555774689,-0.290086001158
2017/07/09/09:57:57.036417,386170,1499565479,839652896,,0.835880991353,0.0209013050234,0.121712699681,0.778063822003,0.622131348932,0.0269074305607,0.0827361090886,-0.0115007046849,-0.174635746217,0.0693868544029,-0.0180922933202,0.112801602386,-0.281138757618,2.32909989357,0.285089284182,-0.897642195225,-0.130382552743,0.665587544441,-0.286436080933
2017/07/09/09:57:57.046120,386171,1499565479,849646029,,0.835687336558,0.0186381067166,0.122359502731,0.779176868046,0.620778853323,0.0265267899757,0.0825430371503,-0.0258237412005,-0.18650082161,0.0522640196203,0.017147813143,0.129972112725,-0.313694432857,2.57262706757,-0.0810027420521,-0.587470829487,0.0839284807444,0.762966275215,-0.216621309519
2017/07/09/09:57:57.056242,386172,1499565479,859648688,,0.834716994308,0.0169673559913,0.122038040634,0.780102445951,0.619790343679,0.0251631161499,0.0816512173092,-0.0135232826499,-0.187921617272,0.052054481495,0.0109304408612,0.0893671196871,-0.326927205976,3.09294676781,0.0223940014839,-0.654936730862,-0.0306886658072,1.0381282568,-0.323723435402
2017/07/09/09:57:57.066162,386173,1499565479,869648570,,0.834939369246,0.0159675115015,0.122483048123,0.780984107703,0.618739660946,0.025293728988,0.0811497551574,-0.0182134987932,-0.183044979023,0.0579981159995,0.0201972018631,0.0920959243606,-0.334094647791,2.8454823494,0.328524649143,-0.180914059281,-0.166986480355,0.970140516758,-0.357291221619
2017/07/09/09:57:57.076477,386174,1499565479,879653127,,0.834625840384,0.0131136365919,0.122929639745,0.782534281934,0.616802710825,0.0248503553791,0.081098541011,-0.0161960344985,-0.165617192186,0.0444361353762,0.0371903008371,0.0908194918317,-0.307479392942,2.61646914482,-0.67648935318,-0.396657019854,-0.0345840603113,0.998962283134,-0.301633358002
2017/07/09/09:57:57.086272,386175,1499565479,889651571,,0.834086798335,0.012117653498,0.123199081468,0.782839944316,0.616522913051,0.0240150440075,0.0805257531914,-0.0184746847708,-0.182376315588,0.0483233194935,0.0297028106657,0.0815657529385,-0.321933364691,2.29649710655,0.397557020187,-0.347282230854,-0.230927228928,0.925429522991,-0.350458145142
2017/07/09/09:57:57.096403,386176,1499565479,899648329,,0.83439820522,0.0107593119817,0.12382159953,0.783668504579,0.615484999755,0.0239904095518,0.0804136198506,-0.0269331267566,-0.188029893478,0.0592383098578,-0.00156508030546,0.0942936632632,-0.297169004018,3.2465941906,0.70547747612,-0.264414578676,-0.227105498314,1.26041388512,-0.353382706642
2017/07/09/09:57:57.106444,386177,1499565479,909650213,,0.834441311361,0.0079205445915,0.125343425268,0.785037539221,0.613667149074,0.0238743187605,0.0809858571857,-0.0231325336541,-0.174258375127,0.0734597083363,-0.00406862526038,0.0808811243318,-0.288317468859,2.6417350769,-0.202314555645,-0.160205543041,-0.0784054547548,0.9532289505,-0.328451603651
2017/07/09/09:57:57.116527,386178,1499565479,919653018,,0.834005562655,0.00633478642702,0.125818104918,0.785789294321,0.612780178114,0.0235328364843,0.0805098990651,-0.0132759854959,-0.183293304626,0.0824085001494,-0.00238126789559,0.0449560832712,-0.308167285943,2.81569266319,-0.230952233076,-0.949282348156,0.0290254801512,0.928799808025,-0.287282288074
2017/07/09/09:57:57.126203,386179,1499565479,929649166,,0.833908214814,0.00538336376323,0.126728563556,0.786558815683,0.611829402377,0.0233044147201,0.0802926902862,-0.0286184070272,-0.174512323019,0.0571486893725,0.0230849485194,0.0773220092673,-0.306486243,3.26656460762,-0.143211334944,-0.55618917942,0.0508947372437,1.06063723564,-0.324784338474
2017/07/09/09:57:57.136214,386180,1499565479,939653615,,0.833925368078,0.00392212433555,0.127224421306,0.78701376403,0.611258035644,0.0233389856033,0.0801763109528,-0.0233786284372,-0.174535747427,0.0618914222875,0.0283598805726,0.0535798328528,-0.30397976861,3.79926013947,0.124013245106,-0.313025206327,0.0587133765221,1.20968747139,-0.319795668125
2017/07/09/09:57:57.146345,386181,1499565479,949649326,,0.83401251978,0.00223206391616,0.127776322181,0.78793088942,0.61005669719,0.0231592811581,0.0803703142238,-0.012399563466,-0.174806113255,0.0643041151638,0.0297312390746,0.0136845236584,-0.306431097183,4.6063337326,-0.37628993392,0.00646114349365,0.174358278513,1.59945464134,-0.346536099911
2017/07/09/09:57:57.156271,386182,1499565479,959653826,,0.833583317459,0.000249366703644,0.127970007926,0.789229732575,0.608438797364,0.0230303065085,0.0799266167442,-0.0115223876514,-0.179360522759,0.0679287098262,0.0395239470416,-0.00700654598469,-0.308102438217,4.01375007629,-0.420276850462,0.0413766428828,0.148450165987,1.47562026978,-0.350680857897
2017/07/09/09:57:57.166231,386183,1499565479,969649831,,0.833312487906,-0.000723546197073,0.128271416994,0.789953620967,0.607556795098,0.0228878347551,0.07952461551,-0.00611798434354,-0.164360253749,0.0684413727555,0.0190497167736,-0.00136578967004,-0.279157202239,4.23643112183,-0.427391856909,-0.461196541786,0.144460454583,1.66319358349,-0.340652346611
2017/07/09/09:57:57.176454,386184,1499565479,979654796,,0.833645015573,-0.00267473086479,0.129384740452,0.790377147908,0.606925629217,0.0229556080541,0.0801141980142,-0.00271639765766,-0.163856895989,0.059813066709,0.0119246852348,-0.00840485067073,-0.282924263163,4.22367572784,0.0216392278671,0.0254506096244,-0.011130720377,1.5998673439,-0.400689035654
2017/07/09/09:57:57.186257,386185,1499565479,989649981,,0.833520838742,-0.00475330800064,0.129791080479,0.791630776904,0.605282002607,0.0229177726085,0.0801822054956,-0.00854507302616,-0.168968695526,0.0596165209734,0.0123980023868,-0.00554882081532,-0.273669688007,3.39245319366,-0.0750770866871,-0.628677248955,0.0166212767363,1.24891912937,-0.353646397591
2017/07/09/09:57:57.196301,386186,1499565479,999651864,,0.832928557457,-0.00663977096528,0.129756922865,0.79251381303,0.604191063708,0.0226228247775,0.0797698093973,-0.0196250954346,-0.190524819333,0.0544838639658,0.0016144989859,-0.00504367304807,-0.27821535327,3.41538238525,-1.05291068554,-1.06631445885,0.223464086652,1.34465491772,-0.370782643557
2017/07/09/09:57:57.206250,386187,1499565480,9649153,,0.833117191158,-0.0074768921076,0.130799212683,0.792824481008,0.6037447649,0.022495807065,0.0800970650819,-0.0105541600503,-0.172827372538,0.0539428943939,-0.00525278116988,-0.0126341035374,-0.249767695708,4.01462078094,-0.111468136311,-0.563324987888,0.135128885508,1.47651565075,-0.396587312222
2017/07/09/09:57:57.216369,386188,1499565480,19653283,,0.832465554534,-0.0106209431311,0.130902326613,0.794188085895,0.601924072722,0.0221377938596,0.0803903786715,0.00938745937256,-0.172579828719,0.0895324871304,-0.0242721213933,-0.0735121841468,-0.255409778583,3.39281272888,-1.31255602837,-0.0565585568547,0.241073966026,1.3527545929,-0.356452792883
2017/07/09/09:57:57.226855,386189,1499565480,29664357,,0.832855179359,-0.011435954279,0.131970738946,0.794671361429,0.601259541998,0.0230317273133,0.0803363555145,-0.00652637508973,-0.204047146745,0.0833635442177,-0.028002817318,-0.067137203964,-0.291186983449,3.1793448925,-0.0786778330803,-0.550258159637,-0.0203364938498,1.21849834919,-0.409615278244
2017/07/09/09:57:57.236379,386190,1499565480,39653893,,0.832817830775,-0.0130739981545,0.132640677201,0.795223925125,0.600469185023,0.022673535206,0.0808800194633,0.00459659636807,-0.153590263862,0.0575013627928,0.0110428754184,-0.0655310746693,-0.24990414569,3.21605491638,-0.184813380241,-0.73512929678,0.00358909368515,1.16828751564,-0.361472219229
2017/07/09/09:57:57.246537,386191,1499565480,49649042,,0.832687016322,-0.0147209588626,0.13298798189,0.796185607806,0.599204240818,0.023141575372,0.0806673614197,0.000424994675264,-0.172519854364,0.0458760482559,-0.00553616222027,-0.0598972212862,-0.249490596202,2.5978782177,-0.212629765272,-0.834596455097,-0.0188723504543,0.965364575386,-0.375017136335
2017/07/09/09:57:57.256216,386192,1499565480,59649884,,0.833325262949,-0.0169923831387,0.134376817245,0.796781345614,0.598204819898,0.023661089053,0.0820404387965,0.000235440878304,-0.179828271929,0.0588766828587,-0.0257791043262,-0.0748580771116,-0.240304646336,2.81087636948,-0.850227713585,-0.289580971003,0.21931566298,1.04581403732,-0.300281137228
2017/07/09/09:57:57.266519,386193,1499565480,69647315,,0.833456345321,-0.0178011809555,0.134741315577,0.797233651751,0.597575531095,0.0237700894043,0.0822008029311,0.00906505332323,-0.156540388152,0.0474318788503,0.000369898715589,-0.0892050561857,-0.223121481643,3.27456259727,-0.474046140909,-0.254065483809,0.17494045198,1.2654992342,-0.365651220083
2017/07/09/09:57:57.276500,386194,1499565480,79652070,,0.832812784368,-0.0201213287582,0.134161527113,0.798189518172,0.596340654481,0.0235265494073,0.0819622984443,-0.000977031920192,-0.162502917543,0.0441774519951,-0.00651256719671,-0.0795304399273,-0.2362431797,2.28897428513,-0.853103160858,-0.447359681129,0.194537982345,0.937744259834,-0.330175995827
2017/07/09/09:57:57.286279,386195,1499565480,89646387,,0.832917107906,-0.0215497398313,0.134780074934,0.798737550876,0.595547496469,0.0239222099388,0.0822753434598,-0.0249835308282,-0.184250718255,0.0337764432901,-0.00485675865243,-0.0420671746414,-0.248816332134,2.35461473465,0.0571693181992,-0.165762782097,-0.0319382399321,0.908917665482,-0.377679407597
2017/07/09/09:57:57.296333,386196,1499565480,99650426,,0.832881759688,-0.0231657846185,0.13510309698,0.799302114115,0.594731346915,0.0238432540773,0.0827179218974,-0.00755982030018,-0.200797648235,0.0324070981567,-0.0332929033095,-0.0785447864415,-0.254408121993,1.88946151733,0.534171819687,-0.593489229679,-0.155091971159,0.691790640354,-0.389841556549
2017/07/09/09:57:57.306197,386197,1499565480,109647867,,0.833413554363,-0.0251490048385,0.135827258829,0.799867124635,0.593798873975,0.0245886019148,0.0837310029221,-0.0124828619249,-0.173611609847,0.0356226240464,-0.0149727062937,-0.0740535483815,-0.235127575969,1.16760754585,0.687550067902,0.103465273976,-0.249250739813,0.336845815182,-0.334792852402
2017/07/09/09:57:57.316412,386198,1499565480,119675722,,0.832659285493,-0.0267983778018,0.136038387221,0.800508382655,0.592967927275,0.0243355925887,0.0835652167856,0.00724805635283,-0.155464974358,0.0372991816846,-0.0341481136254,-0.108200653305,-0.170206016457,0.991566479206,0.347088068724,-0.127291351557,-0.141588002443,0.374007642269,-0.311855375767
2017/07/09/09:57:57.326402,386199,1499565480,129650404,,0.832388220623,-0.0285081238314,0.135848290425,0.800584509016,0.59281017658,0.0239859388585,0.0840548226075,-0.00846214049405,-0.16316104473,0.0233181884466,-0.0274818861494,-0.0834145797879,-0.164668175751,1.63085985184,-0.350687891245,-0.442588895559,0.100343257189,0.655756592751,-0.287726521492
2017/07/09/09:57:57.336324,386200,1499565480,139652472,,0.832461729955,-0.0295091373852,0.136196044476,0.801202391262,0.591936436463,0.0248227858279,0.0840821784128,-0.0164959761796,-0.184376145245,0.0151168695539,-0.0197449103464,-0.0856702421206,-0.185890582477,1.30907869339,0.381834059954,0.102769650519,-0.0384543687105,0.493725240231,-0.305237859488
2017/07/09/09:57:57.346517,386201,1499565480,149650752,,0.832395994619,-0.0308154572323,0.135586831079,0.801282282253,0.591812614438,0.0249567249522,0.0841528099295,-0.0167646123052,-0.183550000264,0.0196292314466,-0.0413780562285,-0.0783886164094,-0.15781605205,0.824205219746,0.663158595562,-0.352259337902,-0.168427586555,0.378640830517,-0.340709924698
2017/07/09/09:57:57.356358,386202,1499565480,159653575,,0.83193823771,-0.0329069241859,0.136288039339,0.801855241049,0.590968105429,0.0247356986922,0.0846936596091,-0.0212497607251,-0.178333732461,0.024648690824,-0.0350123248155,-0.0765959060693,-0.121703545701,-0.138025209308,0.645656228065,-0.338950991631,-0.207923620939,0.0773237794638,-0.285473704338
2017/07/09/09:57:57.366445,386203,1499565480,169653222,,0.832276357535,-0.0337797870075,0.136691427635,0.801573450762,0.591250111437,0.0252206596949,0.0852480327262,-0.0224967341687,-0.154844382292,0.013967161696,-0.0303122922224,-0.0492127561389,-0.0640834278915,0.43383204937,0.691572666168,0.140990197659,-0.252147525549,0.29037541151,-0.338122785091
2017/07/09/09:57:57.376341,386204,1499565480,179651167,,0.831693454189,-0.034919614872,0.136389311123,0.801644173875,0.591205036766,0.0252652986437,0.0848816097851,-0.0368870120513,-0.141948884402,-0.0040851322624,-0.0360958089741,-0.00211081403906,-0.034855831037,0.35925540328,1.305134058,-0.377509862185,-0.438400447369,0.247246339917,-0.330974727869
2017/07/09/09:57:57.386300,386205,1499565480,189648618,,0.830516578143,-0.0373388300017,0.136380660375,0.801929731535,0.590834794331,0.0244105050139,0.0850122269573,-0.0480527932341,-0.150485768363,-0.0116675395818,-0.0160418215782,0.00936379736712,-0.0393083710718,0.296371668577,-0.0315164625645,-0.103938192129,0.0336991995573,0.249731197953,-0.231875792146
2017/07/09/09:57:57.396550,386206,1499565480,199646098,,0.830214868729,-0.0386466463681,0.136398957673,0.801929375388,0.590834903527,0.0246587237486,0.0849431633947,-0.0587664775107,-0.170011351282,-0.00425327239436,-0.0171117616214,0.0173259219129,-0.0184013066223,-0.970120429993,0.161732524633,0.231379151344,0.0114367008209,-0.248958036304,-0.15015155077
2017/07/09/09:57:57.406507,386207,1499565480,209649672,,0.829422158366,-0.0405008751645,0.136233068465,0.801901029639,0.590886978012,0.0241005439227,0.0850087152143,-0.059776982836,-0.147766099988,-0.00744788179548,-0.010864402158,0.0379656730285,0.0378583889873,-0.419291198254,0.293567538261,-0.154373347759,0.0106080472469,-0.103258736432,-0.164179608226
2017/07/09/09:57:57.416485,386208,1499565480,219646496,,0.82865458863,-0.0410255060752,0.135470884674,0.801723270993,0.591246802004,0.0237261005263,0.0842857521827,-0.0642989433564,-0.126674999496,-0.0254737614567,-0.0149544469578,0.0754775824171,0.0540422305667,-0.0500497743487,0.48115259409,-0.231103867292,-0.17004108429,0.0308519303799,-0.203224688768
2017/07/09/09:57:57.426319,386209,1499565480,229650576,,0.828267611993,-0.0426427012328,0.135069043226,0.801375601904,0.591704986528,0.0237022120413,0.0843834031958,-0.0564718204876,-0.12337609787,-0.0241426424243,-0.015437066209,0.0546745456902,0.0604422863589,-0.370541751385,0.304818511009,-0.609673500061,-0.162433087826,-0.0294903889298,-0.189035624266
2017/07/09/09:57:57.436844,386210,1499565480,239659184,,0.827361683975,-0.0440309505433,0.134513350578,0.801465755877,0.591667051766,0.0233923051263,0.0838781382192,-0.0675263974273,-0.157115480478,-0.0200366118281,-0.0276309816174,0.0491546255431,0.0343989669256,-0.450047194958,0.470785290003,-0.477740615606,-0.17317506671,-0.170680865645,-0.138991102576
2017/07/09/09:57:57.446409,386211,1499565480,249652376,,0.826886052436,-0.0451511983952,0.134662850005,0.801260223135,0.591919867375,0.0229622588762,0.0841763630529,-0.0839932225097,-0.152631304837,-0.0318026286954,-0.0156277216185,0.0857664840461,0.0197702980699,0.327912032604,0.207248032093,-0.392175704241,-0.00010883808136,0.133129402995,-0.121254727244
2017/07/09/09:57:57.456641,386212,1499565480,259654928,,0.826243476862,-0.0466795769262,0.135065769049,0.801415706065,0.591707000955,0.0227572492628,0.0842484344053,-0.0797962961961,-0.136782936172,-0.0364876906065,0.00226830550315,0.0809682781002,-0.00679521184768,-0.0100657194853,0.201227501035,0.336060315371,-0.0544508099556,0.0023920238018,-0.157987535
2017/07/09/09:57:57.466292,386213,1499565480,269645958,,0.825356328863,-0.0483612864412,0.134059905284,0.801604430279,0.591516527767,0.0224920048565,0.08386086365,-0.0838554911468,-0.147158722398,-0.0357963669953,-0.00511855626842,0.0850725847061,-0.0528201045286,-0.152307495475,0.217575788498,0.395392388105,-0.0315164402127,-0.0688372924924,-0.121137835085
2017/07/09/09:57:57.476311,386214,1499565480,279645797,,0.824680533475,-0.0495548631186,0.13405366386,0.801955181967,0.591091637868,0.0226619635129,0.0834565585643,-0.0780052218811,-0.135554838313,-0.0387683966408,0.0156557859052,0.0762380793863,-0.0428676195357,0.268634468317,0.0762979239225,0.533379077911,-0.0139807462692,0.0849453210831,-0.149928703904
2017/07/09/09:57:57.486420,386215,1499565480,289647556,,0.824248525526,-0.0498475585906,0.133389508356,0.801579381511,0.591650670622,0.0220486744121,0.0832696526135,-0.0666623149226,-0.126425539456,-0.0326433490506,0.00203995321957,0.056311128097,-0.0254406459665,0.34635707736,0.82293599844,0.344235092402,-0.153779476881,0.111011102796,-0.163746982813
2017/07/09/09:57:57.496347,386216,1499565480,299649501,,0.823939876187,-0.0514249501784,0.133576900727,0.801811478113,0.591285519845,0.0221516408104,0.0836007918499,-0.0492203983649,-0.115069360305,-0.0220122139332,-0.0308598081341,0.0382556675596,0.0184974467043,0.37387752533,0.036247253418,0.236502334476,0.0491205602884,0.134710460901,-0.130370646715
2017/07/09/09:57:57.506322,386217,1499565480,309651977,,0.82288991383,-0.0528842528053,0.132766017908,0.802453311592,0.59050993634,0.0218022756668,0.0830142070708,-0.0663744683963,-0.149559131555,-0.039044951647,0.00180397701243,0.0380112537037,-0.0585548958022,0.50878149271,-0.503859877586,-0.176280617714,0.181230723858,0.277160167694,-0.134509593248
2017/07/09/09:57:57.516453,386218,1499565480,319655262,,0.82223871495,-0.0532820030211,0.131787950115,0.802290354653,0.590841004743,0.0215047721216,0.0823081935218,-0.0574716593336,-0.137892925285,-0.0423339542912,0.00539075641204,0.0336423734173,-0.0538654493373,0.865213394165,0.039074420929,-0.632610917091,0.157574176788,0.38065007329,-0.124748080969
2017/07/09/09:57:57.526354,386219,1499565480,329646129,,0.822346691932,-0.0553943535732,0.13231466657,0.802625639596,0.590237934359,0.021549819806,0.0833478780358,-0.0424353623211,-0.116126991893,-0.0214607202843,0.0138160699012,0.00871032959416,-0.0860463069693,-0.247505769134,-0.0514771491289,-0.346751153469,0.104898311198,-0.0321086645126,-0.0798541605473
2017/07/09/09:57:57.536309,386220,1499565480,339655405,,0.822044181607,-0.056036382273,0.132329971776,0.802733643982,0.590116415967,0.021876530806,0.08308266862,-0.0474730144216,-0.114783230654,-0.033850796902,0.0132377616301,0.0212647864155,-0.0851222768201,-0.983846068382,0.333322197199,0.0402900092304,-0.03726606071,-0.236540287733,-0.0259890723974
2017/07/09/09:57:57.546130,386221,1499565480,349646619,,0.821085994894,-0.0579604366226,0.13188948761,0.802687112881,0.590208991126,0.0211008047899,0.0830752769816,-0.0464502822455,-0.13238822902,-0.0282805512897,0.0206400342398,-0.000523911685889,-0.0541797464137,-1.82282006741,-0.00164715200663,-0.387481719255,0.0158407315612,-0.478133380413,-0.0103617496789
2017/07/09/09:57:57.556381,386222,1499565480,359654414,,0.820996925384,-0.0579032481226,0.131219802729,0.802085910285,0.591080402049,0.021384427502,0.0826126933064,-0.0546414863973,-0.117951023619,-0.0439816499902,-0.0129107851718,0.0573309601205,0.0769012621468,-2.00644922256,1.22460103035,-0.174111068249,-0.259956598282,-0.725554943085,-0.051058806479
2017/07/09/09:57:57.566203,386223,1499565480,369657518,,0.820883389782,-0.0593287097548,0.131469976994,0.801700368337,0.591537006008,0.0213035333684,0.0831062536592,-0.0463865568087,-0.0891615952965,-0.0383172826766,-0.00818982336108,0.0608108387445,0.115956744578,-2.1920170784,0.827677607536,-0.223594501615,-0.255761325359,-0.717636466026,-0.0777334719896
2017/07/09/09:57:57.576686,386224,1499565480,379655415,,0.819695064376,-0.059828964854,0.130120736749,0.801968987334,0.591336339199,0.0208240009566,0.082057530316,-0.0539757237482,-0.0821994063977,-0.0465504327978,-0.0107026085009,0.0840422627819,0.114587400424,-2.580773592,1.02587544918,-0.610334157944,-0.285467326641,-0.868638515472,-0.0577849000692
2017/07/09/09:57:57.586843,386225,1499565480,389656732,,0.818365683587,-0.0623252249198,0.129731439976,0.801931075114,0.591418266436,0.0198292489912,0.082084016574,-0.0669032826033,-0.105696938125,-0.0512538531733,-0.000171389737488,0.0902522530641,0.0524571672118,-1.92141664028,-0.0300218760967,-0.330299407244,0.0636811777949,-0.583369970322,-0.00205639749765
2017/07/09/09:57:57.596402,386226,1499565480,399652994,,0.818394876702,-0.0615711731144,0.129342903828,0.8015962276,0.591940789773,0.0200590619233,0.0815305055514,-0.0602905979539,-0.115424187306,-0.038384498095,-1.42987866055e-05,0.0564972204939,0.0324234900414,-1.90808010101,0.984610795975,-0.392514258623,-0.130118533969,-0.593488693237,-0.0227142646909
2017/07/09/09:57:57.606514,386227,1499565480,409650968,,0.818084622169,-0.0628837168001,0.128938205643,0.80124890621,0.592398583701,0.020071579106,0.0816164201492,-0.0490447566732,-0.0803702417148,-0.0461251687196,0.00982580305336,0.0624349298094,0.0518103301969,-0.892514646053,0.787948608398,-0.610302388668,-0.109789580107,-0.247544288635,-0.0652101039886
2017/07/09/09:57:57.617188,386228,1499565480,419652192,,0.817429124184,-0.064073447866,0.128006230894,0.801779375834,0.591768840326,0.0199526457744,0.081002247091,-0.0647720374422,-0.0877849200833,-0.0579417768598,0.0213670114319,0.0930088131263,0.0227293474748,-0.580249965191,0.0129609555006,-0.605246305466,0.0141577348113,-0.136781826615,-0.0834866315126
2017/07/09/09:57:57.626598,386229,1499565480,429648292,,0.816645936334,-0.0646099237326,0.127499880912,0.801663214104,0.591994962382,0.0194207801593,0.0806280904226,-0.062087008648,-0.0880213625428,-0.055384145309,0.0303263662457,0.0798644045442,0.0146543490584,-1.5328168869,0.638576745987,-0.460573762655,-0.128423497081,-0.502119660378,-0.0551079288125
2017/07/09/09:57:57.636413,386230,1499565480,439658244,,0.816490842061,-0.0651408238763,0.12750167866,0.801423391229,0.592333120821,0.0194752808819,0.0805154358126,-0.042573217829,-0.0594785681521,-0.0498641679853,0.0347505706296,0.0583245938322,0.047919033976,-1.20284640789,0.913871824741,-0.279550403357,-0.19250279665,-0.446898579597,-0.0597045496106
2017/07/09/09:57:57.646369,386231,1499565480,449646651,,0.816245517615,-0.0656969370393,0.127010205938,0.801194566965,0.592652571557,0.019224652777,0.0805022236904,-0.0483752032935,-0.0639985481365,-0.0455588870944,0.00589851202907,0.0828334426995,0.0465786767782,-1.6566375494,0.770373404026,-0.239821925759,-0.21990865469,-0.58220410347,-0.0868753194809
2017/07/09/09:57:57.656442,386232,1499565480,459654333,,0.81482629382,-0.0671917515055,0.126065907526,0.801622194873,0.592205245599,0.0186228992696,0.0796742831527,-0.0576030552775,-0.0818150506212,-0.0515041191702,0.0106103205863,0.0846565535781,0.0143997947886,-2.44576835632,-0.0126684308052,-0.665500104427,0.0723041594028,-0.839637756348,0.0371453389525
2017/07/09/09:57:57.666482,386233,1499565480,469657022,,0.815440146249,-0.0676994303369,0.126856889227,0.801405246169,0.592366580186,0.0189417602239,0.0805771419852,-0.0613140857369,-0.0923404982079,-0.0524904785315,0.0340563498196,0.0708684224412,-0.0296103007392,-0.383661746979,0.0218628793955,-0.0260534957051,0.152315735817,-0.118695698678,-0.061032615602
2017/07/09/09:57:57.676289,386234,1499565480,479650345,,0.814626719411,-0.0677421726262,0.125197801114,0.801475819589,0.59245826175,0.0186110567952,0.0792675675448,-0.037016622446,-0.0337308542242,-0.0534368564274,0.0435751348812,0.066605931295,0.00317635462336,-0.381703525782,0.808584213257,-0.737681865692,-0.0704884156585,-0.138643041253,-0.0578009039164
2017/07/09/09:57:57.686163,386235,1499565480,489645944,,0.814285727531,-0.0684355514433,0.124715268003,0.801847209423,0.591972319605,0.018647699116,0.0791333613623,-0.0372429972687,-0.0428331730613,-0.0621676753199,0.0461594354726,0.0583316115614,-0.0294384635598,-0.527322232723,0.151892259717,-0.83398514986,-0.001873832196,-0.121619217098,-0.067317135632
2017/07/09/09:57:57.696398,386236,1499565480,499652437,,0.813697616126,-0.0689275345405,0.124442682933,0.801766305449,0.592136821893,0.018130372088,0.078842026941,-0.0503032753482,-0.0779137707137,-0.0576267564943,0.0283042755667,0.0598427347377,-0.0582037957417,-1.3943208456,0.692411661148,-0.593542516232,-0.168329954147,-0.452699095011,-0.0703798606992
2017/07/09/09:57:57.706438,386237,1499565480,509646044,,0.813334378938,-0.0687902497412,0.123834206121,0.802090091454,0.591794289127,0.018165865318,0.0781089360169,-0.0440548053451,-0.0510839529982,-0.0446979400385,0.0191109985721,0.0691401275712,-0.0286878196877,-1.79820096493,1.00570189953,-0.433999687433,-0.233799636364,-0.60387814045,-0.050369232893
2017/07/09/09:57:57.716429,386238,1499565480,519650714,,0.813525907838,-0.0692549220731,0.124067209668,0.801974954347,0.591885494803,0.018207112507,0.0785890240155,-0.0471372883168,-0.0461508414749,-0.0641502709238,0.0348443500899,0.0812229807815,-0.0516087821136,-1.15716779232,0.768157482147,0.271734088659,-0.159186333418,-0.397591769695,-0.113172784448
2017/07/09/09:57:57.726388,386239,1499565480,529653453,,0.812330371918,-0.0699339132097,0.122271957608,0.802168505882,0.591775073442,0.0175327730581,0.0775922192825,-0.0248992300362,-0.0360776351641,-0.0419239470407,0.0238472155292,0.033846530059,-0.0415239806766,-2.39419913292,0.680705189705,-0.374203324318,-0.201628088951,-0.737626671791,-0.0802799910307
2017/07/09/09:57:57.736154,386240,1499565480,539652418,,0.812323051774,-0.0710676903558,0.122515779301,0.802464913192,0.591311315098,0.0175736847592,0.0780522730998,-0.0341233864391,-0.0467934636377,-0.0462617478995,0.0332921051193,0.0392671994634,-0.0405265066577,-1.16952550411,0.0116398632526,-0.11714862287,-0.0321685150266,-0.252882122993,-0.140758708119
2017/07/09/09:57:57.746194,386241,1499565480,549644786,,0.812045402837,-0.0706379750179,0.122002428189,0.802421223121,0.591444871929,0.0176699944932,0.0774655758954,-0.0256471365911,-0.0546743446387,-0.035843606092,0.00637738463365,0.0244584733307,-0.0314211641936,-0.302720606327,0.6130823493,-0.554784178734,-0.00868037343025,0.0671425759792,-0.127699136734
2017/07/09/09:57:57.756271,386242,1499565480,559645937,,0.812061176324,-0.0711071918981,0.121939132699,0.80228996881,0.591610103462,0.0175208192659,0.0775971154144,-0.0384120698298,-0.0449041341088,-0.0456522807707,0.0234343909796,0.0550674199474,-0.0543374857096,-0.901291847229,0.729582309723,0.21988940239,-0.0775032639503,-0.193615913391,-0.105132028461
2017/07/09/09:57:57.766352,386243,1499565480,569647165,,0.811363589173,-0.0715096597686,0.120806984115,0.802572822599,0.591314051537,0.0170612902982,0.0770290156548,-0.0313800245029,-0.0345890763926,-0.0469127219802,0.0129117000671,0.0541581265199,-0.0209327158333,-1.30481171608,0.810004234314,0.0671873986721,-0.196049526334,-0.359458565712,-0.111268974841
2017/07/09/09:57:57.776438,386244,1499565480,579653757,,0.811578718622,-0.0714767225619,0.121364272336,0.802467464849,0.591417133132,0.0173364411761,0.0772734773706,-0.00890109665055,-0.0177848226611,-0.0274967686699,0.0187893868989,0.0142548662666,-0.0216944443725,-1.5325409174,0.988911271095,0.39031034708,-0.25404176116,-0.44794973731,-0.126655355096
2017/07/09/09:57:57.786657,386245,1499565480,589649353,,0.810577347788,-0.0720786793477,0.120159757406,0.803114124645,0.590666717243,0.0169093073737,0.0763846009439,-0.0304091858377,-0.0455085027259,-0.0367658175797,0.0268086369791,0.0317490234805,-0.0941955785332,-1.31772005558,0.342288523912,0.0490962080657,-0.0116585567594,-0.336450785398,-0.0951167866588
2017/07/09/09:57:57.796999,386246,1499565480,599646661,,0.810180794756,-0.0724673832271,0.120002230495,0.803260475707,0.590505090433,0.0165415011583,0.0761756199712,-0.0356105461049,-0.0360521814713,-0.0436206982579,0.0467353191641,0.0480686676362,-0.076147142185,-1.58412790298,0.555445194244,0.070338614285,-0.0426075607538,-0.445830255747,-0.0775966793299
2017/07/09/09:57:57.806436,386247,1499565480,609648610,,0.810670850213,-0.0720118879647,0.119665948414,0.802986103696,0.590863279891,0.0168837675037,0.0762157473321,-0.0175140082959,-0.0276192030878,-0.0204001747137,0.0139966759293,0.0191489265145,-0.0385915383643,-1.20166099072,1.40538191795,-0.133853927255,-0.281925022602,-0.371967107058,-0.112693525851
2017/07/09/09:57:57.816445,386248,1499565480,619656161,,0.810417592554,-0.0727831356548,0.119942356792,0.803231667595,0.590514688411,0.017045750628,0.0762937306062,-0.0126352571377,0.00260611387392,-0.0301051619146,0.0276510513041,0.0361135026059,0.00219652182961,-0.244828730822,0.442890048027,0.135134547949,-0.0356047227979,0.0411971993744,-0.144866526127
2017/07/09/09:57:57.826512,386249,1499565480,629649112,,0.81044335627,-0.0724952602692,0.119692188449,0.803179654961,0.590613513247,0.0171224071891,0.0760588127662,-0.0134484775537,-0.00787917159653,-0.0331263054516,0.0252526735956,0.0291634168289,-0.014971056177,-0.0709448307753,-0.0679357796907,0.74026620388,0.0683394894004,0.129355669022,-0.143887415528
2017/07/09/09:57:57.836356,386250,1499565480,639683663,,0.810482261486,-0.0721553642174,0.119407901039,0.803303719337,0.59046972411,0.0170949784272,0.0758709504441,-0.0268256321788,-0.0151657626758,-0.0272751312715,0.0364420086672,0.0437070601734,-0.0426610315534,-0.43036532402,0.572037994862,0.680866479874,-0.0255496799946,-0.0949957445264,-0.122052192688
2017/07/09/09:57:57.846243,386251,1499565480,649647311,,0.809977691373,-0.0727118010671,0.118800210511,0.803531092343,0.590216974714,0.0169121259325,0.0754697713906,-0.0224489283845,-0.0148967831835,-0.0273880701687,0.0366757538131,0.0320363553469,-0.0406614119233,-0.735843718052,0.523456931114,0.270719766617,-0.0572682321072,-0.137993067503,-0.122284293175
2017/07/09/09:57:57.856331,386252,1499565480,659650833,,0.810267018663,-0.072386885543,0.119125516039,0.803427702385,0.590325796861,0.017010238969,0.0756969772927,-0.00572989627574,-0.0185532574914,-0.0120822646967,-0.00524876894466,-0.000967723761927,-0.0212195768669,-0.661544024944,0.318052411079,0.595843732357,-0.080331005156,-0.0759507268667,-0.15456213057
2017/07/09/09:57:57.866270,386253,1499565480,669648955,,0.809679379482,-0.0724300352013,0.118382997975,0.803667078968,0.590094123265,0.0166503425619,0.0750394427221,-0.0299789424894,-0.0395484193433,-0.0201139636759,-0.0147589440893,0.0454472497534,-0.0487620221381,-0.740760624409,0.865622282028,0.245293915272,-0.172917306423,-0.164497479796,-0.156614869833
2017/07/09/09:57:57.876496,386254,1499565480,679652963,,0.809726874493,-0.0726965494723,0.118190885288,0.803418763705,0.590426353888,0.0167430994728,0.0750645014691,-0.0173970236417,-0.0285570225711,-0.0188021261507,0.0111580092732,0.0162757280821,-0.0501270955017,-0.223105221987,1.00592207909,0.163345634937,-0.16516315937,-0.0436416827142,-0.151233479381
2017/07/09/09:57:57.886433,386255,1499565480,689654867,,0.809790860172,-0.0738648697306,0.118521328433,0.803988385801,0.589548823688,0.0165142308038,0.0759087621252,-0.0121754257318,-0.0393801649168,-0.0123143343121,-0.0166491199362,0.00722248543333,-0.0255263746173,-0.128455191851,0.629474043846,0.627942383289,-0.147855266929,-0.0028890222311,-0.177253931761
2017/07/09/09:57:57.896503,386256,1499565480,699647547,,0.809521558697,-0.0741668373473,0.118637382353,0.804040470181,0.589500640634,0.0163511684661,0.0757664588911,-0.00579197492601,-0.00325006136698,0.0009334209988,0.00395694683462,0.00699734271072,-0.0141200959169,-1.22517132759,0.268919199705,0.897125124931,-0.0559159964323,-0.397463321686,-0.0839034020901
2017/07/09/09:57:57.906448,386257,1499565480,709649596,,0.809623750452,-0.0745459392601,0.118942440303,0.804128107605,0.589333478165,0.0165254105673,0.0760982843371,-0.0122495100025,-0.00823394066524,-0.00734907929082,0.0137691036753,0.0203526649196,-0.0269277168919,-1.24873483181,0.244389593601,1.01492655277,-0.108552277088,-0.341852128506,-0.139134973288
2017/07/09/09:57:57.916227,386258,1499565480,719647489,,0.809399341978,-0.0746189448338,0.118138123617,0.804452002795,0.588956685322,0.0167136680844,0.0755489994168,-0.00235204423966,-0.00750526491392,-0.00665935396116,-0.000453572500342,0.00366206603485,-0.000595062560388,-1.10010826588,-0.339981198311,0.797999680042,0.037604354322,-0.26168602705,-0.10545770824
2017/07/09/09:57:57.926543,386259,1499565480,729651665,,0.809729189792,-0.0737222096048,0.118262238084,0.803966506607,0.589617041627,0.0167108292074,0.0755668489729,-0.00692085341155,-0.00446881982548,-0.017344058358,-0.00179684333146,0.0152084138739,0.00299082992376,-0.816536843777,0.334533125162,0.766876101494,-0.0658647716045,-0.241146802902,-0.143444225192
2017/07/09/09:57:57.936516,386260,1499565480,739645507,,0.809201848072,-0.0733137275023,0.117898744286,0.803979650925,0.589698997277,0.0164216897791,0.0748474556218,0.00322879071637,0.00100524905552,-0.00042679229557,-0.000451562224183,-0.00236180730374,0.00564873459541,-1.21550440788,0.651735126972,0.322563946247,-0.116933129728,-0.285385459661,-0.127433627844
2017/07/09/09:57:57.946524,386261,1499565480,749665039,,0.80953394914,-0.0738749611111,0.118285445538,0.804114682515,0.589430311551,0.016592602975,0.0754729800365,-0.00732769715053,0.00214800318555,0.00132882581546,0.00800849408777,0.0134140144812,-0.0041437880566,-0.932448446751,0.570971846581,0.857456505299,-0.129532337189,-0.284643501043,-0.135170534253
2017/07/09/09:57:57.956493,386262,1499565480,759651677,,0.809060845145,-0.0735948664305,0.11779811318,0.804105723549,0.589529834682,0.0165580476767,0.0747956578434,-0.00111807975439,-0.0076128726618,0.000213103472805,-0.00103880569691,-0.00826349529746,-0.00743180766293,-1.07681846619,0.894936740398,0.251845747232,-0.242916047573,-0.295718699694,-0.166452139616
2017/07/09/09:57:57.966367,386263,1499565480,769651221,,0.809338585376,-0.0737394615878,0.118255951361,0.803945128263,0.589681445454,0.0164466901538,0.0753493862825,-0.000244211441068,-0.00894508490171,0.000832583716271,0.00151907990682,-0.00220288422812,-0.0167353216876,-1.01364779472,0.392865240574,0.399959862232,-0.0793404579163,-0.247060924768,-0.108972765505
2017/07/09/09:57:57.976704,386264,1499565480,779647005,,0.808933558306,-0.0742412259312,0.117761853284,0.803847315542,0.589843037893,0.0161892687504,0.0751837184671,-0.00311893619838,-9.94405822787e-05,-0.0020415243246,-0.021860541819,0.0173281095054,0.0250291703724,-1.24256956577,0.145723715425,0.587273776531,-0.0515121519566,-0.337840557098,-0.130206406116
2017/07/09/09:57:57.986524,386265,1499565480,789647382,,0.809123256785,-0.0741547696171,0.118155738264,0.80379364674,0.589878185088,0.0159895056424,0.0755237441278,0.00136530247181,-0.0293785695175,0.014318668767,-0.0418491102366,-0.0215680041225,-0.0110609565977,-0.871960818768,0.763099610806,0.411669433117,-0.126732438803,-0.198780745268,-0.129622608423
2017/07/09/09:57:57.996251,386266,1499565480,799658257,,0.809392843147,-0.07369160771,0.118350745884,0.804132551503,0.589418419386,0.0166978442514,0.0753521631991,0.00749617168111,-0.00256729963437,0.00810139071698,-0.000681452092784,-0.021649297127,-0.0246327096565,-0.75238853693,0.490161120892,0.264809012413,-0.00661799311638,-0.171574652195,-0.1242480129
2017/07/09/09:57:58.006188,386267,1499565480,809652259,,0.808874462868,-0.074266917977,0.118305891118,0.804021330709,0.589580585127,0.0158553169334,0.0754522520003,-0.00409308230675,0.0147179234344,-0.0119951613925,0.0224943420028,0.0197871531329,0.0107023600959,-0.571653842926,-0.0178650021553,0.258834153414,0.140122622252,-0.119466751814,-0.100541248918
2017/07/09/09:57:58.016349,386268,1499565480,819646158,,0.809048604078,-0.0738870802464,0.118149617493,0.804257706217,0.589291899304,0.0163454328047,0.0750827958405,-0.0104836659871,-0.00202847412984,-0.00271011975543,0.00213218897746,0.0222967645249,-0.0170730567042,-0.0541875511408,0.440595149994,0.104334332049,0.0293852910399,-0.0268472470343,-0.115711629391
2017/07/09/09:57:58.026334,386269,1499565480,829654432,,0.809461096092,-0.0739914930699,0.118735893239,0.804096533262,0.589452924525,0.016737679852,0.0754577036357,-0.00547533491526,-0.00184900079947,0.00271561358635,-0.0158080270111,0.0171964941266,0.007296148453,-0.0292095430195,0.283649116755,0.412447065115,-0.00706793367863,0.00888320058584,-0.151340469718
2017/07/09/09:57:58.036321,386270,1499565480,839652739,,0.809602003012,-0.0738866709453,0.1186178218,0.803874115741,0.589748321982,0.0166191067381,0.0755455362873,-5.15355550568e-05,0.00530028665488,0.00252365833353,0.00275135669041,0.0075088773036,0.00767598207023,-0.52373790741,0.411227107048,0.0192687623203,-0.0397774912417,-0.179526284337,-0.127931237221
2017/07/09/09:57:58.046501,386271,1499565480,849648661,,0.809953367255,-0.0738814811743,0.118983493527,0.803809591129,0.589760717572,0.0165526250987,0.0761475398176,0.0053867307897,0.00299055945619,0.00257626019663,-0.00350445531247,-0.0100436732285,0.0148159645739,0.434252679348,0.169596806169,0.215034365654,0.0583126693964,0.134263589978,-0.135938674212
2017/07/09/09:57:58.056323,386272,1499565480,859651877,,0.809508122319,-0.0742187437486,0.118671389696,0.804090955811,0.589434967215,0.0164845494565,0.0757127059129,-0.00210616605322,-0.00146985460175,-0.00530870292369,-0.00500885900952,0.0120004787016,0.00636603192719,-0.560134768486,-0.142562791705,0.313368439674,0.176240235567,-0.182405918837,-0.069103166461
2017/07/09/09:57:58.066180,386273,1499565480,869650603,,0.809223426766,-0.0735967871178,0.118167301267,0.803971805609,0.589661182111,0.0160765267965,0.0753031963735,-0.00488608143883,-0.00783009213608,0.00259496311606,-0.00120588421704,0.00253113076849,-0.00938369086561,-0.370137512684,0.615828275681,-0.0466250032187,-0.0602953955531,-0.0835793837905,-0.122487090528
2017/07/09/09:57:58.076381,386274,1499565480,879645907,,0.809892567896,-0.0740998323402,0.118687742424,0.803981226807,0.589525614074,0.0164668827871,0.0761746615613,0.000892291210428,0.00578313463748,-0.00218007920849,0.000787233542836,0.00486381715078,0.00131803421021,0.255275040865,0.00767213106155,0.464848428965,0.0462133958936,0.0748882889748,-0.127563416958
2017/07/09/09:57:58.086643,386275,1499565480,889647385,,0.809467837397,-0.0743030684858,0.118545408946,0.804023559231,0.589516165573,0.0163528168595,0.0758247460253,-0.00561656856792,-0.0113408431701,-0.0164191960872,0.008866290895,0.00441162462878,-0.0238439358226,0.350734114647,-0.377984702587,0.225764125586,0.217546701431,0.158435195684,-0.0930687710643
2017/07/09/09:57:58.096249,386276,1499565480,899648935,,0.809347528917,-0.0746023040234,0.118929889223,0.803954656432,0.589583718823,0.0158586983027,0.0761344244595,-0.00124749856141,-0.00519139475745,-0.00350235545438,-0.0173410164394,0.00115974593856,-0.00857308225105,-0.097222097218,0.0867670625448,0.500589489937,0.0816068276763,-0.0346363186836,-0.112077459693
2017/07/09/09:57:58.106423,386277,1499565480,909647523,,0.809387997942,-0.0748387064793,0.118975424877,0.803794309433,0.589793529658,0.016200294094,0.0761304864545,0.00208557348234,-0.00345330249933,0.00115498407215,-0.0398385530336,0.00991533897599,0.0396698558309,0.439685583115,-0.0969184488058,0.41744685173,0.182836681604,0.212561517954,-0.0851091966033
2017/07/09/09:57:58.116415,386278,1499565480,919654239,,0.808744761011,-0.0743848972634,0.117675460899,0.803810230928,0.589891603465,0.0154323370021,0.0753581567601,-0.00616344877045,0.00424688626058,-0.00426053266663,-0.0233683814477,0.0314233491125,0.0318552343312,0.0360464975238,-0.394977092743,-0.266060680151,0.147084116936,0.11441089958,-0.130627021194
2017/07/09/09:57:58.126302,386279,1499565480,929647182,,0.808412760761,-0.07441698395,0.117169517542,0.803809378987,0.589932370085,0.0149798582782,0.0751391031666,-0.00954015888934,-0.0278655444528,-0.00240888658736,-0.051404406074,0.0209889140097,-0.00438327291374,-0.199065223336,-0.372836410999,-0.610584020615,0.241751879454,-0.0392688065767,-0.0373051762581
2017/07/09/09:57:58.136426,386280,1499565480,939652531,,0.808602977287,-0.074345725181,0.117655092919,0.803824748902,0.589894112672,0.0153146095395,0.0752075237018,-0.0175272384324,-0.025954516365,-0.006868647961,-0.0509340830006,0.0416623426898,-0.00101137789539,0.334979593754,-0.0605368614197,0.103305153549,0.157591938972,0.114059738815,-0.115946568549
2017/07/09/09:57:58.146396,386281,1499565480,949646235,,0.808699130789,-0.0745356405635,0.117967495239,0.803610842242,0.590128841588,0.0149538195227,0.0757228356469,-0.00376148324097,-0.0166295547161,-0.000401480441143,-0.0276503613748,0.00668757006467,-0.00521998662529,0.337979644537,-0.0364497303963,0.113155946136,0.136633425951,0.143994957209,-0.121567927301
2017/07/09/09:57:58.156236,386282,1499565480,959650308,,0.808752131369,-0.0744641782263,0.117568922378,0.803682087406,0.590033871325,0.0150324846793,0.0756911981377,-0.0056118187466,-0.00685609900628,-0.0154160096214,-0.0176242283106,0.0149917015138,0.0090764712589,0.173726528883,-0.209305286407,-0.213783293962,0.226392775774,0.0830293446779,-0.0866208970547
2017/07/09/09:57:58.166434,386283,1499565480,969646147,,0.809164037829,-0.0744247986191,0.118016256732,0.803653001244,0.590029467916,0.0152315267097,0.0759939548676,-0.0088383579916,0.00033410919094,-0.0142322527164,-0.00569864751046,0.031265551234,0.00335227769826,0.722470164299,0.244978442788,0.0900435298681,0.0870015099645,0.257134854794,-0.143150761724
2017/07/09/09:57:58.176399,386284,1499565480,979653303,,0.809028709972,-0.0751681200018,0.117868638708,0.803990599954,0.589556522206,0.0153522687928,0.0760692457736,-0.0121826423667,-0.0142342368516,-0.0132120497241,0.013040604043,0.0141647773501,-0.0209982281855,-0.120804920793,0.0600994825363,0.168471336365,0.156786337495,-0.0249067544937,-0.0917301177979
2017/07/09/09:57:58.186761,386285,1499565480,989650620,,0.808678712167,-0.0758938302047,0.118143503253,0.803964574557,0.589578786133,0.0150991469977,0.0762222641995,-0.0116428890986,-0.0408468456173,0.00186924575944,-0.00255681446647,-0.0109380249792,-0.0727972127424,0.214471250772,-0.276519179344,0.0936833918095,0.213398814201,0.121979892254,-0.10303030163
2017/07/09/09:57:58.196247,386286,1499565480,999651033,,0.808798189489,-0.0750183630436,0.11742901012,0.804091113924,0.58946635187,0.0151953652324,0.0757363941369,0.00382964695487,-0.0202706415159,0.00823371628703,-0.00427772143076,-0.0302854820556,-0.0211364541202,0.343615114689,0.458085328341,-0.0645869970322,0.00446671247482,0.142763152719,-0.120259694755
2017/07/09/09:57:58.206231,386287,1499565481,9650328,,0.80892165418,-0.0752076997648,0.117767995661,0.804015147918,0.589512764114,0.0153553496442,0.0761482508135,0.00778686942308,0.0065679709537,-0.00459826352829,-0.00571546652954,-0.00797452354795,0.0228090945917,-0.326579123735,0.44459053874,0.0873894244432,-0.0549233108759,-0.0519041456282,-0.141328170896
2017/07/09/09:57:58.216332,386288,1499565481,19653780,,0.808509654906,-0.0760633285572,0.117744775484,0.803876932993,0.58970099628,0.0147485440265,0.0762698632327,0.00365547151,-4.42656317955e-05,0.00112734729533,-0.0117781421537,-0.00260085261926,0.0302719126777,-1.8900039196,-0.34409558773,0.371532708406,0.155556470156,-0.636217355728,-0.0168608725071
2017/07/09/09:57:58.226479,386289,1499565481,29647373,,0.80803641537,-0.0754628610135,0.117337546585,0.804095700289,0.58950974204,0.0145041935978,0.075485079214,-0.0161510490114,-0.0240616464584,-0.0110806018129,-0.00441513969142,0.0205967331113,-0.039881019619,-0.537348628044,0.167524263263,0.232667028904,0.0637328028679,-0.0803771167994,-0.089981675148
2017/07/09/09:57:58.236476,386290,1499565481,39646798,,0.808129692811,-0.0760439966017,0.117083543205,0.804237607424,0.589270202868,0.0146251379721,0.0758195499599,-0.0175806301347,-0.00997382946424,-0.0145458651268,0.00284594412585,0.0327215988339,-0.0234126595018,-0.90534555912,0.508786380291,0.0118643678725,-0.00993198156357,-0.285641402006,-0.0857620313764
2017/07/09/09:57:58.246534,386291,1499565481,49648585,,0.80873138236,-0.0756227475129,0.117470716,0.80378991594,0.589832886991,0.0149584155064,0.0761260944867,-0.00258724102262,0.00236939204449,-0.0169173796395,0.00951199647059,0.00713175162267,-0.0102077760837,-0.279993385077,0.357398748398,0.855230808258,0.0949527695775,-0.0864302292466,-0.0639233142138
2017/07/09/09:57:58.256121,386292,1499565481,59664971,,0.808793533965,-0.0756046837489,0.118040505031,0.804203595801,0.589256053229,0.0153074411791,0.0761548585354,0.0143005717101,0.0168729973473,0.000370633453689,0.00933467418117,-0.0146570592181,0.0333031406336,-0.119819015265,0.082973793149,1.03678154945,0.0789896398783,0.0282960310578,-0.123958602548
2017/07/09/09:57:58.266172,386293,1499565481,69650832,,0.808961301275,-0.0755727557885,0.117636341776,0.803895854502,0.589655389045,0.0149541123289,0.0763829287789,-0.00181467727125,-0.0146746217852,0.00613729789989,-0.00738206888724,-0.0128280560501,-0.0251244633553,-0.808543920517,-0.187677040696,0.388217329979,0.247934967279,-0.272592157125,-0.0110334604979
2017/07/09/09:57:58.276412,386294,1499565481,79674798,,0.808142389863,-0.0758073883281,0.116866743371,0.8041235471,0.589457622002,0.0148214502501,0.0755338167671,-0.00772244561855,-0.0069191573043,-0.00513321062162,0.00555006168918,0.0119792934301,-0.0220244234242,-0.0905992314219,0.0681980624795,-0.134279847145,0.096280656755,0.0406815558672,-0.108286723495
2017/07/09/09:57:58.286198,386295,1499565481,89649210,,0.808089447263,-0.0758229910913,0.117129593793,0.804240695194,0.589295495655,0.0147886867568,0.0755580421772,-0.0171624033184,-0.000538912962233,-0.0269290897371,0.0328719963769,0.0379045178173,-0.00739914076394,0.383291214705,-0.283413052559,0.362592458725,0.267898142338,0.186344310641,-0.0822923108935
2017/07/09/09:57:58.296345,386296,1499565481,99653138,,0.808514871603,-0.0753159120459,0.11744332771,0.80393030489,0.58971140433,0.0151537123071,0.0755439573123,0.00270691454405,0.00800529791163,0.00912070629366,0.00634884810526,-0.00118980209606,0.0156433949546,-0.540433645248,0.127833992243,0.449170380831,0.117930203676,-0.144334346056,-0.0604973509908
2017/07/09/09:57:58.306330,386297,1499565481,109648561,,0.808412823725,-0.0756736992437,0.11715771307,0.804184406885,0.589352781065,0.0149337955955,0.075681707986,0.00538520163436,0.00859874078383,0.00295012961603,-0.00554411588675,-0.00061586048781,-0.000865613873652,-0.954988360405,-0.143267869949,-0.343287229538,0.115048594773,-0.272056013346,-0.076115436852
2017/07/09/09:57:58.316299,386298,1499565481,119652026,,0.807486847126,-0.0760998745814,0.11660478591,0.8044798724,0.589030254376,0.0142190100922,0.0751885236288,-0.0113740794045,-0.00128295437056,-0.012041564762,-0.00222888626411,0.0296159739779,-0.0101757477849,-0.612370669842,-0.393135786057,-0.245612755418,0.15998108685,-0.0986578762531,-0.0712085291743
2017/07/09/09:57:58.326338,386299,1499565481,129647878,,0.808505083393,-0.07531819739,0.11661063858,0.803964660141,0.589679409812,0.014910042216,0.0754765495338,0.00242250464871,-0.00590496187416,-0.00299821327447,0.000883792353002,-0.0101570417247,0.0104701827386,-0.270671904087,0.533281028271,0.0454249195755,0.0311048105359,-0.0526372976601,-0.0958001613617
2017/07/09/09:57:58.336396,386300,1499565481,139650811,,0.808939464015,-0.0752897662565,0.117366302091,0.803904581937,0.589693490313,0.0152994600761,0.0759271831702,0.0133740041563,0.00432581656776,0.00211194915256,0.00382766820501,-0.028202883263,0.012561063894,0.465656220913,-0.465111106634,0.464701116085,0.254967868328,0.282381594181,-0.09569683671
2017/07/09/09:57:58.346608,386301,1499565481,149648563,,0.808758003119,-0.0763274130144,0.117649464586,0.804363338683,0.589005715337,0.0151924092396,0.076426941489,0.0146698175269,0.0165244195694,-0.00888616528544,0.0194313733746,-0.0224459225987,-0.00749703714925,0.691110551357,-0.473966449499,0.529608428478,0.30973520875,0.351527035236,-0.0963054150343
2017/07/09/09:57:58.356515,386302,1499565481,159647334,,0.80950646333,-0.0755026021903,0.117584541678,0.803657341074,0.58994038143,0.0157239278673,0.0765374587216,-0.0122715743068,0.00630893945896,-0.0157404166204,-0.00265537090564,0.0416011858922,0.0203473658613,0.712204754353,-0.452921271324,0.505591928959,0.241049855947,0.35079151392,-0.129561960697
2017/07/09/09:57:58.366342,386303,1499565481,169646453,,0.808863937444,-0.075127212639,0.116913380621,0.803826542597,0.589820836312,0.0151122653256,0.0758016484279,-0.00350091054459,0.00416208982874,-0.00392746158981,0.00276040449653,0.0171699168877,0.00755757656294,0.363967448473,0.178856700659,0.0113546270877,0.131825298071,0.200231194496,-0.0843825042248
2017/07/09/09:57:58.376355,386304,1499565481,179653551,,0.808757509224,-0.0753905972713,0.11735595348,0.804115123973,0.58941798643,0.0150624081712,0.0758843101675,0.000949285369578,0.00386388961483,-0.00284655833496,0.00269900370604,0.000891281233132,0.0136657264639,-0.668178677559,-0.445925116539,0.532820761204,0.291509211063,-0.17760168016,-0.0449872389436
2017/07/09/09:57:58.386276,386305,1499565481,189650185,,0.808864443311,-0.0759761222906,0.11720423518,0.804017697262,0.589501289419,0.0150034804697,0.0762801929531,0.00656685018712,-0.00867658339164,0.00707849417082,-0.0214089619381,-0.0118836041297,0.000576961647411,-0.184595018625,-0.175125002861,0.226168617606,0.120170034468,0.0330649167299,-0.0963660106063
2017/07/09/09:57:58.396562,386306,1499565481,199654345,,0.808621119958,-0.075701643499,0.117017284056,0.804152574193,0.589372823604,0.0149481204338,0.0758608325296,0.00162138439388,0.00178714746082,-0.00163956920764,-0.00501856592819,0.00266665594955,0.00667297985446,-0.609886944294,-0.419080376625,-0.342993795872,0.19979044795,-0.0320084318519,-0.070759087801
2017/07/09/09:57:58.406360,386307,1499565481,209645951,,0.808309871691,-0.0755266657219,0.116769980299,0.804037558484,0.589595197519,0.0147606995449,0.0753871962495,-0.00898298183689,0.000432374080796,-0.0175155851045,0.025603907681,0.00940670466549,-0.0379865787051,0.39712536335,-0.417811334133,0.106648609042,0.252451330423,0.275668591261,-0.0918994173408
2017/07/09/09:57:58.416337,386308,1499565481,219651472,,0.808442283647,-0.0757678083492,0.116231568323,0.804528824336,0.588903362456,0.0148829849854,0.0755294462971,-0.00168757867806,-0.00889684566158,-0.00377655764177,-0.00570754979048,0.00237886818527,-0.0214083877681,0.0790183395147,-0.354333400726,-0.199285268784,0.196238160133,0.169791504741,-0.0952632501721
2017/07/09/09:57:58.426566,386309,1499565481,229649001,,0.808850792154,-0.0755398213265,0.1169112213,0.803843803077,0.589760475299,0.0149338266128,0.076122945642,0.0127192320027,0.00313828138313,-0.00388892662184,0.00506815539332,-0.0260948988296,-0.00627735025293,0.985648393631,-0.42407682538,0.0202840995044,0.252916187048,0.512634277344,-0.121308632195
