time,.header.seq,.header.stamp.secs,.header.stamp.nsecs,.header.frame_id,.ch0,.ch1,.ch2,.ch3,.ch4,.ch5,.ch6,.ch7
2017/07/09/10:06:36.347136,170077,1499565996,346914052,0,65,271,142,55,46,71,104,132
2017/07/09/10:06:36.369216,170078,1499565996,368850946,0,75,359,190,62,47,65,112,128
2017/07/09/10:06:36.392046,170079,1499565996,391544103,0,82,377,210,65,48,67,124,138
2017/07/09/10:06:36.407167,170080,1499565996,406699895,0,86,376,209,75,54,65,125,123
2017/07/09/10:06:36.429241,170081,1499565996,429043054,0,98,437,242,81,63,80,153,136
2017/07/09/10:06:36.460130,170082,1499565996,459810972,0,108,585,281,89,69,90,184,155
2017/07/09/10:06:36.466740,170083,1499565996,466550111,0,126,577,278,93,71,94,288,173
2017/07/09/10:06:36.488935,170084,1499565996,488761901,0,135,573,264,101,74,103,298,165
2017/07/09/10:06:36.511705,170085,1499565996,511375904,0,163,569,262,98,71,101,311,166
2017/07/09/10:06:36.526492,170086,1499565996,526333093,0,168,565,237,99,67,96,310,166
2017/07/09/10:06:36.549248,170087,1499565996,548914909,0,173,459,192,90,61,97,348,165
2017/07/09/10:06:36.573006,170088,1499565996,572727918,0,165,455,157,84,63,98,292,144
2017/07/09/10:06:36.594413,170089,1499565996,593955993,0,158,433,172,74,60,91,317,150
2017/07/09/10:06:36.609367,170090,1499565996,609045028,0,134,444,186,78,62,101,384,182
2017/07/09/10:06:36.631656,170091,1499565996,631438016,0,171,477,235,86,65,98,383,183
2017/07/09/10:06:36.654396,170092,1499565996,654058933,0,167,436,225,96,71,96,392,192
2017/07/09/10:06:36.668994,170093,1499565996,668776988,0,178,421,227,106,75,91,407,206
2017/07/09/10:06:36.700238,170094,1499565996,699843883,0,184,425,243,113,77,100,405,223
2017/07/09/10:06:36.722123,170095,1499565996,721998929,0,228,426,236,115,76,91,338,226
2017/07/09/10:06:36.729854,170096,1499565996,729418039,0,197,358,182,109,74,101,434,245
2017/07/09/10:06:36.751683,170097,1499565996,751416921,0,202,457,216,113,77,112,429,265
2017/07/09/10:06:36.773977,170098,1499565996,773798942,0,204,502,226,114,77,128,487,296
2017/07/09/10:06:36.789539,170099,1499565996,789313077,0,223,538,212,107,74,120,485,297
2017/07/09/10:06:36.812105,170100,1499565996,811748027,0,201,593,236,104,73,123,500,292
2017/07/09/10:06:36.834316,170101,1499565996,834121942,0,199,641,252,108,78,120,463,304
2017/07/09/10:06:36.850576,170102,1499565996,850277900,0,205,594,239,105,98,153,536,333
2017/07/09/10:06:36.871453,170103,1499565996,871293067,0,217,599,234,93,91,138,507,357
2017/07/09/10:06:36.894238,170104,1499565996,893938064,0,234,612,223,97,97,142,508,366
2017/07/09/10:06:36.909221,170105,1499565996,908911943,0,235,576,210,89,100,144,534,406
2017/07/09/10:06:36.931686,170106,1499565996,931416034,0,243,551,213,90,103,162,579,460
2017/07/09/10:06:36.953965,170107,1499565996,953789949,0,235,566,196,78,76,122,538,434
2017/07/09/10:06:36.969026,170108,1499565996,968796968,0,217,523,202,77,75,126,516,408
2017/07/09/10:06:36.992338,170109,1499565996,991910934,0,179,482,213,81,72,124,512,413
2017/07/09/10:06:37.014263,170110,1499565997,13968944,0,151,479,196,81,71,133,524,380
2017/07/09/10:06:37.029313,170111,1499565997,29093980,0,147,433,181,74,59,115,439,316
2017/07/09/10:06:37.051535,170112,1499565997,51368951,0,161,430,196,76,58,127,389,336
2017/07/09/10:06:37.074038,170113,1499565997,73859930,0,177,522,220,95,72,135,408,335
2017/07/09/10:06:37.089070,170114,1499565997,88809967,0,174,519,211,88,70,135,394,325
2017/07/09/10:06:37.143612,170115,1499565997,143471002,0,179,499,212,94,69,134,336,303
2017/07/09/10:06:37.145075,170116,1499565997,144916057,0,182,526,233,99,73,127,325,285
2017/07/09/10:06:37.148689,170117,1499565997,148566007,0,177,495,233,105,77,130,355,300
2017/07/09/10:06:37.171551,170118,1499565997,171328067,0,164,398,201,91,69,121,346,354
2017/07/09/10:06:37.194715,170119,1499565997,194355964,0,163,373,190,93,75,153,444,409
2017/07/09/10:06:37.209649,170120,1499565997,209167003,0,158,384,191,89,72,148,471,434
2017/07/09/10:06:37.240393,170121,1499565997,240125894,0,184,375,169,81,68,148,481,485
2017/07/09/10:06:37.254035,170122,1499565997,253829002,0,206,406,178,93,79,139,480,517
2017/07/09/10:06:37.269032,170123,1499565997,268745899,0,228,403,184,90,76,139,483,548
2017/07/09/10:06:37.297618,170124,1499565997,291454076,0,244,406,202,94,76,148,514,517
2017/07/09/10:06:37.314597,170125,1499565997,314444065,0,243,570,232,93,77,144,510,499
2017/07/09/10:06:37.329066,170126,1499565997,328831911,0,220,560,228,96,83,179,517,479
2017/07/09/10:06:37.351770,170127,1499565997,351433992,0,203,517,200,88,77,180,503,419
2017/07/09/10:06:37.373886,170128,1499565997,373723983,0,178,501,204,98,80,181,492,343
2017/07/09/10:06:37.388862,170129,1499565997,388746023,0,176,526,201,96,80,169,421,362
2017/07/09/10:06:37.412114,170130,1499565997,411789894,0,257,383,177,103,98,193,453,407
2017/07/09/10:06:37.434130,170131,1499565997,433801889,0,263,355,166,100,95,178,506,488
2017/07/09/10:06:37.456939,170132,1499565997,456654071,0,270,348,164,95,103,199,506,494
2017/07/09/10:06:37.471573,170133,1499565997,471335887,0,281,488,224,95,104,198,492,480
2017/07/09/10:06:37.494411,170134,1499565997,493957996,0,317,472,213,94,102,183,469,493
2017/07/09/10:06:37.516532,170135,1499565997,516366958,0,263,437,212,89,87,158,440,480
2017/07/09/10:06:37.531668,170136,1499565997,531371116,0,289,476,238,99,90,141,363,361
2017/07/09/10:06:37.554390,170137,1499565997,554133892,0,314,498,268,103,80,208,393,424
2017/07/09/10:06:37.576483,170138,1499565997,576248884,0,318,361,207,109,94,208,402,427
2017/07/09/10:06:37.591361,170139,1499565997,591253042,0,286,373,225,120,106,221,415,410
2017/07/09/10:06:37.630576,170140,1499565997,629812002,0,282,356,216,135,115,221,379,416
2017/07/09/10:06:37.636494,170141,1499565997,636328935,0,270,334,206,132,112,221,391,431
2017/07/09/10:06:37.651827,170142,1499565997,651658058,0,225,304,168,130,112,167,337,355
2017/07/09/10:06:37.682241,170143,1499565997,681957960,0,276,381,190,137,113,169,334,378
2017/07/09/10:06:37.696622,170144,1499565997,696358919,0,275,377,176,130,105,160,350,368
2017/07/09/10:06:37.712005,170145,1499565997,711777925,0,290,398,183,151,128,167,349,382
2017/07/09/10:06:37.742793,170146,1499565997,742069959,0,295,406,225,156,129,166,352,368
2017/07/09/10:06:37.757183,170147,1499565997,756902933,0,299,428,246,160,129,126,347,368
2017/07/09/10:06:37.771614,170148,1499565997,771379947,0,250,399,247,149,122,118,342,343
2017/07/09/10:06:37.793843,170149,1499565997,793720960,0,237,367,243,146,121,131,291,346
2017/07/09/10:06:37.816860,170150,1499565997,816610097,0,217,356,241,103,86,131,289,291
2017/07/09/10:06:37.831838,170151,1499565997,831578969,0,223,351,203,103,94,134,265,335
2017/07/09/10:06:37.854073,170152,1499565997,853897094,0,223,350,191,110,98,136,288,337
2017/07/09/10:06:37.876629,170153,1499565997,876341104,0,213,336,178,102,91,143,305,370
2017/07/09/10:06:37.891535,170154,1499565997,891288042,0,226,353,181,103,85,117,331,374
2017/07/09/10:06:37.914331,170155,1499565997,914062976,0,244,375,191,111,85,117,332,407
2017/07/09/10:06:37.940135,170156,1499565997,939915895,0,212,376,167,101,74,111,350,379
2017/07/09/10:06:37.951869,170157,1499565997,951647043,0,244,352,158,86,62,127,354,392
2017/07/09/10:06:37.974243,170158,1499565997,973787069,0,238,301,147,84,64,132,356,363
2017/07/09/10:06:37.997249,170159,1499565997,996659040,0,272,346,175,83,74,143,332,340
2017/07/09/10:06:38.012014,170160,1499565998,11528968,0,271,315,168,73,73,134,358,318
2017/07/09/10:06:38.034482,170161,1499565998,34320116,0,271,304,173,78,79,140,342,333
2017/07/09/10:06:38.056793,170162,1499565998,56432008,0,262,310,161,76,84,134,329,318
2017/07/09/10:06:38.071559,170163,1499565998,71399927,0,257,329,161,75,81,130,340,302
2017/07/09/10:06:38.094707,170164,1499565998,94316005,0,212,275,123,73,72,124,325,296
2017/07/09/10:06:38.117030,170165,1499565998,116760969,0,200,294,123,84,79,132,295,327
2017/07/09/10:06:38.134423,170166,1499565998,132766962,0,200,327,123,82,76,157,307,309
2017/07/09/10:06:38.154484,170167,1499565998,154090881,0,190,331,128,83,70,159,304,375
2017/07/09/10:06:38.176546,170168,1499565998,176388025,0,189,330,133,91,78,179,282,403
2017/07/09/10:06:38.199563,170169,1499565998,199256896,0,203,329,137,90,77,177,271,409
2017/07/09/10:06:38.214327,170170,1499565998,214019060,0,209,299,147,88,72,175,273,368
2017/07/09/10:06:38.236752,170171,1499565998,236510038,0,202,251,144,83,67,172,279,369
2017/07/09/10:06:38.252168,170172,1499565998,251734018,0,210,235,139,79,70,164,295,312
2017/07/09/10:06:38.273928,170173,1499565998,273755073,0,221,264,156,80,70,134,282,268
2017/07/09/10:06:38.296571,170174,1499565998,296391010,0,225,265,167,96,81,132,292,261
2017/07/09/10:06:38.311869,170175,1499565998,311486959,0,240,288,159,95,93,149,301,353
2017/07/09/10:06:38.342776,170176,1499565998,342350959,0,268,278,161,100,105,139,279,380
2017/07/09/10:06:38.356457,170177,1499565998,356333017,0,250,273,173,102,103,143,236,374
2017/07/09/10:06:38.371546,170178,1499565998,371330976,0,253,257,173,99,104,155,216,379
2017/07/09/10:06:38.394568,170179,1499565998,394366979,0,241,244,160,88,98,155,211,391
2017/07/09/10:06:38.416772,170180,1499565998,416363954,0,236,226,158,89,100,147,329,397
2017/07/09/10:06:38.431901,170181,1499565998,431545019,0,212,246,164,81,93,135,323,362
2017/07/09/10:06:38.462356,170182,1499565998,461971998,0,227,257,155,78,95,167,347,374
2017/07/09/10:06:38.476944,170183,1499565998,476784944,0,240,247,136,76,92,163,370,411
2017/07/09/10:06:38.515774,170184,1499565998,515465974,0,233,239,125,82,98,168,363,395
2017/07/09/10:06:38.517004,170185,1499565998,516846895,0,212,295,128,74,86,171,298,343
2017/07/09/10:06:38.537000,170186,1499565998,536643028,0,243,366,153,81,84,169,293,335
2017/07/09/10:06:38.559082,170187,1499565998,558783054,0,220,360,156,103,101,138,279,317
2017/07/09/10:06:38.574642,170188,1499565998,574199914,0,198,349,154,105,107,144,262,279
2017/07/09/10:06:38.597020,170189,1499565998,596878051,0,213,367,156,101,110,150,268,289
2017/07/09/10:06:38.627647,170190,1499565998,627373933,0,218,326,153,103,111,132,219,285
2017/07/09/10:06:38.633985,170191,1499565998,633783102,0,174,233,124,101,111,130,218,310
2017/07/09/10:06:38.656701,170192,1499565998,656302928,0,176,317,131,74,92,122,197,314
2017/07/09/10:06:38.679147,170193,1499565998,679008960,0,177,317,129,67,83,108,191,313
2017/07/09/10:06:38.694161,170194,1499565998,693835973,0,161,300,134,61,74,121,192,302
2017/07/09/10:06:38.716840,170195,1499565998,716600894,0,142,285,121,58,72,123,183,282
2017/07/09/10:06:38.739091,170196,1499565998,738837957,0,161,301,126,52,67,126,182,262
2017/07/09/10:06:38.754199,170197,1499565998,753810882,0,192,239,135,61,71,122,176,243
2017/07/09/10:06:38.776703,170198,1499565998,776417016,0,198,234,139,67,72,133,172,238
2017/07/09/10:06:38.799399,170199,1499565998,799153089,0,196,221,133,73,69,111,161,239
2017/07/09/10:06:38.816838,170200,1499565998,816536903,0,197,218,129,71,66,130,134,211
2017/07/09/10:06:38.836441,170201,1499565998,836282014,0,189,292,149,77,70,132,134,203
2017/07/09/10:06:38.859645,170202,1499565998,859278917,0,172,308,143,79,69,138,135,195
2017/07/09/10:06:38.874397,170203,1499565998,874150037,0,149,318,146,75,66,124,128,178
2017/07/09/10:06:38.896725,170204,1499565998,896601915,0,146,320,145,69,59,119,140,179
2017/07/09/10:06:38.919165,170205,1499565998,918905973,0,156,376,183,70,60,92,145,182
2017/07/09/10:06:38.934066,170206,1499565998,933897018,0,156,310,163,65,57,93,155,192
2017/07/09/10:06:38.956656,170207,1499565998,956430912,0,174,266,147,55,54,104,175,194
2017/07/09/10:06:38.979303,170208,1499565998,979072093,0,206,252,139,51,53,106,181,202
2017/07/09/10:06:38.994496,170209,1499565998,994041919,0,207,258,145,53,55,109,183,199
2017/07/09/10:06:39.018163,170210,1499565999,18043994,0,200,210,94,50,57,110,179,195
2017/07/09/10:06:39.039126,170211,1499565999,38831949,0,196,207,92,51,54,113,179,196
2017/07/09/10:06:39.054120,170212,1499565999,53894996,0,159,206,96,53,54,94,163,188
2017/07/09/10:06:39.077129,170213,1499565999,76787948,0,122,228,119,57,53,96,164,211
2017/07/09/10:06:39.099192,170214,1499565999,98954916,0,148,270,151,58,55,90,142,218
2017/07/09/10:06:39.114139,170215,1499565999,114008903,0,150,247,153,60,51,103,161,234
2017/07/09/10:06:39.136421,170216,1499565999,136303901,0,154,231,149,56,48,88,147,239
2017/07/09/10:06:39.159460,170217,1499565999,159141063,0,172,329,175,56,49,95,150,253
2017/07/09/10:06:39.174395,170218,1499565999,173969030,0,201,339,165,53,47,90,128,221
2017/07/09/10:06:39.197072,170219,1499565999,196810960,0,184,313,134,54,45,95,151,204
2017/07/09/10:06:39.219015,170220,1499565999,218810081,0,180,305,128,57,47,109,154,194
2017/07/09/10:06:39.234158,170221,1499565999,233728885,0,177,305,127,58,49,116,167,179
2017/07/09/10:06:39.257066,170222,1499565999,256716012,0,186,284,116,60,45,115,173,184
2017/07/09/10:06:39.287719,170223,1499565999,287077903,0,151,304,114,61,49,113,168,194
2017/07/09/10:06:39.294305,170224,1499565999,294008970,0,147,294,115,60,54,118,148,194
2017/07/09/10:06:39.316951,170225,1499565999,316613912,0,158,300,116,54,53,93,142,179
2017/07/09/10:06:39.339170,170226,1499565999,338810920,0,155,299,112,53,52,82,138,166
2017/07/09/10:06:39.361768,170227,1499565999,361507892,0,125,274,86,49,52,71,130,160
2017/07/09/10:06:39.376628,170228,1499565999,376435041,0,124,246,92,50,50,77,143,157
2017/07/09/10:06:39.399525,170229,1499565999,399017095,0,132,256,91,48,45,102,159,164
2017/07/09/10:06:39.421578,170230,1499565999,421391010,0,142,269,104,54,52,150,157,199
2017/07/09/10:06:39.436610,170231,1499565999,436275959,0,139,286,111,57,56,157,162,211
2017/07/09/10:06:39.459251,170232,1499565999,458952903,0,163,240,108,60,59,161,176,222
2017/07/09/10:06:39.481818,170233,1499565999,481508970,0,160,215,104,63,63,172,172,226
2017/07/09/10:06:39.496567,170234,1499565999,496418952,0,156,229,106,66,61,151,160,223
2017/07/09/10:06:39.519060,170235,1499565999,518904924,0,151,215,95,63,58,105,145,211
2017/07/09/10:06:39.541735,170236,1499565999,541539907,0,156,190,90,60,54,98,134,211
2017/07/09/10:06:39.557202,170237,1499565999,556751012,0,139,177,94,55,54,95,114,199
2017/07/09/10:06:39.578988,170238,1499565999,578861951,0,141,162,86,50,51,72,112,190
2017/07/09/10:06:39.602089,170239,1499565999,601612091,0,134,121,79,43,53,102,129,202
2017/07/09/10:06:39.616457,170240,1499565999,616200923,0,127,128,81,40,50,99,132,191
2017/07/09/10:06:39.639138,170241,1499565999,638916015,0,155,208,89,40,51,98,126,184
2017/07/09/10:06:39.661641,170242,1499565999,661396980,0,161,240,81,42,47,94,127,171
2017/07/09/10:06:39.676414,170243,1499565999,676244020,0,161,247,83,40,44,102,133,178
