time,.header.seq,.header.stamp.secs,.header.stamp.nsecs,.header.frame_id,.ch0,.ch1,.ch2,.ch3,.ch4,.ch5,.ch6,.ch7
2017/07/09/10:04:36.436319,164097,1499565876,436186075,0,130,587,342,130,75,105,162,198
2017/07/09/10:04:36.451159,164098,1499565876,451029062,0,122,609,360,130,77,112,151,187
2017/07/09/10:04:36.489895,164099,1499565876,489500045,0,99,548,322,103,67,115,163,163
2017/07/09/10:04:36.496448,164100,1499565876,496169090,0,100,534,339,118,76,116,154,162
2017/07/09/10:04:36.519331,164101,1499565876,519114971,0,113,513,328,118,78,122,196,192
2017/07/09/10:04:36.533925,164102,1499565876,533725023,0,118,527,294,105,67,106,219,212
2017/07/09/10:04:36.556253,164103,1499565876,556022882,0,125,503,288,105,65,97,285,216
2017/07/09/10:04:36.571429,164104,1499565876,571192979,0,150,429,258,108,67,126,300,220
2017/07/09/10:04:36.593931,164105,1499565876,593748092,0,168,415,241,90,57,129,335,220
2017/07/09/10:04:36.616641,164106,1499565876,616359949,0,166,485,247,84,53,125,345,194
2017/07/09/10:04:36.632819,164107,1499565876,632606983,0,178,484,239,90,52,113,361,183
2017/07/09/10:04:36.653652,164108,1499565876,653443098,0,189,463,210,87,49,112,363,164
2017/07/09/10:04:36.676535,164109,1499565876,676408052,0,224,518,216,83,46,79,362,193
2017/07/09/10:04:36.691284,164110,1499565876,691087007,0,210,554,217,80,45,74,349,239
2017/07/09/10:04:36.714095,164111,1499565876,713876962,0,224,482,205,81,46,74,401,272
2017/07/09/10:04:36.744554,164112,1499565876,744247913,0,222,490,200,76,51,80,411,281
2017/07/09/10:04:36.751122,164113,1499565876,750910043,0,231,585,217,83,56,86,436,284
2017/07/09/10:04:36.773773,164114,1499565876,773567914,0,188,580,198,85,65,95,447,294
2017/07/09/10:04:36.796155,164115,1499565876,795984029,0,203,553,184,82,64,98,509,248
2017/07/09/10:04:36.811681,164116,1499565876,811248064,0,193,614,181,83,63,103,514,334
2017/07/09/10:04:36.833765,164117,1499565876,833511114,0,198,589,207,90,65,102,488,329
2017/07/09/10:04:36.856599,164118,1499565876,856178998,0,256,512,182,82,62,97,453,355
2017/07/09/10:04:36.872868,164119,1499565876,872798919,0,260,544,200,85,55,88,468,333
2017/07/09/10:04:36.893692,164120,1499565876,893510103,0,276,519,196,83,55,80,393,340
2017/07/09/10:04:36.916523,164121,1499565876,916234016,0,274,462,195,85,58,84,331,222
2017/07/09/10:04:36.932927,164122,1499565876,932616949,0,267,488,183,75,59,88,351,213
2017/07/09/10:04:36.953888,164123,1499565876,953619956,0,190,482,183,77,59,90,351,187
2017/07/09/10:04:36.976937,164124,1499565876,976567983,0,201,509,294,116,97,125,439,270
2017/07/09/10:04:36.997489,164125,1499565876,997220993,0,242,536,304,119,101,126,442,279
2017/07/09/10:04:37.013838,164126,1499565877,13605117,0,263,523,311,117,101,126,452,278
2017/07/09/10:04:37.036250,164127,1499565877,35969018,0,268,541,312,134,107,142,521,327
2017/07/09/10:04:37.053211,164128,1499565877,52966117,0,305,579,323,132,109,144,523,344
2017/07/09/10:04:37.073685,164129,1499565877,73551893,0,311,488,221,93,78,118,466,331
2017/07/09/10:04:37.097957,164130,1499565877,97804069,0,262,476,217,96,75,122,496,343
2017/07/09/10:04:37.112734,164131,1499565877,112458944,0,248,555,238,110,81,142,615,478
2017/07/09/10:04:37.135206,164132,1499565877,135106086,0,285,521,239,94,79,143,551,452
2017/07/09/10:04:37.156277,164133,1499565877,156048059,0,277,461,222,97,81,161,563,453
2017/07/09/10:04:37.172620,164134,1499565877,172449111,0,258,462,216,102,83,161,527,425
2017/07/09/10:04:37.194572,164135,1499565877,194056987,0,279,559,225,105,84,166,539,472
2017/07/09/10:04:37.216464,164136,1499565877,216197967,0,300,493,191,97,95,170,536,453
2017/07/09/10:04:37.232468,164137,1499565877,232358932,0,293,538,199,89,85,152,546,458
2017/07/09/10:04:37.253765,164138,1499565877,253642082,0,323,657,222,93,82,132,536,456
2017/07/09/10:04:37.276881,164139,1499565877,276262044,0,363,741,228,103,86,127,545,457
2017/07/09/10:04:37.298816,164140,1499565877,298667907,0,363,698,219,111,90,144,540,408
2017/07/09/10:04:37.321316,164141,1499565877,321027040,0,350,702,219,105,70,114,423,298
2017/07/09/10:04:37.336694,164142,1499565877,336328983,0,396,710,221,110,71,113,432,319
2017/07/09/10:04:37.359688,164143,1499565877,359060049,0,391,610,229,126,74,114,442,338
2017/07/09/10:04:37.373954,164144,1499565877,373755931,0,358,585,278,114,72,133,486,374
2017/07/09/10:04:37.396914,164145,1499565877,396450042,0,413,668,301,108,68,120,470,377
2017/07/09/10:04:37.418948,164146,1499565877,418643951,0,444,707,312,116,80,138,445,447
2017/07/09/10:04:37.433844,164147,1499565877,433559894,0,386,722,318,124,91,165,443,443
2017/07/09/10:04:37.456532,164148,1499565877,456233024,0,350,737,309,118,95,171,430,439
2017/07/09/10:04:37.479234,164149,1499565877,478811979,0,384,694,269,120,93,163,406,420
2017/07/09/10:04:37.493952,164150,1499565877,493726968,0,374,623,247,121,118,172,457,452
2017/07/09/10:04:37.516617,164151,1499565877,516345977,0,370,588,243,128,114,202,440,403
2017/07/09/10:04:37.538774,164152,1499565877,538563966,0,375,516,216,127,115,200,452,440
2017/07/09/10:04:37.554061,164153,1499565877,553795099,0,374,541,224,124,111,194,470,427
2017/07/09/10:04:37.576381,164154,1499565877,576086044,0,358,570,260,135,116,192,430,423
2017/07/09/10:04:37.598810,164155,1499565877,598680019,0,337,663,329,136,96,198,381,426
2017/07/09/10:04:37.614288,164156,1499565877,614105939,0,312,646,321,129,98,214,435,460
2017/07/09/10:04:37.636349,164157,1499565877,636035919,0,300,655,330,127,95,214,447,429
2017/07/09/10:04:37.659395,164158,1499565877,659089088,0,311,664,345,128,98,225,444,489
2017/07/09/10:04:37.673857,164159,1499565877,673624992,0,337,706,337,133,99,225,468,521
2017/07/09/10:04:37.696550,164160,1499565877,696341991,0,321,580,278,138,105,207,452,505
2017/07/09/10:04:37.718760,164161,1499565877,718534946,0,312,647,301,140,106,182,403,442
2017/07/09/10:04:37.733745,164162,1499565877,733448028,0,318,667,320,139,109,164,395,446
2017/07/09/10:04:37.764113,164163,1499565877,763940095,0,411,631,297,144,109,159,368,382
2017/07/09/10:04:37.779133,164164,1499565877,778805017,0,380,535,268,131,102,158,347,352
2017/07/09/10:04:37.794241,164165,1499565877,794013023,0,392,583,283,130,102,165,328,348
2017/07/09/10:04:37.817472,164166,1499565877,817316055,0,421,544,271,126,99,166,359,362
2017/07/09/10:04:37.838810,164167,1499565877,838685989,0,431,525,234,123,95,174,401,397
2017/07/09/10:04:37.854344,164168,1499565877,853928089,0,380,594,246,108,93,169,426,409
2017/07/09/10:04:37.876890,164169,1499565877,876530885,0,376,699,336,144,125,180,444,400
2017/07/09/10:04:37.898927,164170,1499565877,898709058,0,328,647,315,142,130,192,495,400
2017/07/09/10:04:37.913883,164171,1499565877,913562059,0,300,623,305,141,127,158,474,433
2017/07/09/10:04:37.936070,164172,1499565877,935925006,0,296,667,348,143,127,164,470,429
2017/07/09/10:04:37.959025,164173,1499565877,958729982,0,314,671,355,141,124,160,444,452
2017/07/09/10:04:37.973991,164174,1499565877,973793029,0,317,602,333,141,121,159,423,467
2017/07/09/10:04:37.996683,164175,1499565877,996330022,0,347,645,346,137,108,156,364,441
2017/07/09/10:04:38.018915,164176,1499565878,18548011,0,364,633,342,164,134,154,369,441
2017/07/09/10:04:38.035722,164177,1499565878,35316944,0,363,636,343,168,137,143,299,424
2017/07/09/10:04:38.056541,164178,1499565878,56314945,0,331,619,336,178,143,163,299,410
2017/07/09/10:04:38.079102,164179,1499565878,78857898,0,348,593,276,163,129,153,305,414
2017/07/09/10:04:38.094146,164180,1499565878,93734025,0,342,561,259,157,130,135,299,435
2017/07/09/10:04:38.116230,164181,1499565878,116003990,0,324,573,270,163,127,135,314,436
2017/07/09/10:04:38.139380,164182,1499565878,138977050,0,317,529,220,171,136,132,281,413
2017/07/09/10:04:38.155407,164183,1499565878,155204057,0,334,513,220,186,142,110,263,400
2017/07/09/10:04:38.176648,164184,1499565878,176291942,0,334,485,214,176,134,124,250,406
2017/07/09/10:04:38.198712,164185,1499565878,198575973,0,315,477,225,182,135,152,309,417
2017/07/09/10:04:38.215206,164186,1499565878,215082883,0,333,524,237,157,116,151,287,394
2017/07/09/10:04:38.236680,164187,1499565878,236527919,0,326,601,298,148,99,163,310,381
2017/07/09/10:04:38.258681,164188,1499565878,258558988,0,266,555,295,123,87,177,382,359
2017/07/09/10:04:38.281330,164189,1499565878,281104087,0,295,572,316,139,107,174,406,348
2017/07/09/10:04:38.296384,164190,1499565878,296025991,0,315,559,301,133,111,155,392,311
2017/07/09/10:04:38.319165,164191,1499565878,318772077,0,277,566,299,137,123,199,450,304
2017/07/09/10:04:38.341553,164192,1499565878,341295957,0,282,482,235,142,134,188,444,331
2017/07/09/10:04:38.356379,164193,1499565878,356077909,0,290,476,213,144,135,180,405,321
2017/07/09/10:04:38.379305,164194,1499565878,378859996,0,240,501,201,126,117,169,393,295
2017/07/09/10:04:38.401435,164195,1499565878,401262998,0,228,568,235,132,114,173,371,297
2017/07/09/10:04:38.416460,164196,1499565878,416249036,0,229,501,219,127,107,125,319,292
2017/07/09/10:04:38.439064,164197,1499565878,438719987,0,215,650,319,129,94,121,310,258
2017/07/09/10:04:38.462504,164198,1499565878,461585998,0,240,694,338,125,96,115,293,261
2017/07/09/10:04:38.483725,164199,1499565878,483536005,0,228,680,331,135,101,136,280,275
2017/07/09/10:04:38.498901,164200,1499565878,498574972,0,199,663,315,130,100,129,306,276
2017/07/09/10:04:38.522208,164201,1499565878,521589040,0,243,697,342,141,106,143,332,270
2017/07/09/10:04:38.536884,164202,1499565878,536453008,0,252,511,256,129,105,150,334,296
2017/07/09/10:04:38.558982,164203,1499565878,558669090,0,218,434,230,123,96,156,362,311
2017/07/09/10:04:38.581353,164204,1499565878,581017017,0,219,435,241,132,113,171,403,314
2017/07/09/10:04:38.598947,164205,1499565878,598732948,0,224,435,261,136,111,170,375,311
2017/07/09/10:04:38.619218,164206,1499565878,618908882,0,264,399,228,117,93,157,364,324
2017/07/09/10:04:38.641605,164207,1499565878,641376018,0,277,426,226,114,89,148,375,310
2017/07/09/10:04:38.656263,164208,1499565878,656074047,0,281,428,225,111,89,142,360,296
2017/07/09/10:04:38.686141,164209,1499565878,685964107,0,269,429,223,82,55,125,350,275
2017/07/09/10:04:38.701461,164210,1499565878,701222896,0,269,389,189,74,50,118,359,278
2017/07/09/10:04:38.716209,164211,1499565878,716048002,0,207,365,185,77,51,121,373,265
2017/07/09/10:04:38.739722,164212,1499565878,739356040,0,187,329,161,73,56,129,400,281
2017/07/09/10:04:38.761129,164213,1499565878,760963916,0,189,430,222,86,60,135,386,295
2017/07/09/10:04:38.776118,164214,1499565878,776022911,0,193,466,244,89,60,110,362,273
2017/07/09/10:04:38.798815,164215,1499565878,798629045,0,227,455,251,90,65,124,352,260
2017/07/09/10:04:38.821193,164216,1499565878,821044921,0,210,471,251,86,63,117,322,247
2017/07/09/10:04:38.836783,164217,1499565878,836411952,0,203,474,252,89,70,128,301,243
2017/07/09/10:04:38.858681,164218,1499565878,858573913,0,196,449,225,82,68,118,306,260
2017/07/09/10:04:38.881058,164219,1499565878,880924940,0,196,376,187,78,68,116,280,269
2017/07/09/10:04:38.901150,164220,1499565878,900765895,0,150,378,179,71,63,105,308,274
2017/07/09/10:04:38.919064,164221,1499565878,918867111,0,122,347,164,74,70,117,285,276
2017/07/09/10:04:38.941748,164222,1499565878,941416025,0,118,369,178,69,56,93,244,252
2017/07/09/10:04:38.956267,164223,1499565878,956027030,0,139,304,149,65,53,90,249,260
2017/07/09/10:04:38.979058,164224,1499565878,978661060,0,150,284,135,68,56,92,259,260
2017/07/09/10:04:39.001545,164225,1499565879,1252889,0,166,354,152,71,61,97,234,256
2017/07/09/10:04:39.016419,164226,1499565879,16096115,0,176,400,169,70,56,92,226,257
2017/07/09/10:04:39.039131,164227,1499565879,38714885,0,192,371,150,70,59,103,221,261
2017/07/09/10:04:39.061275,164228,1499565879,61047077,0,177,393,142,68,59,101,233,221
2017/07/09/10:04:39.076206,164229,1499565879,75969934,0,230,405,147,70,59,102,270,232
2017/07/09/10:04:39.100383,164230,1499565879,100140094,0,220,356,132,64,52,94,300,237
2017/07/09/10:04:39.121248,164231,1499565879,121032953,0,213,298,115,71,59,122,320,224
2017/07/09/10:04:39.144201,164232,1499565879,143912076,0,201,394,170,71,61,127,339,252
2017/07/09/10:04:39.158704,164233,1499565879,158492088,0,201,361,177,71,60,128,314,243
2017/07/09/10:04:39.181542,164234,1499565879,181335926,0,128,360,179,69,58,132,288,230
2017/07/09/10:04:39.204233,164235,1499565879,203922986,0,124,343,180,74,59,136,254,232
2017/07/09/10:04:39.225144,164236,1499565879,225039005,0,124,346,179,73,58,129,269,234
2017/07/09/10:04:39.241447,164237,1499565879,241184949,0,132,264,142,78,63,131,241,199
2017/07/09/10:04:39.263829,164238,1499565879,263550043,0,136,276,132,78,62,132,256,201
2017/07/09/10:04:39.278974,164239,1499565879,278752088,0,153,267,122,73,60,126,252,205
2017/07/09/10:04:39.301473,164240,1499565879,301234960,0,149,260,115,67,58,124,282,190
2017/07/09/10:04:39.327909,164241,1499565879,326046943,0,152,326,121,58,51,109,283,189
2017/07/09/10:04:39.339024,164242,1499565879,338690042,0,151,311,105,57,49,95,289,179
2017/07/09/10:04:39.361454,164243,1499565879,361089944,0,148,312,112,59,49,96,272,174
2017/07/09/10:04:39.384012,164244,1499565879,383708000,0,117,330,111,61,52,101,294,159
2017/07/09/10:04:39.399050,164245,1499565879,398782014,0,117,340,111,63,53,97,264,149
2017/07/09/10:04:39.429839,164246,1499565879,429516077,0,106,267,100,61,53,98,235,150
2017/07/09/10:04:39.443851,164247,1499565879,443629980,0,107,239,95,53,45,103,266,190
2017/07/09/10:04:39.458848,164248,1499565879,458642959,0,106,312,97,53,47,101,300,186
2017/07/09/10:04:39.481466,164249,1499565879,481077909,0,125,309,101,58,52,102,285,189
