time,.header.seq,.header.stamp.secs,.header.stamp.nsecs,.header.frame_id,.pose.position.x,.pose.position.y,.pose.position.z,.pose.orientation.x,.pose.orientation.y,.pose.orientation.z,.pose.orientation.w,.twist.linear.x,.twist.linear.y,.twist.linear.z,.twist.angular.x,.twist.angular.y,.twist.angular.z,.wrench.force.x,.wrench.force.y,.wrench.force.z,.wrench.torque.x,.wrench.torque.y,.wrench.torque.z
2017/07/09/10:08:14.124211,447879,1499566096,928939241,,0.78064927879,0.391930101486,0.16301125826,0.62683150617,0.77679876179,0.0532796957258,0.0287614425598,0.0324183972695,-0.0713215844619,0.00559948067726,-0.0144186631944,-0.0375855957267,-0.0835102012855,4.0723528862,1.79148197174,0.338694125414,-0.716601610184,1.9160503149,0.0580508559942
2017/07/09/10:08:14.134145,447880,1499566096,938967810,,0.781071389226,0.391579604703,0.163180520037,0.627247933994,0.776434363748,0.0534932437666,0.0291235465382,0.0135882955484,-0.0629613156641,-0.00241929517002,0.0140554845083,0.00301563790693,-0.10161896302,3.76584625244,1.55799460411,0.157888948917,-0.60640591383,1.79655337334,0.0960226804018
2017/07/09/10:08:14.144051,447881,1499566096,948942049,,0.781032748257,0.390623059976,0.162994621349,0.627689092497,0.776094629234,0.0533306939932,0.028971826197,0.0370760618099,-0.0674695587898,0.0245877062075,0.00721487507763,-0.0654663326299,-0.103652715357,3.10397291183,1.46061956882,0.00165715673938,-0.551736056805,1.53608679771,0.0625211596489
2017/07/09/10:08:14.154397,447882,1499566096,958941666,,0.780794431475,0.390097479635,0.163298273988,0.627703700012,0.776098896433,0.0531635446296,0.0288479716651,0.028119362025,-0.0849781628979,0.0200136208014,-0.00336124227533,-0.0432706044855,-0.120237510135,2.9785618782,1.64512312412,-0.110821090639,-0.611378669739,1.47929596901,0.078487470746
2017/07/09/10:08:14.164206,447883,1499566096,968946165,,0.781902545912,0.389456725592,0.164009760406,0.628031489885,0.775734234206,0.053962398178,0.0300150824899,0.0387354528422,-0.0869816436244,0.0147248992687,0.00204130993262,-0.0591071118009,-0.126784191583,2.74365472794,2.57167816162,-0.0756148770452,-1.20726156235,1.36848604679,-0.150796055794
2017/07/09/10:08:14.174418,447884,1499566096,978951170,,0.78230440925,0.388118566547,0.163359603749,0.62931432431,0.774697293945,0.0541063777093,0.0296662074345,0.0390707563167,-0.0900123770939,0.000478635087246,-0.0150114329503,-0.0569453764672,-0.113290022923,2.63717365265,3.91516065598,-0.0862481817603,-1.85468101501,1.27707648277,-0.243309631944
2017/07/09/10:08:14.184227,447885,1499566096,988950564,,0.782661360735,0.387492283605,0.163583893925,0.629221072416,0.774749003233,0.0541642350689,0.030183764786,0.035849436938,-0.0590102891043,0.00117327309591,0.0127510259757,-0.0487419717767,-0.100861429056,1.45234727859,3.22022438049,-0.160878062248,-1.41765058041,0.873348414898,-0.143739446998
2017/07/09/10:08:14.194223,447886,1499566096,998944661,,0.783129112464,0.386412384106,0.163885400017,0.629585073215,0.774422428393,0.0543020465577,0.030721746799,0.0509322573534,-0.107529159961,0.0194532507834,0.00113324373016,-0.0812967659191,-0.163215485739,0.884044587612,1.61805891991,-0.258329540491,-0.665283203125,0.679604291916,-0.00336633995175
2017/07/09/10:08:14.204196,447887,1499566097,8945781,,0.78376247874,0.384400093031,0.164210476907,0.630826647616,0.773390599536,0.0542563105909,0.0313205039353,0.0332926735215,-0.112943966616,0.0176746471235,-0.00967740811286,-0.048334541817,-0.142586082898,1.15956044197,1.31147158146,-0.19746747613,-0.542226076126,0.769145131111,-0.0166792608798
2017/07/09/10:08:14.214129,447888,1499566097,18966904,,0.783940828783,0.384176826164,0.163514668286,0.631206506072,0.773058030163,0.0548147096231,0.0309026908465,0.0512264586209,-0.122396935021,0.00633756648523,-0.0132034496618,-0.0739491214207,-0.182068628353,0.948481082916,1.26807975769,-0.377930372953,-0.603080451488,0.602698504925,-0.069107785821
2017/07/09/10:08:14.224198,447889,1499566097,28951916,,0.785010594418,0.383361107526,0.164123069974,0.631615701668,0.772632993993,0.055578314731,0.0317948569942,0.0484284107944,-0.115462722304,-0.0137948199051,0.0249273490906,-0.0690061668473,-0.190604275671,1.60265386105,1.28138399124,-0.289495199919,-0.536094784737,0.860819578171,0.0195138715208
2017/07/09/10:08:14.234108,447890,1499566097,38936113,,0.785218994055,0.381689180787,0.163921878616,0.632396582543,0.772004172904,0.0555162964414,0.0316553350435,0.0486421276668,-0.0790849651682,-0.00638759307919,0.064177848478,-0.0828037236832,-0.158689791799,1.85363399982,1.34922456741,-0.267985224724,-0.544276416302,0.930354714394,0.0210052318871
2017/07/09/10:08:14.244170,447891,1499566097,48974515,,0.785363759236,0.380572474163,0.163394340026,0.633396736891,0.771183953646,0.0555832001741,0.0315339688647,0.0571153056203,-0.118290176274,-0.00902519642601,0.0539479188866,-0.0833901065805,-0.205986230902,1.49438726902,1.31176888943,-0.32835200429,-0.579374194145,0.73988866806,0.0109204761684
2017/07/09/10:08:14.254215,447892,1499566097,58937051,,0.786514285574,0.379656141709,0.164229320267,0.633769505086,0.770753975776,0.0566733206176,0.0325984352303,0.0688523480318,-0.147235772713,-0.00391292698964,0.0544062001064,-0.109689073806,-0.234259391432,1.69465553761,0.772646844387,-0.126428112388,-0.234369918704,0.859884917736,0.117753468454
2017/07/09/10:08:14.264145,447893,1499566097,68941182,,0.787466905776,0.377750231382,0.164012933472,0.634654102047,0.769971139674,0.0571736263482,0.0330119868298,0.0817463940582,-0.173863617637,0.00962799909532,0.0046611472885,-0.147049015374,-0.226090560474,0.350629836321,-1.14615118504,0.00583607563749,0.707637071609,0.39276522398,0.297102183104
2017/07/09/10:08:14.274291,447894,1499566097,78942980,,0.788528356613,0.375732560247,0.163823095594,0.636112332501,0.768691313481,0.0581322612782,0.0330969064679,0.0854364129375,-0.162661677865,0.0101954335208,0.0709864691747,-0.144621712365,-0.25853668341,-0.085154697299,-2.13341331482,0.112851269543,1.09143579006,0.223971828818,0.388347715139
2017/07/09/10:08:14.284064,447895,1499566097,88947412,,0.788846398086,0.374574895466,0.163826650268,0.637113679372,0.767827425104,0.058504585738,0.0332327889868,0.0807695045904,-0.144098283377,0.00775488576936,0.0901419435101,-0.134112846854,-0.248063595995,0.872294664383,-1.7807854414,0.358923226595,0.855309009552,0.626491487026,0.318297058344
2017/07/09/10:08:14.293989,447896,1499566097,98945428,,0.789405384444,0.373751554346,0.163934378081,0.637689688134,0.767297370302,0.0591946751174,0.0332053853035,0.0706331739361,-0.126125276545,0.000739225591796,0.118955422917,-0.11942606793,-0.250164271062,1.76018404961,-0.784477889538,0.353421837091,0.2085839957,0.878421247005,0.182973653078
2017/07/09/10:08:14.304149,447897,1499566097,108937091,,0.789600090195,0.372691826267,0.163297670563,0.63815470093,0.766890237686,0.0595971336927,0.0329563753948,0.0693066058558,-0.122397972067,0.00141939456138,0.100176949455,-0.120406580299,-0.231810116595,1.67874920368,0.364531755447,0.507288515568,-0.429392814636,0.771431386471,0.0460865870118
2017/07/09/10:08:14.314040,447898,1499566097,118941252,,0.79051291447,0.371174254193,0.163629966711,0.639141118726,0.765984551181,0.0603050619507,0.033609480927,0.0644883562834,-0.141093757062,-0.0105384072315,0.098524314635,-0.0924133865387,-0.256259639456,2.42872834206,0.955386579037,0.254793912172,-0.787945747375,0.973856806755,-0.049751251936
2017/07/09/10:08:14.324265,447899,1499566097,128936881,,0.791381280647,0.370205219695,0.163820150831,0.640282281743,0.764931992209,0.0614570409721,0.0337739410875,0.0654811303639,-0.138630814679,-0.00615523710366,0.104131848038,-0.100115757383,-0.247253853236,3.35833263397,1.29912590981,0.342806994915,-0.888930559158,1.31417250633,-0.0527407191694
2017/07/09/10:08:14.334207,447900,1499566097,138944998,,0.79178301788,0.367261851241,0.163238477775,0.641825196104,0.763664653238,0.0610653393689,0.0338783023436,0.060166828592,-0.15346664091,-0.00139826626939,0.0836268371529,-0.0919041340621,-0.27194257214,3.16289639473,1.02202475071,0.390526682138,-0.704050958157,1.22593343258,0.0141791179776
2017/07/09/10:08:14.344440,447901,1499566097,148941099,,0.792317475692,0.366290855916,0.163944846001,0.64220128996,0.763275690205,0.0616109788643,0.0345226186587,0.0534768660344,-0.179643176905,-0.0095897459259,0.0211600435426,-0.0692993869619,-0.272747043091,3.71428918839,0.841521501541,0.414516866207,-0.635754585266,1.46460461617,0.0377600081265
2017/07/09/10:08:14.354247,447902,1499566097,158938885,,0.7928747723,0.364045331873,0.163822841395,0.643491827804,0.762154601034,0.0618932911942,0.0347541677552,0.0563843918183,-0.194322013702,0.0068495556818,0.0165060869345,-0.0854022395536,-0.279913589802,3.45163965225,0.567629516125,0.519661843777,-0.438447445631,1.40679240227,0.0912638008595
2017/07/09/10:08:14.366313,447903,1499566097,168937874,,0.793236875448,0.362643165503,0.163927747462,0.644417925055,0.761344542351,0.0622029972567,0.0347967359439,0.0506788564749,-0.208657003646,0.0112173790018,-0.0064669205934,-0.0820145473963,-0.264918749068,3.32751107216,0.517152249813,0.552038967609,-0.471665680408,1.38386547565,0.070990152657
2017/07/09/10:08:14.374339,447904,1499566097,178943077,,0.793629722948,0.360966126204,0.164093077822,0.645260591774,0.760609365443,0.0624991362349,0.034727796839,0.0521613978564,-0.196493659384,0.00764809932532,0.0375390966531,-0.0658074442052,-0.291148667099,3.3430223465,0.511292397976,0.198882326484,-0.49288392067,1.33849465847,0.0570645146072
2017/07/09/10:08:14.384111,447905,1499566097,188937590,,0.793938105834,0.358703922397,0.163604544009,0.646329687803,0.759699540441,0.0624156528986,0.0349117342921,0.0373545923027,-0.17593765229,0.00792228224088,0.0531409972846,-0.0373713498335,-0.265299819178,3.01517701149,0.694682836533,0.0208184458315,-0.522920846939,1.18876588345,0.0652270019054
2017/07/09/10:08:14.393943,447906,1499566097,198936569,,0.7940335671,0.356710517831,0.163888265497,0.647427023081,0.758772066966,0.0621994028085,0.0351345195848,0.0446194705627,-0.203299013674,0.0163634428584,0.0227673369237,-0.0487312753039,-0.296293462872,2.81738686562,0.537240326405,-0.166149199009,-0.512111961842,1.14516842365,0.0276357941329
2017/07/09/10:08:14.404158,447907,1499566097,208944661,,0.794967549358,0.354591470944,0.163874522652,0.648869533958,0.757483351009,0.0627982363571,0.0352658809073,0.0397256023151,-0.232086267553,0.0077531263858,-0.00212513535778,-0.0311001556561,-0.321088627722,2.68738555908,0.438109755516,-0.0645979493856,-0.477430611849,1.16413664818,0.0337279140949
2017/07/09/10:08:14.414017,447908,1499566097,218944240,,0.794949647918,0.353187709943,0.164498660246,0.649272058455,0.757135631909,0.0627001761156,0.0354981255748,0.0375538728441,-0.211335828222,0.00185204337056,0.0133101065053,-0.0236177479532,-0.298653735815,2.8290848732,0.231170445681,-0.362247049809,-0.375022649765,1.18743395805,0.0660209283233
2017/07/09/10:08:14.423978,447909,1499566097,228938391,,0.795145269952,0.35057398051,0.164422451291,0.650587003996,0.756012747004,0.0624257530484,0.0358371588578,0.0403818456212,-0.209606537747,0.0192685043955,0.00296314591522,-0.042208951043,-0.276091488875,2.96449375153,0.211010321975,-0.385963082314,-0.28813162446,1.25945174694,0.0993845537305
2017/07/09/10:08:14.434269,447910,1499566097,238943840,,0.795849845853,0.348664580269,0.164214845628,0.651430309709,0.755258919548,0.0627306498413,0.0358801004101,0.0267475899615,-0.216905889723,0.00613464939382,-0.0283405073079,-0.00850361692098,-0.268750912065,2.38863682747,0.446041822433,-0.39046651125,-0.436301738024,1.04140365124,0.0669646859169
2017/07/09/10:08:14.444161,447911,1499566097,248941725,,0.796184681728,0.345604288661,0.164483663458,0.653062977128,0.753841364637,0.0625520179158,0.0363206542047,0.0285377941396,-0.200268306331,0.00985791457575,0.0149070634064,-0.00952454671569,-0.29120176102,2.53481507301,0.486942917109,-0.614122748375,-0.413075774908,1.06239676476,0.0698943883181
2017/07/09/10:08:14.454116,447912,1499566097,258939008,,0.796173617405,0.343399004158,0.164584257391,0.654596555906,0.752544974239,0.0622978836531,0.0360331019316,0.0299416938046,-0.256656385441,0.00942061111964,-0.0150088708178,-0.00491839567455,-0.357760926173,2.34607720375,0.408831864595,-0.790440320969,-0.406015843153,0.954738676548,0.0659427195787
2017/07/09/10:08:14.464151,447913,1499566097,268941418,,0.796620139294,0.341920131097,0.164634184442,0.655347623447,0.75185244756,0.0626675542975,0.0361962315609,0.0346267657007,-0.237752326189,0.00744048249032,0.00269994086812,-0.0238759551208,-0.336102104565,2.56604766846,0.723655343056,-0.772850334644,-0.542559564114,1.09253704548,0.0319653078914
2017/07/09/10:08:14.474221,447914,1499566097,278977775,,0.796925739494,0.339500995841,0.165012826105,0.65605600734,0.751219158625,0.0624507635239,0.0368807955921,0.046210585722,-0.222489501489,0.0246749641409,0.0202805696795,-0.0618918910452,-0.312445732009,2.67610692978,0.704409956932,-0.809048116207,-0.553447246552,1.1325558424,0.0301281549037
2017/07/09/10:08:14.484311,447915,1499566097,288943893,,0.797357409522,0.336506577628,0.165405642409,0.657698609486,0.749763170599,0.0625767588692,0.0370388491059,0.042203404113,-0.238344942759,0.0263469843426,0.00879618176405,-0.0527039452603,-0.331337384435,2.12225317955,0.340679347515,-0.86493730545,-0.36079326272,0.92472422123,0.0754027366638
2017/07/09/10:08:14.494175,447916,1499566097,298967083,,0.79804722105,0.334648680836,0.165232035163,0.658724497741,0.748826544778,0.0628289698005,0.0373277706947,0.0257972423981,-0.245573145387,0.00710912145425,-0.0120487095431,-0.0138427624795,-0.319590529622,2.33009004593,0.342328250408,-0.982049703598,-0.369978129864,1.02041959763,0.0420678257942
2017/07/09/10:08:14.504220,447917,1499566097,308944984,,0.798075102517,0.332493801385,0.165165180458,0.66024196632,0.747495405904,0.0629318068634,0.0370236646946,0.0294405932229,-0.252455067818,-0.00184174956547,-0.00449891499447,-0.00500720325154,-0.337437483893,2.3062107563,0.237075805664,-0.942012608051,-0.317915230989,1.05319619179,0.0776058733463
2017/07/09/10:08:14.514097,447918,1499566097,318938718,,0.798531048121,0.329385804834,0.16551163619,0.661424735144,0.746440287707,0.0626460502822,0.0376787607521,0.0281921434449,-0.245011476782,0.00247419510099,0.0125780639798,-0.00906069264153,-0.339218834529,1.62850058079,0.295468598604,-1.02133965492,-0.385581225157,0.780633330345,0.0164865218103
2017/07/09/10:08:14.524357,447919,1499566097,328949324,,0.79881327382,0.327880370043,0.165658533819,0.662370882373,0.745559425101,0.0631800709126,0.0376063354521,0.0327575752333,-0.249158489525,-0.000112071109281,0.000923787982225,-0.0222659158471,-0.33563679721,1.43423688412,-0.21554286778,-0.777227818966,-0.253385066986,0.698380887508,0.0744367241859
2017/07/09/10:08:14.534247,447920,1499566097,338944932,,0.799076904695,0.324811813029,0.165411616518,0.663487022571,0.744589218593,0.0625859697746,0.0381426640618,0.0272959098731,-0.222166503252,0.00385217643691,-0.00485042054999,-0.0244039283566,-0.307488173289,0.967794835567,-0.372899115086,-0.841258227825,-0.190834224224,0.570969223976,0.0930371880531
2017/07/09/10:08:14.544197,447921,1499566097,348937801,,0.799338928659,0.322436159917,0.165235706842,0.664991947828,0.743236752089,0.0627799312725,0.0379936823351,0.0423319064991,-0.242024473616,0.00842128022243,0.00693186668809,-0.0548935318709,-0.337344807444,0.867118418217,-0.0704566314816,-0.782977283001,-0.388691902161,0.538358211517,0.0399657562375
2017/07/09/10:08:14.553949,447922,1499566097,358942176,,0.799839219952,0.320688150746,0.165395909305,0.665600757559,0.742637568676,0.0630430262232,0.0386089364338,0.0326130729992,-0.280612635199,-0.0139008069781,-0.0116398782655,-0.02033956966,-0.36404729932,1.24340772629,0.384676814079,-0.708479702473,-0.45857411623,0.679568052292,0.0601861402392
2017/07/09/10:08:14.564328,447923,1499566097,368944046,,0.800206929613,0.317356359915,0.165176521293,0.667363219268,0.741054738004,0.0628157135837,0.0389665879527,0.0332236948779,-0.272410911501,-0.00408769761196,-0.0527327071006,-0.0341590237764,-0.328089557717,0.856436789036,0.292907655239,-0.687490344048,-0.515781700611,0.499873787165,-0.016579631716
2017/07/09/10:08:14.573951,447924,1499566097,378936695,,0.800510775601,0.3150530768,0.165565240955,0.668086662206,0.740385461978,0.0628272520138,0.0392723296862,0.0255350765437,-0.273946648855,-0.0149918863087,-0.0553500428687,-0.0180945798544,-0.32397354965,1.05979812145,0.141715824604,-0.482481688261,-0.370762109756,0.512731730938,0.0198261290789
2017/07/09/10:08:14.584186,447925,1499566097,388942866,,0.801339909941,0.312245783808,0.165222538848,0.669379836515,0.739154349691,0.0630967058777,0.0400035936895,0.043927156731,-0.271177304099,0.000973164923909,-0.0437595072886,-0.0630618692391,-0.333140525053,0.801858842373,0.177209973335,-0.601568102837,-0.343223571777,0.390506207943,-0.0135930776596
2017/07/09/10:08:14.594195,447926,1499566097,398941746,,0.801126091008,0.309766776301,0.164839080959,0.670702620292,0.738000668853,0.0625737624388,0.0399691401105,0.0391388854484,-0.275952686044,-0.0111564892898,-0.0380426966425,-0.0586622780789,-0.336678870079,0.940803468227,0.0729844123125,-0.493945121765,-0.286624521017,0.48172685504,-0.00395587459207
2017/07/09/10:08:14.603875,447927,1499566097,408942593,,0.801738109695,0.307283719083,0.164952978053,0.67183513299,0.736906703944,0.0630486535362,0.0403847873709,0.0524669291861,-0.269448705275,0.00288189457576,-0.0119719898411,-0.0923009444328,-0.359002054027,1.2265920639,0.0528727769852,-0.303575873375,-0.274402916431,0.607664644718,0.021818690002
2017/07/09/10:08:14.614215,447928,1499566097,418944541,,0.802472631624,0.304814514654,0.165030155363,0.673251299546,0.735558118088,0.0633857308338,0.0408557425801,0.0487248278645,-0.259656366257,0.00101185395345,0.00525197381124,-0.0884220312633,-0.354506720161,0.895115673542,-0.134499788284,-0.336880534887,-0.171424686909,0.476121902466,0.0394076108932
2017/07/09/10:08:14.624080,447929,1499566097,428941183,,0.803237121411,0.302247035013,0.165244554551,0.674347122022,0.734454469897,0.064123947184,0.0414814424331,0.070828650607,-0.2487846772,0.0155600115851,0.0359489729742,-0.144451652957,-0.355419187092,1.28145682812,-0.0400693267584,-0.223947480321,-0.303409397602,0.633957743645,0.0105711072683
2017/07/09/10:08:14.634165,447930,1499566097,438938070,,0.80384691497,0.299458585072,0.165755710204,0.675960645672,0.732897931742,0.0644764735224,0.0421972927159,0.0621927417362,-0.270381906807,0.011333905707,0.0186924384637,-0.121588885155,-0.378007782842,0.649699270725,-0.451981753111,-0.0806884244084,-0.131310597062,0.411554276943,0.0256684534252
2017/07/09/10:08:14.644170,447931,1499566097,448944887,,0.804151771353,0.296986690259,0.165466793776,0.677080287353,0.731835701096,0.0647045804292,0.0423333007344,0.0610633558769,-0.299637804467,0.00811496650823,0.0018605913675,-0.121730937151,-0.393864014682,0.467353343964,-0.34638094902,-0.150688171387,-0.175153702497,0.368539601564,0.0395107641816
2017/07/09/10:08:14.653877,447932,1499566097,458937827,,0.805034862128,0.294339682852,0.165647418192,0.678205653197,0.730706885202,0.0652430327434,0.0429870511761,0.0639789143991,-0.280961873569,0.00510172123637,0.0193452201299,-0.127143756271,-0.385848627987,-0.0965701118112,-0.111838772893,-0.0605303272605,-0.255536466837,0.147548019886,-0.00266807898879
2017/07/09/10:08:14.664423,447933,1499566097,468942126,,0.80573536637,0.291539170621,0.165232964953,0.679653250041,0.729301057786,0.0655284120157,0.043559775478,0.071844083291,-0.254386147674,0.00973038631327,0.036288155305,-0.152837407421,-0.338553594878,-1.31625330448,-0.561406850815,-0.225341290236,-0.0887112319469,-0.351530581713,0.0173003301024
2017/07/09/10:08:14.674228,447934,1499566097,478938941,,0.806322667949,0.288857402092,0.165784371596,0.680676964308,0.728267478999,0.0658365662903,0.0443947725782,0.0663363657089,-0.272686834173,0.00797616245082,0.0217112073666,-0.14078806164,-0.387225932852,-0.692906916142,-0.520515263081,-0.0832055360079,-0.09684664011,-0.0903984457254,0.0274412333965
2017/07/09/10:08:14.684405,447935,1499566097,488951460,,0.807093190976,0.286246175221,0.165797577228,0.682249954946,0.726706997178,0.0665185959292,0.0448019600586,0.0671183533015,-0.271763916554,0.0177852603098,0.0253269516799,-0.152518667411,-0.393512300941,-1.13729119301,-0.6286444664,-0.0931120589375,0.0023620724678,-0.253493726254,0.055606815964
2017/07/09/10:08:14.694126,447936,1499566097,498944715,,0.807600231452,0.28418180531,0.165939583108,0.683506053412,0.725429592013,0.0673277774265,0.0451481158853,0.064650050951,-0.271923799647,0.0162077543601,0.0210256392251,-0.152934182297,-0.368690907966,-1.36932659149,-0.760713994503,0.242214620113,0.0652864575386,-0.281652539968,0.0747000426054
2017/07/09/10:08:14.704052,447937,1499566097,508938790,,0.808438533605,0.280781939926,0.165988855945,0.685022322459,0.72390164181,0.0676847276785,0.0461476798621,0.0617102133952,-0.269807509784,0.00684691104489,0.0336527953123,-0.144566473814,-0.39238431809,-1.66236054897,-1.13446497917,0.308146476746,0.174824938178,-0.485192924738,0.0990976393223
2017/07/09/10:08:14.714289,447938,1499566097,518944296,,0.808950228071,0.277857667515,0.165611622504,0.686282916288,0.722680907988,0.0677646738021,0.0464328873139,0.0620029782604,-0.293034946629,0.00143244935132,0.0222577494684,-0.150125164851,-0.416417602386,-1.7531131506,-1.08200144768,0.10904186219,0.0276439953595,-0.512336432934,0.0356632173061
2017/07/09/10:08:14.724080,447939,1499566097,528938640,,0.809461410328,0.275793414858,0.165809671793,0.687225570471,0.721696875776,0.0683571603067,0.0469247634112,0.0624507064175,-0.291339103593,-9.49342683022e-05,0.0283366429703,-0.133756990348,-0.406174306759,-1.74949526787,-0.978294909,0.255978792906,0.135609403253,-0.520930945873,0.0721945241094
2017/07/09/10:08:14.734212,447940,1499566097,538936198,,0.81015670624,0.272807321959,0.166552205812,0.688853821164,0.720008293694,0.0692255787293,0.0477104739984,0.0573461444477,-0.281567310248,0.00793035134315,0.0306224787106,-0.137904998886,-0.394442600715,-2.42732357979,-1.31635951996,0.445153951645,0.299131631851,-0.781715095043,0.107582494617
2017/07/09/10:08:14.744076,447941,1499566097,548940437,,0.810943341156,0.270090060339,0.166303658268,0.69006261628,0.718761460216,0.0697280453071,0.048306817522,0.0608652556621,-0.282511485249,0.0139517232878,0.029347666721,-0.149981921993,-0.393578313406,-2.57011198997,-1.1734341383,0.522624492645,0.242398515344,-0.803348660469,0.0924582928419
2017/07/09/10:08:14.755220,447942,1499566097,558944987,,0.811325559352,0.267696265652,0.166574064819,0.69155829577,0.717260129058,0.0700816562834,0.0487195265605,0.067991742416,-0.273970975027,0.0150310378283,0.0213437461784,-0.170908265217,-0.376218475252,-1.85108995438,0.203889474273,0.47528269887,-0.590793192387,-0.515576004982,-0.170222640038
2017/07/09/10:08:14.764169,447943,1499566097,568969788,,0.811865945901,0.264813701484,0.166334331565,0.692494247294,0.716283506694,0.0702561921754,0.0495350680217,0.0664390338203,-0.288258717528,0.0146398891979,-0.00628183818407,-0.161690620816,-0.393945571351,-1.55548560619,1.56080567837,0.278808653355,-1.26154518127,-0.408046513796,-0.365034848452
2017/07/09/10:08:14.774241,447944,1499566097,578941277,,0.812166180568,0.262010266167,0.166353995478,0.693954058796,0.714828092323,0.0703796759756,0.0499526167123,0.0475362502877,-0.287468967867,0.00352747799728,-0.008638682149,-0.117533549855,-0.384269153643,-1.87368834019,1.53974699974,0.614363729954,-1.19115900993,-0.52324205637,-0.331731468439
2017/07/09/10:08:14.784228,447945,1499566097,588943565,,0.812587920046,0.258984154098,0.16631989767,0.695071072116,0.71368821845,0.070427476784,0.0506488111088,0.045340217468,-0.296011770585,-0.00376759429251,-0.0287174930608,-0.115917572957,-0.378654945223,-2.94257211685,1.17253148556,0.436054557562,-0.896821081638,-0.884710013866,-0.235704153776
2017/07/09/10:08:14.794155,447946,1499566097,598942398,,0.813357460374,0.256498255823,0.166931570284,0.696075938744,0.712580703057,0.0709847182791,0.0516546116381,0.0574853457021,-0.301906194603,0.0219190773927,-0.056065076334,-0.156581666985,-0.374384178696,-3.79442954063,0.264203220606,0.767831087112,-0.329797059298,-1.21881663799,-0.126850455999
2017/07/09/10:08:14.804230,447947,1499566097,608940365,,0.813984298044,0.253324484738,0.166657453452,0.697277988572,0.711338224337,0.0709947001917,0.0525460730661,0.0558504561248,-0.307048642305,0.0181912171866,-0.0685122589113,-0.155603660913,-0.347862332387,-4.25403594971,-0.0496729761362,0.755031049252,0.0535083413124,-1.38554167747,0.00418650731444
2017/07/09/10:08:14.814333,447948,1499566097,618944871,,0.814593675733,0.250875619666,0.167407828657,0.698468180431,0.710024520397,0.0718520893742,0.053335341124,0.0550518748867,-0.283214606805,0.0176899385776,-0.0520239287994,-0.153770563822,-0.330620997671,-4.82190895081,-0.695625007153,0.942862153053,0.349165529013,-1.52297818661,0.0723068490624
2017/07/09/10:08:14.824026,447949,1499566097,628937042,,0.814750725722,0.248191330241,0.167219113489,0.700139020446,0.708348997852,0.0720894735103,0.0533868626184,0.0466655168167,-0.291903527358,0.016123594041,-0.00684734035539,-0.138845057377,-0.388014461576,-5.23980236053,-0.733557939529,1.03747010231,0.288018286228,-1.69246661663,0.0685930401087
2017/07/09/10:08:14.834108,447950,1499566097,638944984,,0.815634860811,0.245306466399,0.168000305301,0.700888439591,0.707440945486,0.072861621752,0.0545333656796,0.0472825138557,-0.2757531401,0.0158928682754,0.0366094368834,-0.148038186037,-0.401126096859,-5.20664596558,-0.499558746815,0.972269415855,0.0749345868826,-1.72079777718,0.0197118632495
2017/07/09/10:08:14.844653,447951,1499566097,648940031,,0.81569504142,0.24326632111,0.16742042864,0.702181015042,0.706153765551,0.0728269526661,0.0546343891443,0.037215070178,-0.280613801555,0.0138353860162,0.0393890950596,-0.112315576164,-0.397871188551,-6.37870645523,-0.356255143881,0.940834283829,-0.0425380989909,-2.19075536728,-0.0543663054705
2017/07/09/10:08:14.854221,447952,1499566097,658945593,,0.815870774557,0.240110454264,0.167365857228,0.703823018292,0.704490208672,0.0729153826426,0.0548639388139,0.0360483333924,-0.266572272819,-0.000789502989279,0.0118153298462,-0.100213067419,-0.364376219712,-7.11846542358,-0.394684702158,1.01086902618,-0.113511398435,-2.49854540825,-0.0443374849856
2017/07/09/10:08:14.864309,447953,1499566097,668940222,,0.816671604678,0.237197097216,0.167496142996,0.704892768151,0.703276444043,0.0734753045541,0.0559446895016,0.0441759575382,-0.276188777718,0.00447885448098,-0.00578057971033,-0.126768878364,-0.357011829181,-7.13355064392,-0.524791300297,1.01538097858,0.0091425254941,-2.49676990509,-0.0115112736821
2017/07/09/10:08:14.874243,447954,1499566097,678945469,,0.81699777115,0.235253932706,0.167328524778,0.705455229498,0.702661395668,0.0735187948381,0.0565231723941,0.0365680325207,-0.299884506313,0.00717041091871,-0.058685856159,-0.117666711379,-0.339252665068,-7.00677871704,-0.228990405798,1.06820225716,-0.100104667246,-2.4105887413,-0.0932365804911
2017/07/09/10:08:14.884231,447955,1499566097,688945552,,0.817296525637,0.232097653357,0.167643930978,0.706801823324,0.70123395343,0.0735791059882,0.0573431797518,0.0375873340952,-0.282095733627,0.00858947745175,-0.061112135193,-0.123953036696,-0.324998697945,-6.87042760849,-0.54491853714,0.788357138634,0.0924152955413,-2.35287594795,-0.0333129540086
2017/07/09/10:08:14.894134,447956,1499566097,698947451,,0.816804594732,0.22876429407,0.166906377812,0.708378079229,0.699723374136,0.0729477725134,0.057151719486,0.0325777024012,-0.290937007274,-0.00768353502575,-0.0608036292475,-0.103002335834,-0.342313850893,-6.23584079742,-0.181567788124,0.272922128439,0.0456574708223,-2.10790228844,-0.0711002349854
2017/07/09/10:08:14.904357,447957,1499566097,708944540,,0.817509271466,0.227103732567,0.167526090813,0.708684433229,0.699273603765,0.0734896240876,0.058155621646,0.0248567433952,-0.278693105352,0.00565613521962,-0.0529847613638,-0.096142841069,-0.336253641134,-6.31493663788,-0.461662650108,0.476015269756,0.285425156355,-2.12539076805,0.0568147264421
2017/07/09/10:08:14.914292,447958,1499566097,718945111,,0.81761448658,0.224386591341,0.167431630545,0.710060894973,0.69785296525,0.0735928080495,0.0582997677956,0.0126809161149,-0.276444839906,-0.00896265272105,-0.017566245142,-0.0470982155604,-0.360196396354,-6.2048368454,-0.208590269089,0.389295995235,0.183017790318,-2.14034032822,0.0191217400134
2017/07/09/10:08:14.924335,447959,1499566097,728938110,,0.817723957563,0.221418813379,0.167295124326,0.711448766483,0.696422200551,0.0733806176235,0.0587542016028,0.00625090985787,-0.256865858641,-0.0160371839182,0.00144241742331,-0.0241722451906,-0.345855832731,-7.26160049438,0.0865141972899,0.508493006229,0.0426165089011,-2.60409545898,0.0175895392895
2017/07/09/10:08:14.934195,447960,1499566097,738950271,,0.817763864865,0.218841722921,0.167384599159,0.712341598449,0.695494362582,0.0732063941797,0.05914273064,0.00438676596728,-0.263765635425,-0.0186900121445,-0.00698774842722,-0.0157523059918,-0.35606437283,-8.64027881622,-0.149281933904,0.540210306644,0.100211128592,-3.12819552422,0.0129701718688
2017/07/09/10:08:14.944143,447961,1499566097,748939481,,0.817624738933,0.216566518732,0.166952559031,0.713722617237,0.694092608692,0.0731986382091,0.058969785206,0.00476970223743,-0.270045331664,-0.00179533067051,-0.021925999686,-0.0293000249,-0.344614963711,-8.97633075714,-0.146626234055,0.558273017406,0.0781836286187,-3.18883132935,-0.0132725983858
2017/07/09/10:08:14.954235,447962,1499566097,758945403,,0.818060256178,0.21346213271,0.167566554642,0.71487049147,0.692809458711,0.0734614329652,0.0598218372599,0.0115283102137,-0.283825729226,0.00587555547702,-0.00814115490844,-0.057924793635,-0.372488728579,-8.66076183319,-0.40311011672,0.807090520859,0.231576710939,-3.06272959709,0.0500174090266
2017/07/09/10:08:14.964381,447963,1499566097,768940899,,0.817540783742,0.211534777313,0.166742981552,0.715836589818,0.691914460571,0.0728750066805,0.0593429804788,-0.00181387305107,-0.264944192696,-0.00426262177664,-0.0052593271605,-0.0111737248801,-0.345802466045,-8.44052410126,0.0231546219438,0.49795410037,0.174531430006,-2.96863651276,0.0231186896563
2017/07/09/10:08:14.974326,447964,1499566097,778960682,,0.817715183598,0.209284359855,0.166899111676,0.716817616976,0.690859978967,0.0730430763737,0.0595793793934,-0.015363489993,-0.244438875224,-0.0254570293134,-0.0106423010166,0.038638243127,-0.312104817757,-8.19342327118,-0.078781157732,0.341945558786,0.234052270651,-2.9289484024,0.060827344656
2017/07/09/10:08:14.984127,447965,1499566097,788945798,,0.817604265384,0.206251456801,0.166213343229,0.718152246304,0.689510796876,0.072433462846,0.0598799263555,-0.0141247077427,-0.264773156929,-0.0172228684131,-0.0346299152364,0.0297023015135,-0.318301627287,-8.43510627747,-0.10520593822,0.291533797979,0.228636011481,-3.09283566475,0.053176317364
2017/07/09/10:08:14.994218,447966,1499566097,798939298,,0.817180879679,0.203913608068,0.166258966586,0.719233092256,0.688440896707,0.0719502762798,0.0598000709723,-0.0169633709447,-0.26028854947,-0.0199827367184,-0.050708529028,0.033465904594,-0.294079954003,-8.85555171967,-0.174532100558,0.177367419004,0.324253499508,-3.2938785553,0.103028982878
2017/07/09/10:08:15.004233,447967,1499566097,808944557,,0.817074786808,0.20138966145,0.166011619535,0.720191835084,0.687475520043,0.0715461683188,0.0598521162529,-0.014058320178,-0.254486012818,-0.0293613691452,-0.0455881255703,0.039724164037,-0.303840084317,-9.28192424774,-0.414034187794,0.0152586251497,0.307972490788,-3.49404549599,0.0653214305639
2017/07/09/10:08:15.013885,447968,1499566097,818950686,,0.817190518282,0.199489934815,0.165869922291,0.720671302773,0.686965626808,0.0713035277447,0.0602238148543,-0.0083549801018,-0.261392464434,-0.0297611389732,-0.059663877761,0.0274074299664,-0.295763906109,-9.14008903503,-0.108509004116,0.139180541039,0.239570632577,-3.49589824677,0.0551821738482
2017/07/09/10:08:15.024175,447969,1499566097,828942415,,0.816624794504,0.196255080128,0.165303592733,0.721960717932,0.685689391712,0.0706352456348,0.0601119117164,-0.017499395127,-0.242690429396,-0.0384626875924,-0.0521343418577,0.0561497938159,-0.27514337543,-9.10703277588,-0.376485079527,0.0498763136566,0.363248586655,-3.50405955315,0.151233285666
2017/07/09/10:08:15.034200,447970,1499566097,838942961,,0.817259716968,0.194245698361,0.164989018315,0.722442443299,0.685126344071,0.0703458272676,0.0610759638966,-0.00033806441122,-0.262706945643,-0.0129213563297,-0.067587580648,-0.00176873398694,-0.272402590929,-8.85642528534,-0.36178612709,-0.0454256385565,0.220754861832,-3.42769050598,0.0656193345785
2017/07/09/10:08:15.044294,447971,1499566097,848950572,,0.816861465048,0.190866593007,0.164489047458,0.723737415634,0.683806072563,0.0695922784153,0.0614029569546,0.00575201694879,-0.294446738549,-0.0204975576412,-0.114383481202,-0.00963223590016,-0.300833853165,-9.428855896,-0.313950181007,-0.162907421589,0.289514482021,-3.63791227341,0.145115196705
2017/07/09/10:08:15.053998,447972,1499566097,858950783,,0.816790413209,0.189486197203,0.164184725175,0.724065064421,0.68348508766,0.0694247628842,0.0613035050401,0.00112757132691,-0.271924009633,-0.036955978933,-0.122723428384,0.00430092452272,-0.260093598665,-9.08553886414,0.0900464430451,-0.38158211112,0.216084167361,-3.52717494965,0.0945929288864
2017/07/09/10:08:15.064077,447973,1499566097,868937180,,0.817404413509,0.185728990123,0.164707454076,0.724902097431,0.682488796937,0.0688632749307,0.0631176723344,0.00870024143357,-0.283624106079,-0.0331842062461,-0.15026731566,-0.00656989977007,-0.258534926396,-9.22919178009,-0.294665247202,-0.226409256458,0.298993647099,-3.58134222031,0.155743360519
2017/07/09/10:08:15.074447,447974,1499566097,878950495,,0.817198052499,0.183124921754,0.163375498031,0.725851788518,0.681575927256,0.0678769544355,0.0631360083164,0.0082958183167,-0.295086214141,-0.0315432224287,-0.179662396197,0.00534381800732,-0.266531780821,-9.51901721954,-0.38999119401,-0.265531331301,0.340873062611,-3.71840190887,0.140741527081
2017/07/09/10:08:15.084282,447975,1499566097,888942901,,0.817379972631,0.179723862124,0.163898368936,0.726564625851,0.680772041449,0.0671882223335,0.0643351756286,-0.0128273345205,-0.304213451768,-0.042150375317,-0.163758982301,0.0507209749796,-0.29374933338,-9.33679866791,-0.255402386189,-0.272072166204,0.379495680332,-3.70330452919,0.190789997578
2017/07/09/10:08:15.094309,447976,1499566097,898937092,,0.817508564797,0.177487198822,0.163583743383,0.727442942121,0.679841369878,0.066771671436,0.0646840139002,-0.0135503195994,-0.28893165915,-0.0395895758103,-0.18042411273,0.0648390418713,-0.233597684377,-9.53631210327,-0.394368469715,-0.301517874002,0.521490097046,-3.88631224632,0.262569516897
2017/07/09/10:08:15.104187,447977,1499566097,908963564,,0.817101842412,0.174664552852,0.162586990487,0.728250094536,0.679098608186,0.0654380671682,0.0647668088898,0.00104191157035,-0.313550171939,-0.0439140969594,-0.203018339758,0.0388526138863,-0.277696151332,-9.72818279266,-0.10854883492,-0.713298201561,0.390959054232,-4.05397939682,0.204409211874
2017/07/09/10:08:15.113839,447978,1499566097,918941440,,0.817427013837,0.171654795798,0.162092837612,0.729006157297,0.678275302613,0.0644210400371,0.0658981493561,0.0172672457852,-0.303931038988,-0.0302208521616,-0.215966166489,0.00782693940744,-0.232952223187,-9.67021179199,-0.0927859693766,-0.66287869215,0.389155179262,-4.04304409027,0.217940032482
2017/07/09/10:08:15.123977,447979,1499566097,928948209,,0.817616397418,0.168801351154,0.162133601629,0.729514851066,0.677710599559,0.0636862689683,0.0667868584696,0.00790207886673,-0.305743452229,-0.0419160072352,-0.257040388397,0.0373412865878,-0.203004248631,-9.49397659302,0.0163706243038,-0.628095924854,0.376886427402,-4.05601596832,0.242637291551
2017/07/09/10:08:15.134131,447980,1499566097,938950529,,0.81757852891,0.166041439761,0.161461553759,0.730043451969,0.677205891447,0.0624816711157,0.0672664820104,0.0118392245554,-0.300638064358,-0.0488193125057,-0.269171415462,0.0455367251922,-0.189307279142,-10.0423383713,-0.0290389358997,-0.512472987175,0.355682194233,-4.25127315521,0.267666846514
2017/07/09/10:08:15.144246,447981,1499566097,948950259,,0.81806026215,0.163151338394,0.161039830847,0.730375775226,0.67679632182,0.061560327845,0.0686169933077,0.0352633745151,-0.300446131806,-0.0361063498439,-0.26544590312,-0.00625939465019,-0.197818000686,-9.98655986786,0.552838802338,-0.595972537994,0.18710526824,-4.15330123901,0.224566429853
2017/07/09/10:08:15.153900,447982,1499566097,958942335,,0.818349624764,0.160698989554,0.160866397185,0.730786832986,0.676352456054,0.0606762204267,0.0693999726105,0.0269391775337,-0.294057919694,-0.0446727764069,-0.272109235928,0.026084025694,-0.169343794731,-10.1414384842,0.0830438807607,-0.144953146577,0.199507832527,-4.20280504227,0.224013328552
2017/07/09/10:08:15.163975,447983,1499566097,968941586,,0.818048793043,0.157199532918,0.159561661476,0.731520758845,0.675654964508,0.0588346740899,0.070044481862,0.0216061268044,-0.307804897419,-0.0562181085893,-0.283866304693,0.0398677036493,-0.18556975704,-10.3662910461,0.321313112974,-0.590611517429,0.106519475579,-4.21485614777,0.246591135859
2017/07/09/10:08:15.174041,447984,1499566097,978951113,,0.818781138458,0.153778340184,0.159843684651,0.731988065542,0.675064492164,0.0579438637897,0.0715815057938,0.0158048449116,-0.312729907087,-0.0613875967791,-0.300191956677,0.0731293531911,-0.162240787053,-10.4957370758,-0.0883466601372,-0.167388662696,0.283387452364,-4.26993608475,0.320277273655
2017/07/09/10:08:15.184216,447985,1499566097,988951121,,0.819289542451,0.151368045462,0.15905357623,0.732230174161,0.674819546548,0.0566616936716,0.072436207214,0.0278150539983,-0.328459256789,-0.0421370784079,-0.32418065812,0.0577645867117,-0.177770389554,-10.592833519,0.0306986272335,-0.35785895586,0.195000380278,-4.37008047104,0.315066158772
2017/07/09/10:08:15.194349,447986,1499566097,998951360,,0.818758717877,0.148867517376,0.158131143947,0.732658024317,0.674493902665,0.0549231912785,0.0724819821094,0.0209481388658,-0.307091164418,-0.0504361548982,-0.296993096415,0.0876680858779,-0.196852833536,-10.0202121735,0.351856023073,-0.976982235909,0.123156949878,-4.18712615967,0.272349238396
2017/07/09/10:08:15.204372,447987,1499566098,8951507,,0.819226283257,0.145184098233,0.1581428551,0.733327367241,0.673714261253,0.0535750750523,0.0739579473192,0.0063218974679,-0.300838628701,-0.064399932249,-0.344304615943,0.136659533142,-0.140672614675,-8.71581840515,-0.327198654413,-1.19964337349,0.24061922729,-3.7942097187,0.310989886522
2017/07/09/10:08:15.213650,447988,1499566098,18942681,,0.819489556178,0.142966754522,0.157358215098,0.733493050834,0.67360526913,0.0517794043595,0.0745840402691,0.00915771931057,-0.333690578822,-0.0685414989054,-0.372527625018,0.138935852648,-0.145999999749,-7.4141998291,0.561086416245,-1.58025372028,0.0725397020578,-3.40422868729,0.254095286131
2017/07/09/10:08:15.224347,447989,1499566098,28950959,,0.819757096752,0.140312361002,0.156859295297,0.733515983168,0.673598764801,0.0503328388303,0.0754029961634,0.0210651078061,-0.303059619197,-0.0576712687926,-0.335137206605,0.129314330539,-0.149796372793,-7.85579061508,0.582050740719,-1.24151039124,0.0490158051252,-3.54405045509,0.258952528238
2017/07/09/10:08:15.234386,447990,1499566098,38972897,,0.819737865489,0.135878383571,0.155900603805,0.73447700596,0.672590835979,0.04835645941,0.0763331376688,0.0314118130823,-0.302937138382,-0.0482705763989,-0.34008908268,0.105800022143,-0.144225777337,-7.95427083969,0.0282162502408,-1.18018651009,0.093276783824,-3.59774398804,0.312664151192
2017/07/09/10:08:15.244143,447991,1499566098,48940357,,0.819962214193,0.133320665088,0.155481010879,0.735160116794,0.671875662824,0.0471817812548,0.0767891652335,0.0168626691428,-0.315695430567,-0.063148797396,-0.31846792675,0.138688115478,-0.189641004926,-8.09595775604,0.246731251478,-0.845256388187,-0.090259552002,-3.57930183411,0.201705545187
2017/07/09/10:08:15.254153,447992,1499566098,58950183,,0.820119676738,0.131258499584,0.1547696772,0.735024207805,0.672111637973,0.0450818622505,0.0772850938862,0.0424169896245,-0.310627041836,-0.0501798797613,-0.31523771523,0.0929790412987,-0.17537927788,-8.07429695129,0.276110678911,-0.619988381863,-0.0808294042945,-3.49562191963,0.273292779922
2017/07/09/10:08:15.264201,447993,1499566098,68945638,,0.820943252119,0.127442016533,0.154808775552,0.73605920087,0.670884401152,0.0442767182017,0.07855281873,0.0482388382867,-0.311069346145,-0.0344957492434,-0.323695342176,0.0864726321537,-0.186427860655,-7.28883218765,0.170112103224,-0.543325841427,0.0131929852068,-3.21722626686,0.301803082228
2017/07/09/10:08:15.274004,447994,1499566098,78951001,,0.821209870635,0.124690346517,0.154546074403,0.736392206158,0.670520081776,0.0427008723948,0.0794101639735,0.0412398254875,-0.294943318934,-0.0428240900576,-0.317960985197,0.115183434359,-0.15729203684,-7.76591157913,-0.0231286734343,-0.747549772263,0.116029828787,-3.34305691719,0.373981773853
2017/07/09/10:08:15.284269,447995,1499566098,88951374,,0.820937031683,0.121792320496,0.153344853068,0.736965271053,0.670046725487,0.0406039696714,0.0791889674891,0.0247659121419,-0.288907262145,-0.0521510711557,-0.301505135302,0.166236580007,-0.159896451879,-6.4454035759,-0.0807190462947,-1.35671508312,0.0886779427528,-2.84622311592,0.317533046007
2017/07/09/10:08:15.294211,447996,1499566098,98949121,,0.821415499468,0.119523947476,0.152783387722,0.737073143376,0.669949680379,0.0391158811724,0.0797530871771,0.0194595947018,-0.307169393496,-0.0533562856719,-0.302764593905,0.186684525804,-0.184469469962,-6.0992231369,0.325902551413,-1.45113039017,-0.0632888004184,-2.78839635849,0.243874043226
2017/07/09/10:08:15.304183,447997,1499566098,108949591,,0.821829771377,0.116594954416,0.15245553061,0.737867187266,0.66909282664,0.0374997167058,0.0803776992896,0.0158456864322,-0.297007461136,-0.063388131945,-0.279639256698,0.203249382768,-0.195193584542,-5.59241676331,-0.011143758893,-1.37976145744,0.069633923471,-2.59915018082,0.292782247066
2017/07/09/10:08:15.313927,447998,1499566098,118944987,,0.821227517097,0.113492076565,0.152047357,0.738478642084,0.668542357325,0.0349624192893,0.0804862776222,0.0125858462738,-0.290524849423,-0.0505963068414,-0.285351236082,0.215411141854,-0.218661098882,-5.72599697113,0.211790919304,-0.718062102795,-0.0236329063773,-2.5706679821,0.260480195284
2017/07/09/10:08:15.324207,447999,1499566098,128943329,,0.822083487697,0.11155263413,0.151530647096,0.738652048482,0.668345411668,0.0341224760982,0.0808901638051,0.0155477689059,-0.28485666123,-0.0305885204841,-0.287927866973,0.202469847056,-0.211405903006,-5.27761077881,0.651284515858,-0.763339817524,-0.103153169155,-2.43791532516,0.266030311584
2017/07/09/10:08:15.334131,448000,1499566098,138942964,,0.822098528361,0.107562745322,0.151269820504,0.739910627907,0.666988717651,0.0322744049166,0.0813429531282,0.0261462601788,-0.301297217978,-0.0268585252185,-0.273473295127,0.179386020462,-0.22978450442,-5.56966972351,0.382273137569,-0.932233691216,-0.0576973930001,-2.51993775368,0.260608136654
2017/07/09/10:08:15.344019,448001,1499566098,148937833,,0.822007326629,0.105373431006,0.15086438576,0.740275873228,0.66666163479,0.0304253847409,0.0814137100203,0.028918330667,-0.274591312556,-0.0380660597157,-0.245185154874,0.181907348323,-0.213373134358,-5.18836688995,0.00330690294504,-0.967785835266,-4.33512032032e-05,-2.2651860714,0.268834590912
2017/07/09/10:08:15.354275,448002,1499566098,158945941,,0.823181644741,0.103014042077,0.151385060905,0.741102022472,0.665668723562,0.0298569558452,0.0822283706986,0.0219890326914,-0.279209255086,-0.0358418948677,-0.250455434873,0.188130576615,-0.223663413032,-3.89510631561,0.458957254887,-0.653991341591,-0.0537417158484,-1.82137823105,0.222208410501
2017/07/09/10:08:15.363977,448003,1499566098,168939954,,0.823039059692,0.100641794952,0.150565966844,0.741527044798,0.665268617839,0.0279522101142,0.0823042034249,0.0313828266479,-0.273858092314,-0.0213076284882,-0.22790708761,0.169169833279,-0.241067368164,-2.80876374245,0.575092673302,-1.01679682732,-0.0662162080407,-1.38498222828,0.170884296298
2017/07/09/10:08:15.374414,448004,1499566098,178950429,,0.823503383446,0.0976507977927,0.15025172852,0.742389805853,0.66433543589,0.0266549265468,0.0824943614883,0.0196576172021,-0.28725439221,-0.0271806574887,-0.22626569877,0.203892816916,-0.270105791421,-2.40000486374,0.0366370528936,-1.12686514854,0.0368694551289,-1.30213952065,0.207497403026
2017/07/09/10:08:15.384232,448005,1499566098,188965804,,0.823421852293,0.0950355196802,0.150616571314,0.743442805035,0.663230322958,0.0251668282599,0.0823708996285,0.0196960989593,-0.27097546764,-0.0220199212997,-0.190616004614,0.212965679958,-0.273883634551,-1.52984964848,0.388168215752,-0.683404505253,-0.128877714276,-1.01965749264,0.123798921704
2017/07/09/10:08:15.394097,448006,1499566098,198936775,,0.823619766635,0.0926797457524,0.150157178759,0.744357795937,0.662289530893,0.0236492282182,0.082126505476,0.0183480450739,-0.276958836184,-0.00482693952265,-0.177054717031,0.205192614092,-0.300477387896,-2.16211533546,0.141678273678,-1.28894937038,-0.125358149409,-1.34625124931,0.184110701084
2017/07/09/10:08:15.404234,448007,1499566098,208949650,,0.823936782988,0.0897885608883,0.150340727699,0.745369026945,0.661159439496,0.0225988257914,0.0823559488373,0.0260483570008,-0.27389753769,-0.00383990103805,-0.165594863137,0.180400132661,-0.301006396492,-1.63792073727,0.0773359313607,-1.13129222393,-0.201957076788,-1.08183765411,0.132037684321
2017/07/09/10:08:15.413954,448008,1499566098,218938320,,0.824759577126,0.0881417023108,0.150281068918,0.746185540563,0.660266559357,0.0221903731813,0.0822362267365,0.0235085363613,-0.283154934768,-0.0121810507165,-0.162701592457,0.182056602495,-0.317401643387,-0.0618654228747,0.0742261558771,-0.97479403019,-0.102548465133,-0.548219561577,0.117461413145
2017/07/09/10:08:15.424063,448009,1499566098,228942986,,0.825078050176,0.0857592776336,0.149787776492,0.746803401592,0.659610162619,0.0207805782811,0.0822634810041,0.056803449273,-0.245860960902,0.00440588946969,-0.125153253673,0.109391467085,-0.306517927229,1.02233088017,0.211283370852,-1.64117002487,-0.0684721320868,0.0104381814599,0.0644794106483
2017/07/09/10:08:15.434562,448010,1499566098,238945028,,0.825604022138,0.0821916955071,0.150984052153,0.748173546095,0.657995958849,0.0198291662059,0.0829726896644,0.0472712743804,-0.256771205693,0.00319786702359,-0.135501413861,0.133101744873,-0.304097748864,0.708158969879,-0.658190667629,-0.717461407185,0.116024538875,-0.0435275360942,0.0654366910458
2017/07/09/10:08:15.444114,448011,1499566098,248940574,,0.825860868144,0.0805338334532,0.150105431592,0.748977676292,0.657189741956,0.01898687018,0.0823017754649,0.0427155242667,-0.267255913472,0.0149401469265,-0.142996429781,0.125547781629,-0.312982894936,-0.21856738627,-0.132492467761,-1.34309887886,0.0390911102295,-0.334188997746,0.110118672252
2017/07/09/10:08:15.454151,448012,1499566098,258945104,,0.825476273364,0.0769759140488,0.150304763724,0.750609774692,0.655381369614,0.0170239904825,0.0822825026855,0.0349805635048,-0.282797905635,0.0107428686288,-0.130778688724,0.133082378631,-0.356663554694,-0.644672751427,-0.116667099297,-1.18629789352,-0.0931866690516,-0.348746418953,0.0490796789527
2017/07/09/10:08:15.463809,448013,1499566098,268937617,,0.826143473228,0.0755988140346,0.150054311955,0.750804825488,0.655192190471,0.0165609876112,0.0821038443593,0.0391695916621,-0.275272242646,0.0219033318557,-0.134074700624,0.118637771319,-0.352613740864,-0.67986035347,0.867852389812,-0.753980338573,-0.234210938215,-0.38111653924,0.0575512014329
2017/07/09/10:08:15.474510,448014,1499566098,278944553,,0.826908192059,0.0720320943874,0.151179671182,0.752441913938,0.653224432926,0.0158117805849,0.0829397008206,0.034117192128,-0.257701797966,0.0248204043037,-0.087355214651,0.130701473548,-0.34451391596,0.406182348728,0.358692884445,-0.0738483071327,-0.340877532959,-0.0361792966723,-0.0522188469768
2017/07/09/10:08:15.484294,448015,1499566098,288943413,,0.827215492055,0.0700601096176,0.15131122267,0.753817831924,0.651748210287,0.0155482322791,0.0821048057911,0.0323182202244,-0.25036961764,0.0337798831422,-0.0673800992124,0.123945119588,-0.373305418803,0.756991446018,0.157169237733,-0.0709334164858,-0.162402272224,0.0337028577924,0.00247036293149
2017/07/09/10:08:15.494284,448016,1499566098,298950158,,0.827770942488,0.0675640378356,0.151853913008,0.755007154568,0.650352080612,0.0148726918805,0.082372148387,0.0271791016062,-0.270843499868,0.0440233273312,-0.0565456544172,0.11699731077,-0.425079216551,0.935604691505,0.106462240219,-0.437533140182,-0.0996304750443,0.0549481287599,0.0420959033072
2017/07/09/10:08:15.504216,448017,1499566098,308946401,,0.827287633216,0.0659369681523,0.151189593394,0.756012925133,0.649363007757,0.0136505678023,0.0811529616612,0.0296475187428,-0.239509317562,0.0329647014004,-0.0190874583378,0.123628841472,-0.394798082854,0.953043520451,0.701774716377,-1.49400353432,-0.294387489557,0.0576532706618,-0.00406021624804
2017/07/09/10:08:15.514040,448018,1499566098,318945494,,0.827601676525,0.0628876591717,0.151666518827,0.757238823392,0.647936896603,0.0130278261957,0.0812244920746,0.0275634827812,-0.233574697786,0.0127437317966,-0.0166847140786,0.128071456667,-0.382989717173,1.48128151894,-0.330486118793,-1.14098227024,-0.103511638939,0.33381202817,-0.000406619161367
2017/07/09/10:08:15.524008,448019,1499566098,328937208,,0.828514739806,0.0611389644466,0.152349171257,0.758513393986,0.64644674094,0.0132617217567,0.0811675366605,0.0224693505288,-0.250086826423,0.0141691100426,0.00312272227721,0.109777913351,-0.410586030386,2.14940237999,0.290838599205,-0.603260993958,-0.180021226406,0.601125180721,-0.0533818528056
2017/07/09/10:08:15.534307,448020,1499566098,338945324,,0.828651749442,0.0590300425179,0.152613365303,0.759924613363,0.64485862782,0.0127224916072,0.0806850069028,0.0311330741507,-0.258907795974,0.0346578867188,-0.00351724538138,0.0768531235808,-0.430178068282,1.95431602001,0.521954059601,-0.276425182819,-0.155694723129,0.646733820438,-0.0360395871103
2017/07/09/10:08:15.544216,448021,1499566098,348943778,,0.829021913045,0.0557908905027,0.152677467722,0.761166701263,0.643375654272,0.0121698381383,0.0809006515348,0.034297084296,-0.226375216061,0.0297513791363,0.0339163028613,0.0743505080477,-0.40757135428,2.25107598305,-0.0350060090423,-0.257918357849,-0.143733397126,0.761646509171,-0.104542657733
2017/07/09/10:08:15.554113,448022,1499566098,358938663,,0.829204816356,0.0543860580963,0.153146931623,0.762400017356,0.642019903327,0.0118715708917,0.0800982089227,0.0260487612756,-0.238050243879,0.0309040012425,0.0256490802811,0.0818258772592,-0.416121399313,2.43044519424,0.171006530523,-0.11506537348,-0.136998727918,0.854078650475,-0.0883798897266
2017/07/09/10:08:15.564082,448023,1499566098,368936643,,0.829329494268,0.0517375331123,0.153500272693,0.763850830457,0.640341579623,0.0115384517164,0.0797586004618,0.0243697644301,-0.224895202154,0.0310106914955,0.0490328912636,0.084312023568,-0.429567078489,1.63805449009,-0.451919913292,-0.391449809074,0.0288399234414,0.583403408527,-0.0294644348323
2017/07/09/10:08:15.574040,448024,1499566098,378944310,,0.829217780542,0.0494226535191,0.153341218516,0.765224499119,0.638793365861,0.0109016219557,0.0790927071151,0.0212283597032,-0.226513504241,0.0357945785897,0.0477271352284,0.0832026745239,-0.407211883459,2.85920977592,-0.323210567236,-0.925801813602,-0.0114117600024,1.03878176212,-0.0885838270187
2017/07/09/10:08:15.584510,448025,1499566098,388937755,,0.8301921285,0.0473421100021,0.154760188538,0.76626257553,0.637473836609,0.0111087381376,0.0796578239649,0.0164781427693,-0.249963499127,0.0406452132169,0.0525660807802,0.0674073211199,-0.459720927187,3.86815094948,0.192741110921,-0.564125716686,0.0038015244063,1.32378828526,-0.129647091031
2017/07/09/10:08:15.594214,448026,1499566098,398939089,,0.829681520608,0.0454654104564,0.154450466025,0.767760276516,0.635845788708,0.0104845931114,0.0783221813657,0.0271746524542,-0.237090019239,0.0497734613613,0.0532828074968,0.0430520031241,-0.43254169656,4.49589967728,0.0104140210897,-0.633668482304,-0.00329017778859,1.6479268074,-0.183078870177
2017/07/09/10:08:15.604178,448027,1499566098,408936924,,0.830382882872,0.0430812453342,0.155201048965,0.769444320577,0.6338158977,0.0109468941033,0.0781857459158,0.0349869329209,-0.2124016814,0.0466195901639,0.0908995880617,0.0239599802088,-0.444605738297,5.19519853592,-0.433408915997,-0.284117639065,0.0212832260877,1.8942950964,-0.199032977223
2017/07/09/10:08:15.614008,448028,1499566098,418944308,,0.830390599507,0.0413679950017,0.155137329089,0.770576837053,0.632537677145,0.0106828507512,0.0774164187257,0.02795586546,-0.232101163979,0.0469017798371,0.0731604218053,0.0313778124272,-0.460887385076,6.23948335648,-0.0295719280839,-0.874399065971,0.0903806909919,2.17853188515,-0.208752423525
2017/07/09/10:08:15.623957,448029,1499566098,428940507,,0.831058177722,0.0384846082256,0.155549502732,0.771977939584,0.630795112311,0.0111313597975,0.0776123695656,0.0254968512796,-0.215375786022,0.0478876549103,0.0923415012847,0.0326742917753,-0.423333360298,5.71073293686,-1.21605098248,-0.888100981712,0.303233057261,1.99554657936,-0.112351417542
2017/07/09/10:08:15.634426,448030,1499566098,438942504,,0.830761998231,0.0365902890055,0.156573679638,0.773587493918,0.628916865657,0.0109587806491,0.0768496614956,0.0209594656383,-0.254191720845,0.058762131471,0.0816447491125,0.00144060874956,-0.459304861822,4.70743942261,-1.09887218475,-0.318840622902,0.410030990839,1.66481101513,-0.0829340294003
2017/07/09/10:08:15.644308,448031,1499566098,448968526,,0.831132403225,0.0343050052703,0.156587177266,0.774717310514,0.627556654348,0.0109522563576,0.0765883963436,0.00611262297295,-0.242221155462,0.0407454580861,0.0825309919121,0.045400922737,-0.467660534816,4.84627437592,-0.96058011055,0.00267582945526,0.321525067091,1.71966767311,-0.136260598898
2017/07/09/10:08:15.654266,448032,1499566098,458945254,,0.831115912229,0.0319848270531,0.15695541651,0.776085614568,0.625891274298,0.0106198716662,0.0764097503212,0.0226791572319,-0.247197698199,0.0470184890116,0.0780997277921,-0.00452963027974,-0.469383332649,5.06179285049,-0.385531842709,0.123847924173,0.229181408882,1.8912550211,-0.147084876895
2017/07/09/10:08:15.664150,448033,1499566098,468949464,,0.83144919069,0.0293111189852,0.157670508133,0.777565851633,0.624040914565,0.0108855298369,0.0764577567296,0.0217734664457,-0.212819467895,0.0442081204045,0.0831446832956,0.00620631633405,-0.417502793355,4.42389392853,-1.02648115158,0.167196050286,0.278170824051,1.63375353813,-0.123154222965
2017/07/09/10:08:15.673867,448034,1499566098,478945748,,0.831637581498,0.0272583238591,0.158239358052,0.778719827756,0.622633796405,0.0110363249365,0.0761628844335,0.00373557615689,-0.244994602476,0.0441226098845,0.0472875496465,0.0332164159678,-0.439010742214,5.08878660202,-0.672781705856,0.203129202127,0.167637735605,1.92925512791,-0.175377100706
2017/07/09/10:08:15.684322,448035,1499566098,488940083,,0.832457728592,0.0261098703707,0.158841852208,0.779946876384,0.621107989297,0.0116952655398,0.0759668112649,0.00604838443039,-0.250441329468,0.0531149220286,0.0686788020169,0.00495487787183,-0.444849956627,7.13780069351,0.831505596638,-0.400089174509,0.0595818348229,2.74588418007,-0.24746581912
2017/07/09/10:08:15.694146,448036,1499566098,498944245,,0.831929936246,0.0230032122215,0.158982171779,0.781162407399,0.619646624168,0.0111668094532,0.0754894482107,-0.000812467849483,-0.213152014827,0.0300903429716,0.101260084307,0.0418987726822,-0.410065437092,7.73685359955,0.489764362574,-0.502406597137,0.175178676844,2.97987055779,-0.280077427626
2017/07/09/10:08:15.704308,448037,1499566098,508945140,,0.831126096987,0.0205964886961,0.158493435908,0.782899588164,0.617586882596,0.0105419607602,0.0744549821123,-0.00631199330163,-0.253051510769,0.0380597609933,0.0777765835999,0.020910838677,-0.45147760733,7.40913105011,-0.00180370593444,-0.418213248253,0.238339588046,2.82254076004,-0.272108733654
2017/07/09/10:08:15.713978,448038,1499566098,518945303,,0.831783589089,0.0186253219483,0.159625965023,0.783809914189,0.616363926488,0.0108844695818,0.0749603686331,-0.00135660253786,-0.273647586948,0.05687551757,0.0285781894784,-0.0123380247762,-0.461001463045,6.61487007141,-0.418291300535,0.048120316118,0.225964739919,2.5109899044,-0.271491378546
2017/07/09/10:08:15.724003,448039,1499566098,528957185,,0.831323584601,0.015935687299,0.159303194008,0.78556253859,0.614220625817,0.0106462366885,0.0742373115789,0.00977329615954,-0.258925068277,0.0575896155753,0.0524302698376,-0.0390359290523,-0.457998123854,6.84888219833,-0.552001476288,0.599428832531,0.113918863237,2.61711621284,-0.314102947712
2017/07/09/10:08:15.734271,448040,1499566098,538936971,,0.831543668333,0.0123618518534,0.160697732881,0.786978133799,0.61229717504,0.0107413453719,0.0751146447778,-0.00392559831739,-0.25827360842,0.0511846189761,0.0551481999772,-0.0158301828579,-0.463336678645,5.78184747696,-0.242635548115,0.593911528587,-0.0253243334591,2.15181303024,-0.302547514439
2017/07/09/10:08:15.744414,448041,1499566098,548983811,,0.83155543844,0.0106874111678,0.160893367302,0.78821406421,0.610770130886,0.0112055365731,0.074517596243,-0.0147478981942,-0.27348597254,0.0392213993303,0.0428887271384,0.00545517739752,-0.464005668517,5.04503154755,-0.13427965343,0.334557592869,0.0389137007296,1.79311680794,-0.21567080915
2017/07/09/10:08:15.754179,448042,1499566098,558945592,,0.831434545983,0.0083968849167,0.161611773874,0.789360807095,0.609294739691,0.0111745525509,0.0744618411185,-0.0130056618958,-0.259126417516,0.0432778408869,0.050309904823,-0.0117711818859,-0.43961855707,6.43049430847,-0.575027108192,0.0438285730779,0.163519993424,2.34853625298,-0.298596531153
2017/07/09/10:08:15.763875,448043,1499566098,568940980,,0.831375506446,0.00545604793618,0.162112321365,0.790783809736,0.607441094412,0.0114152428153,0.0744713052778,0.00292452833813,-0.253379850487,0.0602265303537,0.0424047364129,-0.0620521403166,-0.425106460893,6.33697986603,-0.58338457346,-0.0226782597601,0.291476011276,2.34515452385,-0.248363465071
2017/07/09/10:08:15.774221,448044,1499566098,578945264,,0.831545014611,0.00295853644597,0.162659784092,0.791905874895,0.605940814809,0.011778090428,0.0747133913152,0.0119905589208,-0.252174963983,0.0589730522473,0.0371710121837,-0.0886589880852,-0.411375846813,6.19391965866,-1.15483248234,0.0160025395453,0.631697535515,2.365473032,-0.182414352894
2017/07/09/10:08:15.784544,448045,1499566098,588943276,,0.831861983824,5.29284858146e-05,0.163668436824,0.793232914087,0.604096571793,0.0120879196502,0.0755166084782,0.0166477483398,-0.269144895177,0.0616037265892,0.0281358095398,-0.119069172758,-0.431065539757,5.28426647186,-2.00521802902,-0.0970586389303,1.02300918102,2.07215118408,-0.119166180491
2017/07/09/10:08:15.794279,448046,1499566098,598944405,,0.831624547527,-0.00177665451059,0.163533210636,0.794467819452,0.602558436065,0.0127010769093,0.0747187903208,0.0106353756743,-0.27455029231,0.0614873360548,0.036767143465,-0.120643093658,-0.434913496156,4.53343057632,-2.54047632217,0.0704652518034,1.33899402618,1.79966902733,-0.0195218920708
2017/07/09/10:08:15.804224,448047,1499566098,608972045,,0.83151624712,-0.00471566125853,0.164141856131,0.795564597781,0.601057849187,0.0127390965259,0.0751275455967,-0.00764794160676,-0.266148158117,0.0572285883762,0.0717732268542,-0.0946355394884,-0.423392450502,4.17951583862,-2.32911968231,0.0674488693476,1.19899570942,1.65753030777,-0.0651294589043
2017/07/09/10:08:15.814018,448048,1499566098,618942514,,0.831577882277,-0.00658265599159,0.164661038997,0.796818863436,0.599403356674,0.0134051292463,0.0749374231637,0.00255197862321,-0.25022675063,0.063509510947,0.0830831397589,-0.118889500184,-0.417911263524,3.80427384377,-1.72342669964,0.186343431473,0.853828907013,1.55136394501,-0.100051403046
2017/07/09/10:08:15.824085,448049,1499566098,628940790,,0.832200556273,-0.00935156511665,0.165678649321,0.798187735656,0.597442243394,0.0144888399584,0.0758233339679,0.00162526346313,-0.238043432759,0.0528499663488,0.0683063536026,-0.107821335095,-0.407542763626,5.22245788574,-1.29165077209,0.162972822785,0.537687003613,2.09518432617,-0.252428621054
2017/07/09/10:08:15.834522,448050,1499566098,638945143,,0.832248912271,-0.0112021135087,0.166009421061,0.799046761619,0.596277417292,0.0147450175436,0.0758953149529,0.0146553201207,-0.259470821975,0.0736837463063,0.0504522302373,-0.174988684198,-0.437338886205,6.04713201523,-0.782161712646,0.134990721941,0.230108976364,2.41045188904,-0.350809752941
2017/07/09/10:08:15.844512,448051,1499566098,648941111,,0.832569617999,-0.0135561837687,0.166053678707,0.800230458349,0.594644658696,0.0155814210408,0.0760668307047,0.0195997456173,-0.255831466706,0.0586128087557,0.0649604225666,-0.18527021711,-0.42089577742,7.05519342422,-0.882384300232,0.186818987131,0.268599480391,2.79197263718,-0.37783023715
2017/07/09/10:08:15.854207,448052,1499566098,658936774,,0.832664538108,-0.0163055042305,0.166729513309,0.801454133963,0.592926893736,0.0164019841212,0.0764195312419,0.0059886743583,-0.260947217711,0.0313979601181,0.0444936595025,-0.147996346144,-0.391154730146,4.72678136826,-2.51986885071,0.795412480831,0.470970094204,1.90101218224,-0.297401458025
2017/07/09/10:08:15.864097,448053,1499566098,668942137,,0.832458476156,-0.019381106104,0.167010161472,0.802645293357,0.591211809977,0.0165675411603,0.0771663487244,0.0208903133008,-0.265720105493,0.0501222558071,0.0206619615361,-0.192600704397,-0.396801375279,3.70711684227,-2.57431077957,0.445127099752,0.502690315247,1.57088160515,-0.214236974716
2017/07/09/10:08:15.874030,448054,1499566098,678945109,,0.832889526797,-0.0213570559322,0.167589498732,0.803492600592,0.589997251115,0.017570055505,0.0774220744991,0.0124730079652,-0.290276315745,0.0442851757456,-0.0328871092405,-0.185268955699,-0.398137281844,4.56254291534,-1.99946308136,0.831707000732,0.469818472862,1.82639193535,-0.271704107523
2017/07/09/10:08:15.884368,448055,1499566098,688941040,,0.833610961773,-0.0242040288355,0.168152739207,0.804314904593,0.58866601062,0.0184941906138,0.0787897652271,0.026423967538,-0.271560865368,0.0427366306016,-0.000485214257863,-0.216666284806,-0.363276371901,4.31119298935,-1.78072619438,0.305681675673,0.535936117172,1.63384532928,-0.168321222067
2017/07/09/10:08:15.894107,448056,1499566098,698955638,,0.833958257149,-0.0265019333093,0.168410018619,0.80545125368,0.587005185022,0.0193863149866,0.0793559165703,0.025474937192,-0.28290773416,0.0358377946677,-0.00501715221249,-0.230514624216,-0.348268893873,5.45762443542,-2.03026223183,-0.0294110476971,0.780117154121,2.10115361214,-0.146560266614
2017/07/09/10:08:15.903995,448057,1499566098,708941087,,0.833712069785,-0.029620001716,0.168491338616,0.806347802545,0.585692221807,0.0195542512853,0.0799091603146,0.0388201858362,-0.259914980767,0.0372797551816,0.00680716748172,-0.258306333699,-0.333269264115,5.14106655121,-2.80136537552,-0.199689596891,0.931920111179,2.06195068359,-0.155737504363
2017/07/09/10:08:15.914117,448058,1499566098,718944814,,0.834251895318,-0.0319650054417,0.169057449411,0.807104023303,0.58451025353,0.0207582575165,0.0806222911555,0.0365214534907,-0.271548842162,0.0430632334626,-0.0169254180894,-0.253449734144,-0.320380990972,5.15429925919,-2.51022863388,0.0636572614312,0.706513166428,2.14644122124,-0.215547591448
2017/07/09/10:08:15.924062,448059,1499566098,728943488,,0.834488477105,-0.0340328712646,0.169507529443,0.807827727639,0.583403915396,0.0214522997658,0.0812036501236,0.00670843115916,-0.294207337571,0.0265082602562,-0.0158948438988,-0.200079795036,-0.354815407253,5.97039413452,-1.10942196846,0.43303579092,0.173222884536,2.49796080589,-0.390935540199
2017/07/09/10:08:15.934379,448060,1499566098,738943256,,0.834347561788,-0.0370084520837,0.169238605241,0.808975500439,0.581740741495,0.0216987970482,0.0816425843663,0.0144230085529,-0.235846588923,0.0176648037472,0.00579279822528,-0.17567174082,-0.279275584705,7.55660104752,-0.741643667221,0.703085422516,-0.312934994698,3.1722650528,-0.544380247593
2017/07/09/10:08:15.944260,448061,1499566098,748955078,,0.834162018437,-0.0395940788573,0.169402715143,0.809687864421,0.580669025215,0.0218594747022,0.0821657393954,0.00594930801603,-0.251952259091,0.0240551556079,0.00136945498304,-0.168574696994,-0.302243802109,7.11439228058,-0.14348974824,0.322256416082,-0.574886441231,3.07348942757,-0.597932398319
2017/07/09/10:08:15.954237,448062,1499566098,758946967,,0.834156509227,-0.0413441717983,0.169628589702,0.810476800265,0.579515596415,0.0223445691902,0.0823999391475,-0.00233421668958,-0.239591196423,0.0128539355321,-0.00394202513845,-0.13758869952,-0.299777897408,7.30472803116,-0.903523087502,0.443002521992,-0.250392198563,3.10535645485,-0.549387633801
2017/07/09/10:08:15.964171,448063,1499566098,768940600,,0.834042100317,-0.0434243024853,0.169251275715,0.810964964364,0.578793143572,0.0227162010466,0.0825729843075,-0.0167716956483,-0.265893294397,0.0151000276356,-0.0256937934467,-0.129880229044,-0.334743974743,6.39395046234,-0.997856855392,-0.112075597048,0.0528668165207,2.60026884079,-0.408703476191
2017/07/09/10:08:15.974108,448064,1499566098,778945088,,0.833940909942,-0.0463961020118,0.169834817293,0.812082780649,0.577063947216,0.02281277424,0.0836560549434,-0.0295996685073,-0.282228963448,0.000906803485235,-0.0464478475024,-0.100452824495,-0.318608247753,6.21508836746,-2.07481074333,0.725519180298,0.523447096348,2.52864122391,-0.311132073402
2017/07/09/10:08:15.984312,448065,1499566098,788947063,,0.833126206308,-0.0491862979396,0.169347800303,0.81296010881,0.575836572579,0.0226562697872,0.0836349006287,-0.0114395475593,-0.24896698181,0.0124288085379,-0.0568007072526,-0.121825422537,-0.285288789725,4.42995643616,-2.48675775528,0.00225438177586,0.581520080566,1.91646814346,-0.21449059248
2017/07/09/10:08:15.994092,448066,1499566098,798948973,,0.833263217891,-0.0509914942931,0.169257558373,0.813968747036,0.57433598924,0.0232075600161,0.0839908296752,-0.0206134792191,-0.239580252272,-0.00887256313451,-0.016108415969,-0.10375996312,-0.293253529045,4.20730495453,-1.36051750183,-0.00957107916474,0.320692360401,1.75366687775,-0.252022027969
2017/07/09/10:08:16.004164,448067,1499566098,808948777,,0.832799308484,-0.0533373581455,0.169283197261,0.814801932913,0.57313191989,0.0235151319913,0.0840514788239,-0.0128671466765,-0.199567695305,-0.00740301923946,0.0312151468898,-0.113138923924,-0.275362369345,3.37487721443,-0.858868718147,0.152992635965,0.0859093889594,1.49137783051,-0.240971431136
2017/07/09/10:08:16.014106,448068,1499566098,818950940,,0.83249236663,-0.0552116892533,0.168944530955,0.815606541436,0.571960941973,0.02353524171,0.0842184232931,-0.0331361770447,-0.195662622572,-0.029849065237,0.0709708552304,-0.072474143962,-0.310801717289,3.54634261131,-1.21308946609,0.319996416569,0.0801310911775,1.62818288803,-0.315516352654
2017/07/09/10:08:16.023995,448069,1499566098,828951091,,0.83241477683,-0.0566892118059,0.168882800646,0.816085426157,0.571234995376,0.0237667194331,0.0844411056284,-0.0305944936104,-0.195643063279,-0.0235368519082,0.0495510443695,-0.0749588302035,-0.315350266149,3.21154117584,-0.377026200294,0.630747675896,-0.115811988711,1.45370769501,-0.291674405336
2017/07/09/10:08:16.034404,448070,1499566098,838944852,,0.832236944806,-0.05914402515,0.169166313307,0.817112462032,0.569685205145,0.0244645627457,0.0847789867849,-0.0420084210564,-0.200972363783,-0.017213620924,0.0438766179014,-0.0573744310471,-0.29965253092,3.45514988899,-1.35619997978,0.766824007034,0.196431919932,1.52607667446,-0.251470863819
2017/07/09/10:08:16.044241,448071,1499566098,848949302,,0.831584883414,-0.0601904844231,0.168435743863,0.817715461978,0.568923140315,0.0243116250643,0.0841238880701,-0.0440766695001,-0.197309596456,-0.0137922897576,0.0276264148151,-0.045597716318,-0.278495349972,1.90119206905,-0.796203970909,0.0342800319195,0.0771259590983,0.878885984421,-0.199241220951
2017/07/09/10:08:16.054147,448072,1499566098,858951334,,0.831041521661,-0.0624153283753,0.168497676253,0.818518881857,0.567716039798,0.0244637090112,0.0844207624975,-0.0555599049679,-0.18392110352,-0.0205201944658,0.030227815207,-0.00861913948917,-0.273377348826,2.6255967617,-0.61992752552,0.152328029275,0.00709541141987,1.0559887886,-0.188622489572
2017/07/09/10:08:16.064149,448073,1499566098,868945231,,0.83012065221,-0.0644679187505,0.1675544204,0.819143544567,0.56686194776,0.02359845996,0.084347485222,-0.0641363973371,-0.174765491265,-0.0408898263737,0.0120882134193,0.0284275260173,-0.251006896777,2.90346550941,-1.4619063139,-0.47185999155,0.109701529145,1.2219285965,-0.240988329053
2017/07/09/10:08:16.073970,448074,1499566098,878942878,,0.829467715142,-0.0663781566149,0.167497398939,0.820125735875,0.565444211661,0.023812556276,0.084259023368,-0.0813250725333,-0.205748196875,-0.0459095872382,0.0075263753092,0.033662071927,-0.270654515114,3.13826012611,-1.17213892937,0.127839192748,0.127526581287,1.25510501862,-0.207960098982
2017/07/09/10:08:16.084003,448075,1499566098,888938911,,0.829639254722,-0.0661565041859,0.167212750492,0.820121847568,0.565500714194,0.0243138281006,0.0837731171127,-0.0572172370448,-0.160789470411,-0.0363421201612,0.0377325054668,0.00201673259555,-0.224770550793,3.45398402214,0.0303647518158,0.126783534884,-0.110983163118,1.40343677998,-0.28877812624
2017/07/09/10:08:16.094085,448076,1499566098,898950501,,0.829077860434,-0.0683789734035,0.167274220744,0.820920548468,0.564289794445,0.0244651135364,0.0840710366786,-0.0453331232884,-0.144933417224,-0.0299346592236,0.0327223625288,-0.0186161279887,-0.199786658085,2.7240395546,-0.893630623817,0.703929543495,0.0585498511791,1.20748019218,-0.227403521538
2017/07/09/10:08:16.104290,448077,1499566098,908940071,,0.827803218561,-0.0701751700103,0.166326870421,0.821649429317,0.563319528738,0.0235830497163,0.0837088024705,-0.0869456042469,-0.188915727081,-0.050984423775,0.0127763944286,0.0497409420501,-0.255007839903,1.12684500217,0.0546471327543,0.10100607574,-0.179125502706,0.544016361237,-0.185971856117
2017/07/09/10:08:16.114072,448078,1499566098,918962665,,0.827189701416,-0.0720480157156,0.166048569821,0.822350416648,0.562278152955,0.023653697457,0.0838067631242,-0.0792625219968,-0.171143144667,-0.0639380680373,0.0350957240358,0.0420505609274,-0.235078893715,1.43631362915,-0.49393683672,0.132322207093,0.0155403167009,0.728625416756,-0.176440536976
2017/07/09/10:08:16.123992,448079,1499566098,928943190,,0.827038243396,-0.072541540438,0.165461392934,0.822651504081,0.56188246554,0.0240195044279,0.0834006064627,-0.0553309912723,-0.129971255951,-0.0501504397949,0.0312745361443,0.0137089183751,-0.178124571714,0.956481635571,0.100880518556,0.204822182655,-0.169151082635,0.601625204086,-0.163959771395
2017/07/09/10:08:16.134330,448080,1499566098,938943902,,0.825297654501,-0.0746729329357,0.16453338834,0.82340155657,0.560934739173,0.0231120762066,0.0826312710837,-0.0667251251984,-0.156362535734,-0.0464387850075,0.0272181795004,0.0111076668667,-0.201681245218,2.25638818741,-0.171784475446,0.519349813461,-0.0575788021088,1.18907606602,-0.24955637753
2017/07/09/10:08:16.144183,448081,1499566098,948936633,,0.82518684092,-0.0755829714403,0.164027383592,0.823915004367,0.56015733867,0.0233000441731,0.0827340888342,-0.0801676448826,-0.14363104904,-0.0563296101881,0.0298233834864,0.0573350829631,-0.190730459842,3.07841873169,-0.515903234482,0.471459895372,0.166112869978,1.40550780296,-0.202821299434
2017/07/09/10:08:16.154346,448082,1499566098,958940382,,0.824243821886,-0.0771017084343,0.163710237403,0.824388985386,0.559526318957,0.0231250987425,0.0823306077748,-0.0767834581696,-0.128491209924,-0.057861481743,0.036921898485,0.0670390806768,-0.171601932883,2.23680686951,-0.540067017078,0.451601982117,0.169230252504,1.10906469822,-0.170112937689
2017/07/09/10:08:16.163982,448083,1499566098,968950417,,0.823674615727,-0.0781452825264,0.163447212749,0.824788988507,0.558979863262,0.0232490050726,0.0820007357843,-0.0777589912196,-0.123045933072,-0.0523728241804,0.049000203915,0.0667656693431,-0.173360209811,3.17998886108,-0.594425439835,0.164161890745,0.196567177773,1.40182423592,-0.226038783789
2017/07/09/10:08:16.174031,448084,1499566098,978937344,,0.821851333051,-0.0803920731547,0.162162212799,0.825757625431,0.557696744732,0.0216408616591,0.0814270106619,-0.0931836296327,-0.154826619739,-0.0476498995653,0.0456381308587,0.0693715357062,-0.234557263535,1.8004193306,-0.874159514904,0.106654554605,0.162384286523,0.962195217609,-0.173414647579
2017/07/09/10:08:16.184645,448085,1499566098,988944478,,0.821662958226,-0.0811142521086,0.162041075922,0.826147289098,0.557103315275,0.0218917954117,0.0814696392491,-0.0892181789643,-0.143479237382,-0.0508559072746,0.0208995954225,0.0820983996796,-0.214956554653,1.53180444241,-0.138072162867,0.346063226461,0.0463973507285,0.758274376392,-0.17409157753
2017/07/09/10:08:16.194198,448086,1499566098,998951290,,0.821567776986,-0.0812047739406,0.161531493374,0.826180955442,0.557113845436,0.0223689158216,0.0809248027126,-0.065812998042,-0.0957859287304,-0.0596376891226,0.0594314814935,0.0595323983306,-0.143042144534,2.82002425194,0.0170983970165,0.443126142025,0.0244846045971,1.2687305212,-0.234569326043
2017/07/09/10:08:16.204132,448087,1499566099,8944475,,0.820559138646,-0.0829179146973,0.160858296558,0.826912769241,0.556093842193,0.0218948053916,0.0805948400189,-0.0605414614914,-0.102908673952,-0.0535710283691,0.0452184223847,0.0431924665948,-0.143145833256,2.63232326508,-1.00154519081,0.496912837029,0.318505823612,1.28202331066,-0.174619928002
2017/07/09/10:08:16.213967,448088,1499566099,18950779,,0.820196770999,-0.084052321308,0.160852158538,0.827166883332,0.555685578982,0.0218072318836,0.0808265369058,-0.0817262381056,-0.14606950023,-0.0521998262008,0.028681618916,0.0617038919635,-0.188278198323,2.88398480415,-1.17217421532,0.426572680473,0.37649050355,1.31355750561,-0.182888686657
2017/07/09/10:08:16.223878,448089,1499566099,28963935,,0.819736512231,-0.0852759674905,0.160336983115,0.827986745825,0.55449302136,0.0222761797123,0.080493538988,-0.0707997065656,-0.138569697087,-0.0423402626735,0.0339935882614,0.0338920273028,-0.183734827637,2.48577523232,-0.726904630661,0.479292869568,0.242442935705,1.09143352509,-0.176349163055
2017/07/09/10:08:16.234284,448090,1499566099,38948745,,0.818941552337,-0.0866147717761,0.160123352465,0.828065104118,0.554403861593,0.0218031569758,0.0804311130058,-0.0446762297735,-0.0781495732643,-0.0306586458729,0.070033893432,0.0085275825696,-0.133330089357,2.23406529427,-0.834812879562,0.632057249546,0.150039926171,1.06582260132,-0.202500686049
2017/07/09/10:08:16.244228,448091,1499566099,48945395,,0.81841313046,-0.0880356397899,0.15969899424,0.828789284179,0.553321832155,0.021697799351,0.0804517121934,-0.0612472207809,-0.115107883717,-0.0342601680925,0.0481673720057,0.0216446795394,-0.174761073248,1.67592847347,-0.777950108051,0.0577736087143,0.200296804309,0.844360470772,-0.151448741555
2017/07/09/10:08:16.254332,448092,1499566099,58952086,,0.817906130749,-0.0875016711632,0.158775621036,0.829005164729,0.553179542644,0.0219234280941,0.0791340239992,-0.0803334419428,-0.125889089695,-0.0519096433003,0.0440130964062,0.0677425020753,-0.193310480052,0.061246342957,-0.427696883678,0.366516649723,0.0731514543295,0.212253957987,-0.107106178999
2017/07/09/10:08:16.264062,448093,1499566099,68941413,,0.817089718188,-0.0894773654853,0.158741431192,0.829581210276,0.55228972935,0.021288480508,0.0794850363859,-0.0568173233861,-0.110724226023,-0.0256455252873,0.0181973184737,0.0246656012933,-0.161641072657,1.53852331638,-0.771537423134,0.333866000175,0.11400103569,0.859534800053,-0.166632056236
2017/07/09/10:08:16.273878,448094,1499566099,78940728,,0.81676349298,-0.0895218228095,0.158762481932,0.829605501807,0.552312313549,0.0213002922633,0.0790703308706,-0.0553043674594,-0.0832568853201,-0.0485546663972,0.0180977619316,0.060179763061,-0.102758281355,2.7254691124,-0.0074078887701,0.558807969093,0.0290179774165,1.27378082275,-0.246379256248
2017/07/09/10:08:16.284310,448095,1499566099,88939815,,0.815866294976,-0.0916112582137,0.158479570835,0.830170921109,0.551448927812,0.0209410260824,0.0792577768221,-0.0599612052138,-0.0893274810533,-0.0390076104971,0.0155606220383,0.0608686287378,-0.111128194938,0.621346473694,-0.894649207592,0.935030400753,0.184559077024,0.513855576515,-0.123213201761
2017/07/09/10:08:16.294086,448096,1499566099,98942968,,0.815299450329,-0.0925731214627,0.158184850387,0.830621635255,0.550808748849,0.0209548268831,0.0789830137892,-0.0706709912652,-0.104841283075,-0.0420687216717,0.0326645498475,0.061763637095,-0.121100460669,-0.159297525883,-0.67410326004,1.05715417862,0.111449979246,0.166873812675,-0.0972082540393
2017/07/09/10:08:16.304170,448097,1499566099,108969456,,0.814984708549,-0.0928605850379,0.157481888505,0.830379940653,0.551216738757,0.0206017833498,0.0787707280542,-0.0659373315638,-0.133071231071,-0.0313495437991,0.0197775530994,0.0192179244291,-0.137711181133,1.39215290546,-0.398216217756,0.50624859333,0.229007586837,0.773609936237,-0.161255434155
2017/07/09/10:08:16.314193,448098,1499566099,118950055,,0.814664329129,-0.0930696869599,0.156383475368,0.830778051878,0.550705385977,0.0205599143995,0.0781581492468,-0.0482171280117,-0.0946829349267,-0.0302213999869,-0.0156642982708,0.0348959526123,-0.0508729828777,1.41228020191,0.286417067051,0.285595178604,-0.0207710713148,0.746861517429,-0.167857095599
2017/07/09/10:08:16.323825,448099,1499566099,128941339,,0.813993493772,-0.0944877787236,0.156491647433,0.831082671655,0.550242629463,0.0203123759064,0.0782435235679,-0.0444897734382,-0.0818238975398,-0.0521695805376,0.0401959802583,0.0341844913141,-0.0769694538428,1.71374762058,0.0516664236784,0.241642996669,-0.0370903760195,0.894848644733,-0.226767331362
2017/07/09/10:08:16.334500,448100,1499566099,138953062,,0.812949032127,-0.0963855840292,0.156158408061,0.831920413705,0.549021055012,0.0202869282786,0.0779278317121,-0.0486932882448,-0.0926693407209,-0.0393959811409,0.0383043244999,0.0241300296521,-0.118269287295,0.357423603535,-0.186264708638,0.541360557079,-0.129603311419,0.508626103401,-0.190712913871
2017/07/09/10:08:16.344458,448101,1499566099,148938582,,0.813078118888,-0.0963043577164,0.155933376383,0.831634154563,0.549449088311,0.0202958192713,0.0779641715047,-0.0557367859256,-0.0924727334057,-0.0378043195989,0.0376072830328,0.0413882210663,-0.144285541906,-0.859846413136,1.46953141689,0.21468681097,-0.528675675392,-0.163754507899,-0.142107844353
2017/07/09/10:08:16.354157,448102,1499566099,158976193,,0.812337507144,-0.0969589752413,0.155571344995,0.83215298212,0.548738084737,0.0198357530055,0.0775530245175,-0.0576872649557,-0.0809258103544,-0.0279607546184,0.0135784260384,0.0579185079744,-0.112000936339,-1.37746226788,1.67169690132,0.176392838359,-0.629740893841,-0.308375418186,-0.164270535111
2017/07/09/10:08:16.364141,448103,1499566099,168944424,,0.811938726107,-0.0978990011684,0.155521956262,0.83218179303,0.548678268077,0.0197551349181,0.0776875545547,-0.0683112738295,-0.0702467268392,-0.0347783304629,0.0232768125149,0.0905435073345,-0.0951695449345,-0.401438206434,0.410244047642,1.01303040981,-0.23426181078,0.0433217808604,-0.159302741289
2017/07/09/10:08:16.374151,448104,1499566099,178945233,,0.811594773041,-0.0977750362976,0.155249412162,0.832334908321,0.548521957877,0.0196867180125,0.0771666718947,-0.0631731837275,-0.0701585549278,-0.0344309470858,0.0268076902381,0.0681772280297,-0.112486819416,0.871724247932,0.0543555468321,1.34478735924,-0.0165553577244,0.484639436007,-0.145975083113
2017/07/09/10:08:16.384230,448105,1499566099,188960126,,0.810853563633,-0.098269814123,0.1544018282,0.832451182917,0.548441157953,0.0192613105965,0.076591946295,-0.0340781081382,-0.0319443221257,-0.0320567575031,0.0484220194194,0.0342196380161,-0.0413458566846,2.56117582321,-0.44865205884,1.12140905857,0.269874900579,1.10449385643,-0.19713768363
2017/07/09/10:08:16.394125,448106,1499566099,198939897,,0.810030551032,-0.0998877890407,0.154115855092,0.833390324338,0.547054583139,0.0192976896963,0.0762853166723,-0.0506479113955,-0.0450976897439,-0.0443229345187,0.053860244476,0.0644225059508,-0.0584299261594,2.35321378708,-1.4976170063,1.07120144367,0.456175148487,1.06139743328,-0.171807706356
2017/07/09/10:08:16.404174,448107,1499566099,208988688,,0.809317513854,-0.099777301539,0.153438540533,0.833336836535,0.547257493757,0.0186112946118,0.0755815593491,-0.0620338974597,-0.0668044265805,-0.0348098648008,0.0541067686562,0.069448693927,-0.106816454437,1.37591123581,-0.750953137875,0.95649677515,0.258733510971,0.659659743309,-0.118497878313
2017/07/09/10:08:16.414104,448108,1499566099,218959113,,0.809843616401,-0.100380639799,0.153874609526,0.833557337796,0.546816245756,0.0195811099402,0.076096899524,-0.05298912197,-0.0842370302077,-0.0354702324745,0.0112032175899,0.0430395088748,-0.112095771649,2.2547492981,-0.457679510117,1.24651324749,0.207633674145,0.880603551865,-0.167274028063
2017/07/09/10:08:16.424295,448109,1499566099,228951180,,0.808887379121,-0.101863592906,0.153522974425,0.834080836689,0.546040398383,0.0187616089298,0.0761383164553,-0.0319069616763,-0.0444851610217,-0.0381753177693,0.0310643581128,0.0357302768479,-0.0771661887161,1.67226552963,-0.924602985382,1.06212806702,0.15187124908,0.819205522537,-0.164226949215
2017/07/09/10:08:16.434532,448110,1499566099,238951897,,0.809181797536,-0.100902706207,0.1534191165,0.833859207408,0.546421175327,0.0191170741011,0.0757446952127,-0.0209469132726,-0.0404168094661,-0.0237863138257,0.00254081051505,0.0188775776087,-0.0478165274769,1.70319199562,-0.184051424265,1.40332818031,0.00742770731449,0.757210612297,-0.194363296032
2017/07/09/10:08:16.443905,448111,1499566099,248938049,,0.808638641718,-0.101594547753,0.152813126243,0.834146628368,0.546032443213,0.0187886833687,0.0754649502588,-0.0225836031182,-0.0198266932052,-0.0239768457467,0.0230542948538,0.0350163980994,-0.0306204197027,0.414696872234,-0.0317713469267,0.774104237556,-0.0856807678938,0.284206926823,-0.161096125841
2017/07/09/10:08:16.454227,448112,1499566099,258950602,,0.808737779944,-0.10208681297,0.153025657904,0.834099004332,0.546059632271,0.0191031753564,0.0757152406524,-0.0345410841457,-0.0401081439827,-0.0229712001897,0.0191936206042,0.0422141043136,-0.0615550299331,0.896639227867,-0.655969083309,1.1367906332,0.126702934504,0.39544147253,-0.12926389277
2017/07/09/10:08:16.464125,448113,1499566099,268939332,,0.808220317459,-0.10296844874,0.152716915683,0.834358571422,0.545675295743,0.018699945127,0.0757268642096,-0.0400390116306,-0.0502452469381,-0.0220602396287,0.0259599726958,0.0377711508625,-0.088258437701,1.53799545765,-0.972322225571,0.616850972176,0.301396071911,0.572817504406,-0.142632588744
2017/07/09/10:08:16.474106,448114,1499566099,278943131,,0.807587775975,-0.103394486041,0.152388902329,0.834712977323,0.545209517036,0.0183757140409,0.0752539776799,-0.0299541698502,-0.0411206203208,-0.0264862541442,0.0294798388018,0.0275646765206,-0.0639012136603,1.86446726322,-1.25589048862,0.480924785137,0.392036169767,0.709901034832,-0.112783022225
2017/07/09/10:08:16.484754,448115,1499566099,288938136,,0.807464562712,-0.103032314922,0.151958261215,0.834574383688,0.545497370705,0.0186022500629,0.0746469888082,-0.0304956631374,-0.0477639108235,-0.0173567886421,0.0102165551456,0.023716458779,-0.0608360582785,2.12789034843,-0.366832852364,1.10379481316,0.268559932709,0.759778678417,-0.144747793674
2017/07/09/10:08:16.494282,448116,1499566099,298942207,,0.807415317859,-0.103173649007,0.15196760197,0.834767218837,0.545191453534,0.0184798691472,0.0747560284203,-0.0241933147048,-0.0309345430634,-0.0173271096887,0.0129673306184,0.0228638689517,-0.0496398536104,1.10836958885,-0.0768572539091,0.790365815163,-0.0370518267155,0.434120714664,-0.162923544645
2017/07/09/10:08:16.504087,448117,1499566099,308938955,,0.807210411845,-0.103867948336,0.151948767813,0.835033127234,0.544766486307,0.0185722396923,0.0748613634107,-0.0237909576438,-0.0234353757278,-0.0298133820769,0.0169263783951,0.0410641384335,-0.0298048885184,1.83409404755,-0.641471147537,1.08581268787,0.154795363545,0.780735731125,-0.177137941122
2017/07/09/10:08:16.514080,448118,1499566099,318946772,,0.806706157891,-0.103880385986,0.15137443546,0.835221845565,0.544572260243,0.0181838554792,0.0742621671156,-0.0282830800445,-0.0421254444168,-0.019983096307,0.00273148773308,0.0270788636629,-0.0678532974771,0.626993834972,0.00835132598877,0.878935158253,0.0215113312006,0.257760226727,-0.129095494747
2017/07/09/10:08:16.523889,448119,1499566099,328938860,,0.806922498347,-0.103865957021,0.151495570381,0.835038070927,0.544820030914,0.018514093346,0.0744297142593,-0.0206599516274,-0.0304387928399,-0.0227597627106,-0.0015649175981,0.0272741633755,-0.0353297284671,1.17304825783,0.109531320632,1.55868005753,-0.00848287343979,0.442483752966,-0.151374936104
2017/07/09/10:08:16.534406,448120,1499566099,338972047,,0.806782519809,-0.104261829737,0.151683670167,0.835091787228,0.544720532676,0.0183345470751,0.0745995480473,-0.00873986206006,-0.0144736688296,-0.00516460210683,0.00799559280032,0.00490533850309,-0.0269084334722,1.0100594759,-0.193089559674,1.46813440323,0.0916471928358,0.405348092318,-0.148081868887
2017/07/09/10:08:16.544127,448121,1499566099,348942207,,0.806360097221,-0.104047228828,0.150770928611,0.835002871168,0.544942553361,0.0176868562557,0.0741282253437,-0.00521607625076,-0.0100461152543,-0.00413303790807,0.00522446829036,-0.00200268592823,-0.00436856225295,0.94762057066,-0.0248182415962,0.675841033459,0.0524508655071,0.384147793055,-0.130572110415
2017/07/09/10:08:16.554131,448122,1499566099,358944889,,0.806278800582,-0.104162116583,0.150922583012,0.835330914283,0.544465538612,0.0181122768968,0.0738341813266,-0.014081754819,-0.00233481036189,-0.0159829920962,0.0287151163786,0.0274522247173,0.00463011585735,1.42572546005,-0.461165845394,0.947502911091,0.246048748493,0.50611448288,-0.122302249074
2017/07/09/10:08:16.564046,448123,1499566099,368942055,,0.806415029953,-0.104663809399,0.151095152082,0.835240730237,0.544519801998,0.017746877833,0.0745396277994,-0.0165034090099,-0.00266085619146,-0.00986420979938,0.0263061986794,0.0301714147375,-0.0108972879895,1.42423260212,-0.692615032196,0.967044055462,0.223667412996,0.456881254911,-0.102596156299
2017/07/09/10:08:16.574037,448124,1499566099,378943955,,0.80595667452,-0.104854666826,0.151036952246,0.835511154106,0.544175326472,0.0177870885247,0.0740131400889,-0.0185010399834,-0.0212769855167,-0.00630255544679,0.0187109318098,0.0172334814906,-0.0578910950728,1.47403550148,-0.845387339592,0.975973188877,0.343310326338,0.460826933384,-0.0990242362022
2017/07/09/10:08:16.584378,448125,1499566099,388940034,,0.805860935142,-0.105847629777,0.15095032283,0.835828731151,0.543641145636,0.018009965126,0.0742985740758,-0.0250555615556,-0.0365320167839,-0.00543475926304,-0.00298567313243,0.0249708895194,-0.0689848714658,2.1891067028,-1.27002584934,0.385331124067,0.362719476223,0.807896018028,-0.128818467259
2017/07/09/10:08:16.594109,448126,1499566099,398944822,,0.805779415559,-0.105151176846,0.150516609701,0.835776581544,0.543799401691,0.0178884339358,0.0737544601673,-0.0349520625733,-0.031742896189,-0.0322972774639,0.019024991719,0.0566735663267,-0.0409107954576,3.05348920822,-1.01479101181,0.620891749859,0.379410862923,1.06587767601,-0.16420507431
2017/07/09/10:08:16.604304,448127,1499566099,408946496,,0.805262671015,-0.105510419764,0.150308161894,0.835718935031,0.543931952747,0.0174756814763,0.073528858065,-0.0108367462037,-0.0147670659721,-0.0171605890985,0.00660665081653,0.0145559658014,-0.0186329139052,2.64338994026,-0.942047417164,0.728969335556,0.27627286315,1.02639973164,-0.186591863632
2017/07/09/10:08:16.614236,448128,1499566099,418943930,,0.805855397322,-0.105532875697,0.150825576025,0.835751141423,0.543787656056,0.0180533192843,0.0740884093067,-0.00632381870945,-0.0106054720229,0.00202173054413,-0.00505053715165,0.00097840767292,-0.00257726140844,3.22470164299,-0.739512205124,0.667386651039,0.287521630526,1.10765790939,-0.209035277367
2017/07/09/10:08:16.623862,448129,1499566099,428936247,,0.805665759117,-0.105957984023,0.150835844366,0.835839033648,0.543641675708,0.0178883972991,0.0742081094303,-0.00642608230766,-0.014286621316,-0.00937176885974,-0.00417788004725,0.00563373159733,-0.01088740969,2.63929605484,-1.40118098259,1.08743441105,0.464003801346,0.930253863335,-0.157753884792
2017/07/09/10:08:16.634362,448130,1499566099,438944560,,0.805409638998,-0.105641883317,0.15067581406,0.835860963617,0.543687595877,0.017715186084,0.073664236731,-0.00432984421054,-0.0184638687175,0.00394629689465,-0.00101194127122,-0.010924386199,-0.0268724389713,1.81501793861,-0.918427586555,0.63467669487,0.341884791851,0.598056316376,-0.0894734412432
2017/07/09/10:08:16.644682,448131,1499566099,448937673,,0.805430835392,-0.105161036389,0.149827627903,0.835600019096,0.544139254234,0.0175878133967,0.073319498826,-0.0216339797259,-0.026649217048,-0.0148045171485,-0.00980825726826,0.0377771746262,-0.0371645558444,2.09604120255,-0.442577302456,0.638655602932,0.221605688334,0.694682836533,-0.141313955188
2017/07/09/10:08:16.654238,448132,1499566099,458945197,,0.80495524128,-0.105998185764,0.150200502733,0.83600831288,0.543506845647,0.0173724459429,0.0734071362549,-0.000935320124493,-0.00451572924791,0.00509547892217,-0.00699698850904,-0.0026348661844,-0.0068971685222,2.08511924744,-0.66003704071,1.03102469444,0.270770311356,0.741250097752,-0.126015782356
2017/07/09/10:08:16.664058,448133,1499566099,468944431,,0.805041399986,-0.105696919293,0.150170295039,0.835767664047,0.543858639609,0.0170822265179,0.07360970991,-0.00164546457133,0.0135204955082,-0.00758091557493,0.0246961007783,0.0101425685668,-0.00370975815931,1.68711984158,-0.468719601631,0.761276304722,0.303446292877,0.536051571369,-0.112669892609
2017/07/09/10:08:16.674001,448134,1499566099,478944308,,0.805359171879,-0.105523055784,0.14995579852,0.835799165375,0.543791815876,0.0174037974077,0.0736703738311,-0.0148615785154,-0.00953474252354,-0.0161828429169,0.0142636318286,0.0220641042695,-0.024898970546,2.09288215637,-0.369891792536,1.01199030876,0.227649360895,0.668190777302,-0.15212482214
2017/07/09/10:08:16.684312,448135,1499566099,488938135,,0.805605753154,-0.10537227668,0.150304900137,0.835765473765,0.543839063021,0.0179174614813,0.0735806426185,-0.00152057806732,-0.00544365398861,-0.0131229055926,0.00882764515189,0.000954356618512,-0.0066727886408,1.94727563858,-0.482930392027,1.121270895,0.316819041967,0.565826535225,-0.0974642857909
2017/07/09/10:08:16.694121,448136,1499566099,498943735,,0.805016717167,-0.106327092368,0.149954814223,0.836094762421,0.543351570494,0.01751765617,0.0735374109946,-0.00362532590984,-7.77791720169e-05,0.000346741883108,-0.00139025878256,0.00822248664378,0.00643680459498,0.833708047867,-0.26673784852,0.718551516533,0.163446962833,0.210512861609,-0.0856231004
2017/07/09/10:08:16.704224,448137,1499566099,508938088,,0.804860388974,-0.105714062682,0.14988076653,0.836101658596,0.543417739109,0.0177194848794,0.0729191138882,0.00422701551045,0.00127686388936,0.00657913904568,0.00396051748402,-0.0136257447627,0.00924436871898,2.30156803131,-1.19805252552,0.70529037714,0.332031816244,0.867327153683,-0.159908846021
2017/07/09/10:08:16.714060,448138,1499566099,518945965,,0.805355142543,-0.106189713118,0.150398051394,0.836002345181,0.543444118989,0.0177117941369,0.0738570290245,-0.0145144770635,-0.010409163079,-0.0116555349786,0.0102599976629,0.0266172037052,-0.00675676487936,2.68790721893,-0.851107895374,1.13571238518,0.373442530632,0.902601838112,-0.132038265467
2017/07/09/10:08:16.724166,448139,1499566099,528939194,,0.804607739246,-0.105564201977,0.149303759394,0.836209048851,0.543307132144,0.0171904242239,0.0726379797111,-0.0070718766154,-0.00313134758288,-0.00922772025346,-0.00181521415362,0.017554132081,-0.029954088771,2.43245005608,-0.589851558208,0.431102246046,0.270821034908,0.819752454758,-0.16983884573
2017/07/09/10:08:16.734318,448140,1499566099,538944157,,0.804850836921,-0.105853939207,0.14990760429,0.836052665723,0.543461037099,0.0172933821863,0.0732596766706,0.00175119242522,0.00265306151407,-0.00346172521474,0.00218246231327,1.54020796692e-05,-0.00875365360542,2.48894143105,-0.900896847248,0.80940169096,0.414620786905,0.825307369232,-0.121068142354
2017/07/09/10:08:16.744067,448141,1499566099,548947554,,0.805004186307,-0.106188481507,0.150212478857,0.836010311225,0.543490299026,0.0176131322229,0.0734495198246,0.00482139816789,0.0093345969896,-0.00850394529841,0.0213383356822,-0.00204250741671,0.00713511614178,2.56097149849,-1.49834799767,1.06299436092,0.543369829655,0.91740500927,-0.133350342512
2017/07/09/10:08:16.754267,448142,1499566099,558941343,,0.80488179242,-0.106333945971,0.149329627586,0.836141267305,0.543297134389,0.0171967835716,0.0734865668622,0.00165893011397,-0.00167436405753,-0.0102234111573,0.00195455415278,0.00190231436905,0.0222915254854,3.24204993248,-1.54554140568,0.470679581165,0.512113749981,1.14679133892,-0.162898108363
2017/07/09/10:08:16.763768,448143,1499566099,568937251,,0.805065556575,-0.106517493923,0.149966864163,0.83609678186,0.543334898992,0.0177582773768,0.0735799054523,-0.00632632246278,-0.0169775780347,-0.0132189681495,-0.00780029893721,0.005064116311,-0.0167136424053,2.41974020004,-1.5388995409,0.612663865089,0.555457174778,0.828566193581,-0.0999185293913
2017/07/09/10:08:16.773907,448144,1499566099,578944363,,0.804786100565,-0.106175724882,0.149092831568,0.836127369111,0.543379728496,0.0172914606877,0.0730102641468,-0.0019688746978,-0.0148294709831,-0.00132803158615,0.00189476885819,-0.00949758934728,-0.0361960612019,2.21413683891,-0.97779160738,0.457453578711,0.356972426176,0.764992594719,-0.128566801548
2017/07/09/10:08:16.784379,448145,1499566099,588952008,,0.804818729407,-0.106068729337,0.1493237856,0.836341891902,0.54303759485,0.0175311187247,0.0730415656035,-0.00485412828857,0.0199675291726,-0.0154012649226,0.0357433150041,0.0253253322946,0.00134586707241,3.35388708115,-1.56609785557,0.760420680046,0.581509709358,1.22326421738,-0.153334021568
2017/07/09/10:08:16.794146,448146,1499566099,598951136,,0.804530540134,-0.106346551972,0.149040445559,0.836196418285,0.543293768704,0.0170257103691,0.072921575136,-0.00424621534185,-0.00365811987654,-0.00523377523694,-0.0117106791694,0.00921712117113,0.00141194570024,1.59951066971,-1.18136048317,0.649664342403,0.357895106077,0.569789171219,-0.123568572104
2017/07/09/10:08:16.803940,448147,1499566099,608938619,,0.804354145117,-0.106466272654,0.148584816377,0.83622492156,0.543271226252,0.0168136872222,0.0728117793377,-0.0218393006551,-0.00717963852263,-0.0283368844929,0.0191542000331,0.0505005742963,-0.00294101039808,2.94761419296,-1.33990216255,0.427760094404,0.549259603024,1.03536963463,-0.109650664032
2017/07/09/10:08:16.814189,448148,1499566099,618951309,,0.804270450323,-0.106431904614,0.148194427961,0.836143788398,0.543424782253,0.0168717181574,0.0725838568986,-0.00217699892038,0.00283067567562,-0.0215955543221,0.0133029733086,0.0145239617326,0.0124537540253,2.59125375748,-1.34573495388,0.568203210831,0.525215625763,0.910745620728,-0.126704722643
2017/07/09/10:08:16.824197,448149,1499566099,628941706,,0.804931604669,-0.106206979055,0.149216242042,0.836205012957,0.543233397441,0.0172754001048,0.0732134739115,-0.0169171717446,-0.0119506014067,-0.0163645605227,0.00291090508831,0.0324214946915,-0.00763068668672,3.9824461937,-1.046697855,1.08729553223,0.531296730042,1.40577769279,-0.175225555897
2017/07/09/10:08:16.834436,448150,1499566099,638943164,,0.804795419946,-0.105726123008,0.148484285957,0.835891100169,0.543791402748,0.0170049055831,0.072717344165,0.000574254616417,0.00140417790456,-0.00630648530302,0.0021471809295,0.00451201967496,-0.00455944023783,2.18694519997,-0.702057421207,0.850805222988,0.290574252605,0.750046253204,-0.141586065292
2017/07/09/10:08:16.844598,448151,1499566099,648940538,,0.804734460425,-0.105958346193,0.148081829961,0.835954853407,0.543694469245,0.0170452444071,0.0726998405777,0.00155473172084,0.00518410599622,-0.0110003751886,0.0203220969168,0.00285188827714,-0.0119278356411,2.81261610985,-0.752486288548,0.511386454105,0.340574920177,0.970616698265,-0.169297412038
2017/07/09/10:08:16.854422,448152,1499566099,658950789,,0.804456833645,-0.105531535679,0.148020818265,0.835997213325,0.54370074994,0.0167211503893,0.0722395802712,-0.00457696058905,0.00458906731741,-0.0144201851086,0.00542086480479,0.0220923175086,-0.00270883398561,1.82763934135,-0.363137245178,0.984081864357,0.310290753841,0.550321280956,-0.100095026195
2017/07/09/10:08:16.864093,448153,1499566099,668946668,,0.804465958925,-0.10632235168,0.148308391795,0.836133794179,0.543424248653,0.0169926502968,0.0726747139255,0.00330563963152,0.0136274282911,-0.0189909820397,0.0309059537444,0.00145656967191,0.00132316596002,1.81607019901,-1.37964808941,0.947856962681,0.425420552492,0.665015935898,-0.127263590693
2017/07/09/10:08:16.873903,448154,1499566099,678950709,,0.80412310355,-0.10598284585,0.147702547415,0.836166840595,0.543461660988,0.0164836510423,0.0721299311984,-0.00541342915305,-0.00182288316529,-0.012002130528,-0.00130005791451,0.0163003878008,-0.00792599059042,2.04491496086,-0.968870520592,0.440646559,0.397354632616,0.734238684177,-0.109622038901
2017/07/09/10:08:16.884293,448155,1499566099,688946507,,0.804126002307,-0.105971075143,0.147759575877,0.836386258572,0.543141927626,0.0169194511604,0.0718930114683,-0.0127656669139,-0.000890629149858,-0.0266663538163,0.0250772386393,0.0372423983212,-0.0128509769679,3.47030115128,-1.32697343826,1.08500123024,0.565238296986,1.24615228176,-0.171644896269
2017/07/09/10:08:16.894157,448156,1499566099,698944335,,0.804428544063,-0.105670835205,0.147745372452,0.836114506178,0.54353297511,0.0169006833718,0.0721027352314,-0.00520777319747,0.00126204637266,-0.00763955210338,0.00791380410019,0.0161992463848,0.00331017340855,2.58225011826,-0.972697377205,0.859436690807,0.480971753597,0.858994781971,-0.118118226528
2017/07/09/10:08:16.904162,448157,1499566099,708945766,,0.804435130382,-0.105162713001,0.147342748659,0.836030832386,0.543703141338,0.0167448031462,0.071825851662,-0.000693773747669,0.0329576207712,-0.0170498450243,0.0169479968813,0.0375504834711,0.0481943813343,3.37733793259,-1.25508964062,0.784496366978,0.580941975117,1.20608067513,-0.144989401102
2017/07/09/10:08:16.914103,448158,1499566099,718944925,,0.804656854999,-0.104976611944,0.147480559887,0.835982552908,0.543775786517,0.0171383958421,0.0717449692935,0.00119692648795,-0.00317014911158,-0.0121659480646,-0.0186968204856,0.0113706132665,0.0190076044865,3.0823776722,-1.10760211945,0.850632607937,0.487926065922,1.08360552788,-0.160034298897
2017/07/09/10:08:16.924116,448159,1499566099,728946388,,0.804006921283,-0.105709691441,0.147164635416,0.83604597543,0.543688045465,0.016312850825,0.071863252667,-0.00427005607419,0.00136105391865,-0.0155365481016,0.020652963534,0.0115025241563,-0.0258309312656,3.35039615631,-2.12453961372,1.00831651688,0.840815782547,1.22403013706,-0.0995648503304
2017/07/09/10:08:16.934300,448160,1499566099,738942039,,0.804217778532,-0.105395205565,0.147056713757,0.836145646817,0.543552003019,0.0166560781412,0.0716536976307,-0.0208201925013,-0.0272184005988,-0.0239463330718,-0.00664582115548,0.0343463293004,-0.0289733055259,3.94250249863,-1.05044496059,0.732882738113,0.568529069424,1.36714780331,-0.187958776951
2017/07/09/10:08:16.944360,448161,1499566099,748937447,,0.804035282239,-0.105472532543,0.147149308221,0.83602644569,0.54374522052,0.0162263698343,0.07167720831,-0.00325650257633,-0.00504788072598,-0.0202301407658,0.00861412747471,0.0106971661254,-0.00848038015606,3.59259939194,-1.34774827957,0.891088545322,0.63232678175,1.25990664959,-0.126360923052
2017/07/09/10:08:16.954259,448162,1499566099,758944833,,0.803576932992,-0.106390749365,0.146425546426,0.836555040516,0.542968590283,0.0161985936115,0.0714029391478,0.00015739078111,0.00661006931104,-0.0127386948659,0.0188960141542,0.00555027679254,-0.0121195873505,3.33648180962,-2.60560035706,0.708907902241,0.83232408762,1.26642453671,-0.128781422973
2017/07/09/10:08:16.964153,448163,1499566099,768939313,,0.803683963103,-0.106200185253,0.146297636047,0.836188935796,0.543520751145,0.0160453250282,0.0715248507257,-0.0057395059479,-0.00277459410503,-0.0138663622267,0.0156949849951,0.0113696741612,-0.001754567444,3.34223103523,-1.69071578979,1.09827148914,0.615523278713,1.23834383488,-0.168740779161
2017/07/09/10:08:16.974057,448164,1499566099,778948121,,0.804045245106,-0.106062334899,0.146454836011,0.836335472746,0.543270605977,0.0165834898454,0.0715892001168,0.0095789720589,0.00424495573977,0.00416248673,0.00464311765624,-0.0204301467687,0.0089603931053,3.38707900047,-1.88379943371,0.899951577187,0.666102230549,1.24479830265,-0.157864183187
2017/07/09/10:08:16.984252,448165,1499566099,788939107,,0.803566592843,-0.105818829254,0.145972683203,0.836350620139,0.543341899177,0.0161689402569,0.0709632733454,-0.0134965213745,0.0111180965778,-0.010979368822,0.0383770497878,0.0279499721143,-0.0128209882868,2.8073079586,-1.82415544987,0.497246533632,0.6298391819,1.02414703369,-0.121170133352
2017/07/09/10:08:16.994053,448166,1499566099,798952020,,0.803538819596,-0.105724953614,0.14596741574,0.836280042946,0.543446945039,0.0161515995078,0.0709946021233,-0.0229656125947,-0.0124700765477,-0.0266891545181,-0.000599890563032,0.0533456427581,-0.00823281392317,3.33032464981,-1.20809054375,0.886762917042,0.541579723358,1.20399153233,-0.155221581459
2017/07/09/10:08:17.004235,448167,1499566099,808940023,,0.803393436907,-0.106194438651,0.145846556887,0.836401204533,0.543252505945,0.0160167768328,0.0710858825717,-0.0101645322661,-0.00156031943257,-0.0171688762808,-0.000460702023367,0.0268350507739,-0.00076835662612,3.41456055641,-1.73254787922,0.773459017277,0.667554795742,1.24671256542,-0.129862338305
2017/07/09/10:08:17.014121,448168,1499566099,818941953,,0.803610519893,-0.105362556838,0.145840060157,0.836289268118,0.543472976509,0.0163639885506,0.07063712702,0.00579384792359,0.000824077843229,-0.00210182881119,-0.00878647054406,-0.0053655706608,0.00303536995977,2.99479556084,-1.03036761284,1.01467835903,0.398389786482,1.07846271992,-0.155880302191
2017/07/09/10:08:17.024149,448169,1499566099,828938796,,0.803565416575,-0.105648280527,0.145991489026,0.836554380731,0.543038767895,0.0164656389993,0.0708134688778,0.00318969585008,0.000776068878886,0.00031263082948,0.0144809227687,-0.00962830566299,-0.0149474508914,2.54126834869,-1.15068125725,0.947418391705,0.431315362453,0.914292097092,-0.131299287081
2017/07/09/10:08:17.034508,448170,1499566099,838942645,,0.80395678468,-0.105157025445,0.145687495684,0.836129841885,0.543658533241,0.0162389826685,0.0711237104285,-0.00385229664431,-0.00532755821934,-0.00991680565713,-0.0058153751891,0.008580366952,-0.00823876657014,2.79099106789,-0.545759320259,0.669433116913,0.281192660332,0.977966427803,-0.168460398912
2017/07/09/10:08:17.044277,448171,1499566099,848936858,,0.803544187584,-0.105547527377,0.145585844278,0.836286343866,0.543454735792,0.0160996135685,0.0708724463459,0.00203827418962,0.00210362278749,-0.00443334401973,-0.0102253051149,8.68133929942e-05,0.0135704653739,1.92064678669,-0.910699605942,0.947412967682,0.466249316931,0.699200212955,-0.0948631837964
2017/07/09/10:08:17.054146,448172,1499566099,858944154,,0.803733680509,-0.105123226691,0.145575764843,0.83609452012,0.543760459399,0.0162502575886,0.0707562389287,-0.00340765827225,0.0124231896035,-0.020605531158,0.00385894784902,0.0258022088789,0.0127184599976,2.74951457977,-1.39686143398,0.783151388168,0.654584467411,1.02152144909,-0.135506018996
2017/07/09/10:08:17.064141,448173,1499566099,868960140,,0.80326094577,-0.106515225988,0.145345792916,0.836524476644,0.543052373847,0.0156508897499,0.0712458341573,-0.00626775388484,0.00732059570228,-0.0107041965696,0.00253079832837,0.0250732566847,0.0201546499455,3.85414075851,-2.25018692017,0.603314220905,0.79793381691,1.50536167622,-0.139885127544
2017/07/09/10:08:17.073806,448174,1499566099,878949477,,0.8034387837,-0.105903857626,0.145295583276,0.836216665546,0.543549462371,0.0158277647085,0.0710292340164,-0.00350024370461,-0.000982899073709,-0.00747498048729,-0.00542831880695,0.0158312346416,0.015033709764,4.24783182144,-2.06667613983,1.01009595394,0.845125973225,1.601334095,-0.179921999574
2017/07/09/10:08:17.084070,448175,1499566099,888937292,,0.803639630607,-0.105617213709,0.145027365718,0.836108994996,0.543717126765,0.0158826216447,0.071001245611,-0.0115799572333,-0.0061439693158,-0.0150848743819,0.00303290416581,0.0265105278749,0.00710942996822,4.19559335709,-1.97098314762,0.413324594498,0.830546498299,1.538662076,-0.126765787601
2017/07/09/10:08:17.094277,448176,1499566099,898965370,,0.803360518258,-0.105852468355,0.145008814064,0.836227028596,0.543558648599,0.0157523698623,0.0708534757195,-0.00177773827706,-0.00839667565879,-0.00925438545653,-0.00213994254281,0.00266922111533,-0.00776594431189,3.02312850952,-1.74766719341,0.57653516531,0.664751470089,1.17283034325,-0.141858816147
2017/07/09/10:08:17.104231,448177,1499566099,908950461,,0.803994192302,-0.10510551054,0.14526673052,0.836122751446,0.54369168446,0.0165685391764,0.0708772197094,-0.000889090465621,-0.00375753906616,-0.00984748755587,-0.00527202065325,0.00720678877795,-0.0148512434313,4.28344488144,-1.53581154346,0.567994117737,0.729347586632,1.53252375126,-0.138538837433
2017/07/09/10:08:17.114058,448178,1499566099,918950322,,0.803205893088,-0.105629884588,0.144892975696,0.83611254618,0.543751615721,0.0152524388048,0.0708332805373,-0.00412221765809,-0.00192095240532,-0.0031800323289,0.0246005765367,-0.00398429446582,-0.0340069636251,4.28316688538,-1.57408976555,0.433752894402,0.677483141422,1.6445748806,-0.18294519186
2017/07/09/10:08:17.124196,448179,1499566099,928949390,,0.803058365509,-0.105386329539,0.144292825201,0.836287620252,0.5435643462,0.0155419238789,0.0701374818171,0.0020505720047,0.0149491198498,-0.013806839408,0.0305243242411,0.00713591323851,-0.00176538395374,3.53482890129,-1.52514231205,0.56196719408,0.625198721886,1.33514380455,-0.171006560326
2017/07/09/10:08:17.134245,448180,1499566099,938941861,,0.802857106413,-0.106003651777,0.144581246873,0.836485732405,0.543234419641,0.0155913580283,0.0703199427942,0.00254181151261,-0.00180384656117,0.00516563830237,-0.0141607194342,-0.000977333470355,0.0144601370585,3.06367516518,-1.71283531189,0.495545864105,0.622187614441,1.20822942257,-0.128601551056
2017/07/09/10:08:17.144101,448181,1499566099,948938589,,0.803414879256,-0.105869731141,0.145037941305,0.83636398834,0.543365830449,0.0160566020049,0.0706472847359,-0.0116184404681,-0.00146552671157,-0.00837979269892,0.0148797203706,0.022001586457,-0.0038418471548,3.51682472229,-1.63171577454,0.998011350632,0.672102093697,1.30498802662,-0.146814882755
2017/07/09/10:08:17.154200,448182,1499566099,958945093,,0.80337019293,-0.105389702967,0.144458475208,0.836209814302,0.543649585702,0.0159016440819,0.0703236243826,-0.0120084109393,-0.00453367248478,-0.0148314691976,0.00924797111543,0.0245485785265,-0.0158503781738,3.62144947052,-1.79925096035,0.643660128117,0.759044766426,1.35241341591,-0.110354937613
2017/07/09/10:08:17.163920,448183,1499566099,968942368,,0.803174544225,-0.105498460837,0.144345343802,0.836323560238,0.543489870445,0.0157950474964,0.0702294794851,-0.00275100770846,0.00864313253624,-0.0164555541475,0.0123675815922,0.016390257927,0.0189947447443,3.47916936874,-1.21023523808,0.376689076424,0.619941115379,1.26710832119,-0.133452653885
2017/07/09/10:08:17.174066,448184,1499566099,978961944,,0.803437464797,-0.104981335079,0.144479693372,0.835943579583,0.544075049337,0.0157817482144,0.0702254146776,0.00412323170441,0.00950904030503,-0.0118820182222,0.0125461805106,0.00365869424135,0.0226591902771,3.97531700134,-1.7290225029,0.783890008926,0.699026763439,1.51770818233,-0.162544876337
2017/07/09/10:08:17.184341,448185,1499566099,988949950,,0.803006348941,-0.105646935914,0.143844737091,0.836510086847,0.543243966035,0.0157535843781,0.0699191858508,-0.00982262235449,-0.00454099421743,-0.0141982898181,0.00546475723052,0.0232614946758,-0.0019669631008,3.15214109421,-1.95538544655,0.213242352009,0.708708524704,1.20960152149,-0.120099306107
2017/07/09/10:08:17.194313,448186,1499566099,998945695,,0.803325867464,-0.105344541114,0.144589554081,0.836280403995,0.543538238322,0.0158856381461,0.0703485314507,-0.00796437491815,-0.00223546039029,-0.00963338389038,-0.000304952513244,0.0239909877795,-0.0152296815589,4.37097978592,-1.31146657467,1.10670053959,0.628570318222,1.60990190506,-0.161191880703
2017/07/09/10:08:17.204107,448187,1499566100,8937748,,0.802933403563,-0.105852344802,0.143887084153,0.836542961321,0.543186488741,0.0157384574416,0.0699758048966,0.00284418348265,-0.00594711883117,0.000870922544975,-0.00421210340841,-0.0127086339418,-0.00767795217356,2.9772040844,-1.64193439484,0.684710204601,0.60388982296,1.1283082962,-0.117017567158
2017/07/09/10:08:17.214194,448188,1499566100,18940402,,0.803095401779,-0.105777647286,0.144078967072,0.836632676545,0.543015812819,0.0158508404679,0.0702021539636,-0.000202080445352,0.00207499434004,-0.00674425738017,0.0141365798116,-0.00102397034327,-0.0233491997212,2.62869811058,-1.63365614414,0.445453703403,0.597286045551,0.979431390762,-0.100782081485
2017/07/09/10:08:17.224448,448189,1499566100,28942015,,0.803151877998,-0.105621111416,0.144172761834,0.836428530843,0.543337883457,0.0158267596802,0.0701482064699,-0.00873517912692,-0.00453438224356,-0.0152130050399,0.00502147432884,0.0173502747291,-0.0215680840517,2.92205309868,-1.37696385384,0.455882191658,0.551810622215,1.07477843761,-0.0978857800364
2017/07/09/10:08:17.234291,448190,1499566100,38939259,,0.80262236326,-0.105840377024,0.144224892345,0.836597618087,0.543127223023,0.0155523478202,0.0698238462063,-0.0131807451876,-0.00570159462813,-0.0180312013611,0.00494159771254,0.0327941967405,-0.015224950839,3.59926819801,-1.10492670536,0.757376015186,0.541773855686,1.30873787403,-0.143112450838
2017/07/09/10:08:17.244024,448191,1499566100,48938117,,0.802878097071,-0.105347291081,0.143753043362,0.836253436219,0.543670192582,0.0155137898334,0.0697297241801,0.00581951136889,0.0185956711073,-0.00703744991714,0.00969787046951,0.00559205211929,0.0308374248669,3.38276743889,-1.33155179024,0.931835234165,0.60060685873,1.20421683788,-0.103719733655
2017/07/09/10:08:17.254170,448192,1499566100,58943585,,0.803150957052,-0.104855092273,0.143442390566,0.836217185867,0.543734798608,0.0155968670402,0.0696421178772,-0.0146814735716,0.000687409125057,-0.0151203942853,0.011377286266,0.0381499012321,0.0103103797344,3.94511294365,-1.5645147562,0.718389391899,0.586604118347,1.45458197594,-0.158147931099
2017/07/09/10:08:17.263968,448193,1499566100,68936569,,0.802543332308,-0.105466231234,0.143415196143,0.836540117691,0.543272506376,0.0151990066513,0.0694593802578,-0.0106299525836,0.00448083810754,-0.0175563253115,0.0131225312487,0.0340354744087,0.0150151963803,3.24710059166,-1.52335810661,0.808749556541,0.610412538052,1.19796526432,-0.130115896463
2017/07/09/10:08:17.273896,448194,1499566100,78940826,,0.802330879509,-0.105998915862,0.143356433928,0.836790085376,0.542864103988,0.0151528697879,0.0696513327648,-0.00427462593506,0.00382736440986,-0.00457114542774,0.0138690237785,0.0099553024384,-0.00826512882927,2.73417067528,-1.74571442604,0.942287802696,0.682341039181,1.05352127552,-0.0848890244961
2017/07/09/10:08:17.284056,448195,1499566100,88939179,,0.80212349991,-0.104873794894,0.142752401469,0.836413061381,0.543561673286,0.0147943944664,0.0688115105094,-0.00605211384707,0.00492478214794,-0.0256866748124,0.0266098753087,0.0135489823161,-0.0289845887388,3.01137971878,-1.36768341064,0.765170097351,0.586892783642,1.16505813599,-0.113876201212
2017/07/09/10:08:17.294224,448196,1499566100,98953448,,0.802802962295,-0.104673850789,0.14287883337,0.836438442438,0.543466374666,0.0154743240106,0.069105549094,0.0195832446677,0.0236331001335,-0.00825488396075,0.00198978397761,-0.0169858422867,0.0314656079419,3.17695689201,-1.39524996281,0.793297171593,0.679569900036,1.19028711319,-0.089672088623
2017/07/09/10:08:17.304269,448197,1499566100,108938540,,0.802919621237,-0.104513500761,0.142705282743,0.836335017262,0.543635006343,0.0155054020715,0.0690239182209,0.00398604635878,0.0075797785089,-0.0139491974103,0.0110707820679,0.000693276064923,0.00429452525392,5.62974977493,-1.85410451889,0.182926177979,0.856531739235,2.07560896873,-0.166812956333
2017/07/09/10:08:17.314013,448198,1499566100,118944984,,0.802757329194,-0.104364349956,0.142281045605,0.83628786267,0.543732782847,0.0150489186306,0.068926059343,-0.0165659545674,-0.00565797905348,-0.0274207912798,-0.00295936364904,0.0482113251987,0.00411617663972,4.55048751831,-1.16040337086,-0.083848118782,0.593334913254,1.68036150932,-0.156669065356
2017/07/09/10:08:17.324061,448199,1499566100,128937715,,0.802327947036,-0.105240583541,0.14212355204,0.836392602121,0.543556329267,0.0147226547967,0.0691171141389,0.000640342155734,0.00037163813807,-0.00348915601664,-0.010563997624,0.00295359326723,0.00519287873801,4.58610105515,-1.91017091274,0.201364427805,0.777095556259,1.77367663383,-0.136266201735
2017/07/09/10:08:17.334609,448200,1499566100,138945564,,0.802798771348,-0.10501743407,0.142841280027,0.836308781567,0.543625284164,0.0151422310861,0.0694973749828,-0.0132676050729,-0.00871782423333,-0.0228069650002,0.00190171028534,0.0288726806967,-0.00814287732504,4.47618198395,-1.74846994877,0.72278791666,0.676282286644,1.71984004974,-0.179974734783
2017/07/09/10:08:17.344392,448201,1499566100,148944860,,0.802557539542,-0.104981810746,0.142569184186,0.836486254815,0.54340299084,0.015098933685,0.069108300903,-0.00711235003092,0.0010606997198,-0.00409557591298,0.0043546474831,0.0168177547922,-0.00286973537021,2.73054456711,-1.66121888161,0.80605661869,0.579099714756,1.08237838745,-0.105813570321
2017/07/09/10:08:17.354377,448202,1499566100,158937769,,0.802164669966,-0.104813495022,0.141931491534,0.836416231812,0.543585021071,0.0148026421642,0.0685863967072,-0.0029700439987,0.0099890908663,-0.00608567941784,0.00751926286552,0.0148273364865,0.00853230189684,4.18458604813,-1.58826625347,0.285687893629,0.676241457462,1.56504130363,-0.13065123558
2017/07/09/10:08:17.363948,448203,1499566100,168945115,,0.801851964763,-0.10514024205,0.141786615699,0.836479852006,0.543498000357,0.0145341124686,0.0685575697496,-0.0102654884946,0.00581985224377,-0.00642454697367,0.0174680944729,0.0257141595088,0.00614245656812,1.66181492805,0.56298160553,1.14505898952,-0.274147897959,0.712100446224,-0.181554436684
2017/07/09/10:08:17.374036,448204,1499566100,178944633,,0.802081236863,-0.105046750712,0.141813572962,0.836449528979,0.543511886622,0.0145262034208,0.0688186310886,-0.0200657897549,-0.00648921400939,-0.0214824693008,0.0114264781679,0.0378375976855,-0.00586516804233,3.35951924324,0.0213301032782,1.02185726166,-0.088351264596,1.37187862396,-0.243493914604
2017/07/09/10:08:17.384550,448205,1499566100,188946870,,0.802236817749,-0.105210828506,0.142134520828,0.836509739615,0.543397394693,0.0151312593008,0.0688605254218,-0.0146431633146,0.00758680594077,-0.024854677134,0.0468459450065,0.0243341207752,-0.0104628684505,3.63164591789,-0.258687645197,0.830478489399,0.0570345856249,1.47542881966,-0.22427739203
2017/07/09/10:08:17.394136,448206,1499566100,198940244,,0.802182870802,-0.104414068392,0.141433860101,0.836172379341,0.543986796193,0.0150072864506,0.0683293417865,-0.00571013010913,0.00589798850706,-0.0201945897134,0.0241159898591,0.0135936176551,0.0180188508262,3.62128686905,-0.170469686389,1.1254016161,-0.0164668634534,1.50693678856,-0.260793179274
2017/07/09/10:08:17.404354,448207,1499566100,208936723,,0.801695484825,-0.104355173815,0.140833705553,0.836305947754,0.543863298372,0.0144841809849,0.0677885162554,0.00182681997994,-0.00978822408678,-0.00751513711218,-0.0271631895397,-0.00197931755392,0.0114845990986,4.50976467133,-0.475407987833,1.12502038479,0.0930970460176,1.83929371834,-0.273872405291
2017/07/09/10:08:17.413921,448208,1499566100,218940970,,0.801881010232,-0.104771164911,0.141243419585,0.836499385756,0.543515297346,0.0149220823016,0.0680972146298,-0.0213677309344,0.00213613944035,-0.0239080070616,0.0198561711376,0.0506807421605,-0.013367415148,2.4228849411,0.409889400005,0.816790223122,-0.289464473724,1.04567825794,-0.246676594019
2017/07/09/10:08:17.424435,448209,1499566100,228942051,,0.801590954934,-0.10470370125,0.141045728604,0.836422266404,0.543663216538,0.0144126041255,0.0679733483849,-0.00835327626869,-0.000912646128021,-0.0150802792253,0.00221758929897,0.0243618044365,-0.0143709399867,1.35981249809,0.929927408695,0.641968488693,-0.469092726707,0.636586308479,-0.226107150316
2017/07/09/10:08:17.434365,448210,1499566100,238944757,,0.801896831709,-0.10439161301,0.14108771226,0.836371453828,0.543733569317,0.0148298217097,0.0679461051689,-0.00970537369939,0.00425919609158,-0.0171747406351,0.0130154776187,0.0291679954881,-0.00219390873602,1.52627289295,0.797697484493,0.613661885262,-0.371831685305,0.703911304474,-0.170553654432
2017/07/09/10:08:17.444224,448211,1499566100,248974506,,0.801307150724,-0.104608067472,0.140106721014,0.836133728243,0.544146697783,0.0138652794654,0.0677680884484,-0.00470834521033,0.033577035429,-0.03326812384,0.0448571346827,0.0379351338552,0.0291972940939,3.28140115738,-0.149539723992,0.761427760124,-0.0228999108076,1.38682079315,-0.257229954004
2017/07/09/10:08:17.454229,448212,1499566100,258945446,,0.800898319252,-0.104323267068,0.140025546252,0.836432974676,0.543783196454,0.0139668098316,0.0669674723407,-0.0139678522001,-0.0104418511767,-0.0113229176638,-0.0143876656767,0.0309241124067,0.000787860619686,2.1143386364,-0.203559905291,0.78824877739,0.044765137136,0.903453230858,-0.171702623367
