time,.header.seq,.header.stamp.secs,.header.stamp.nsecs,.header.frame_id,.quat,.acc
2017/07/09/10:03:26.214157,8706,1499565806,213860034,0,"(-9428, -6589, 8092, 8405)","(285, 2027, 424)"
2017/07/09/10:03:26.240047,8707,1499565806,239909887,0,"(-9449, -6559, 8082, 8414)","(288, 1945, 324)"
2017/07/09/10:03:26.259205,8708,1499565806,258793115,0,"(-9481, -6541, 8053, 8420)","(311, 2037, 127)"
2017/07/09/10:03:26.281114,8709,1499565806,280950069,0,"(-9542, -6503, 7988, 8443)","(291, 2149, 422)"
2017/07/09/10:03:26.296372,8710,1499565806,296216964,0,"(-9619, -6425, 7931, 8469)","(279, 1930, 609)"
2017/07/09/10:03:26.320118,8711,1499565806,319999933,0,"(-9663, -6365, 7910, 8485)","(203, 1709, 590)"
2017/07/09/10:03:26.341547,8712,1499565806,341276884,0,"(-9671, -6337, 7916, 8491)","(285, 1762, 481)"
2017/07/09/10:03:26.356514,8713,1499565806,356328964,0,"(-9670, -6321, 7918, 8501)","(340, 1941, 502)"
2017/07/09/10:03:26.386705,8714,1499565806,386548995,0,"(-9684, -6274, 7897, 8539)","(482, 1817, 587)"
2017/07/09/10:03:26.401524,8715,1499565806,401382923,0,"(-9695, -6247, 7856, 8584)","(494, 1755, 497)"
2017/07/09/10:03:26.416121,8716,1499565806,415994882,0,"(-9684, -6254, 7801, 8642)","(234, 1908, 406)"
2017/07/09/10:03:26.438806,8717,1499565806,438621044,0,"(-9670, -6246, 7762, 8699)","(401, 1961, 401)"
2017/07/09/10:03:26.462725,8718,1499565806,462522983,0,"(-9669, -6224, 7715, 8757)","(509, 1936, 568)"
2017/07/09/10:03:26.476065,8719,1499565806,475959062,0,"(-9656, -6242, 7654, 8811)","(355, 1907, 608)"
2017/07/09/10:03:26.499334,8720,1499565806,498919963,0,"(-9617, -6326, 7532, 8898)","(-129, 1937, 636)"
2017/07/09/10:03:26.521409,8721,1499565806,521200895,0,"(-9598, -6346, 7548, 8892)","(365, 2099, 532)"
2017/07/09/10:03:26.537514,8722,1499565806,537384033,0,"(-9564, -6399, 7481, 8948)","(16, 2106, 552)"
2017/07/09/10:03:26.558562,8723,1499565806,558439016,0,"(-9540, -6445, 7420, 8990)","(95, 1997, 667)"
2017/07/09/10:03:26.581539,8724,1499565806,581114053,0,"(-9513, -6508, 7347, 9033)","(48, 1943, 686)"
2017/07/09/10:03:26.596145,8725,1499565806,596071958,0,"(-9478, -6586, 7266, 9079)","(-28, 2030, 647)"
2017/07/09/10:03:26.618526,8726,1499565806,618385076,0,"(-9441, -6664, 7170, 9136)","(-63, 2045, 642)"
2017/07/09/10:03:26.641440,8727,1499565806,641287088,0,"(-9412, -6736, 7055, 9204)","(-93, 1944, 665)"
2017/07/09/10:03:26.656139,8728,1499565806,655957937,0,"(-9377, -6818, 6942, 9264)","(-125, 1854, 647)"
2017/07/09/10:03:26.679219,8729,1499565806,678874969,0,"(-9335, -6914, 6830, 9319)","(-150, 1964, 683)"
2017/07/09/10:03:26.701438,8730,1499565806,701133966,0,"(-9301, -7001, 6711, 9374)","(-158, 2010, 662)"
2017/07/09/10:03:26.716383,8731,1499565806,716197967,0,"(-9279, -7072, 6582, 9434)","(-192, 1924, 632)"
2017/07/09/10:03:26.738802,8732,1499565806,738522052,0,"(-9257, -7137, 6458, 9492)","(-176, 1762, 662)"
2017/07/09/10:03:26.760979,8733,1499565806,760879039,0,"(-9219, -7220, 6340, 9546)","(-190, 1814, 654)"
2017/07/09/10:03:26.783957,8734,1499565806,783691883,0,"(-9174, -7308, 6228, 9596)","(-263, 1941, 639)"
2017/07/09/10:03:26.798564,8735,1499565806,798470973,0,"(-9147, -7369, 6107, 9652)","(-241, 1890, 682)"
2017/07/09/10:03:26.821617,8736,1499565806,821305036,0,"(-9126, -7415, 5988, 9712)","(-294, 1774, 655)"
2017/07/09/10:03:26.836033,8737,1499565806,835952043,0,"(-9101, -7464, 5879, 9764)","(-285, 1697, 712)"
2017/07/09/10:03:26.858577,8738,1499565806,858442068,0,"(-9057, -7525, 5790, 9811)","(-347, 1825, 643)"
2017/07/09/10:03:26.889604,8739,1499565806,889373064,0,"(-9018, -7572, 5704, 9861)","(-328, 1919, 621)"
2017/07/09/10:03:26.896109,8740,1499565806,895956039,0,"(-9008, -7586, 5600, 9919)","(-303, 1827, 664)"
2017/07/09/10:03:26.918943,8741,1499565806,918658971,0,"(-9005, -7589, 5486, 9983)","(-335, 1693, 673)"
2017/07/09/10:03:26.940951,8742,1499565806,940860986,0,"(-8996, -7594, 5381, 10043)","(-338, 1670, 743)"
2017/07/09/10:03:26.956129,8743,1499565806,956021070,0,"(-8977, -7603, 5286, 10105)","(-388, 1737, 704)"
2017/07/09/10:03:26.989133,8744,1499565806,988286972,0,"(-8956, -7606, 5189, 10171)","(-415, 1801, 706)"
2017/07/09/10:03:27.001394,8745,1499565807,1142024,0,"(-8960, -7589, 5080, 10235)","(-374, 1770, 765)"
2017/07/09/10:03:27.016486,8746,1499565807,16225099,0,"(-8977, -7566, 4954, 10299)","(-412, 1699, 828)"
2017/07/09/10:03:27.039860,8747,1499565807,39769887,0,"(-8991, -7545, 4826, 10363)","(-494, 1647, 790)"
2017/07/09/10:03:27.061948,8748,1499565807,61625957,0,"(-8992, -7526, 4711, 10428)","(-532, 1638, 841)"
2017/07/09/10:03:27.076327,8749,1499565807,76165914,0,"(-8974, -7516, 4621, 10492)","(-505, 1710, 775)"
2017/07/09/10:03:27.100733,8750,1499565807,100583076,0,"(-8985, -7481, 4491, 10562)","(-469, 1729, 847)"
2017/07/09/10:03:27.124333,8751,1499565807,124155044,0,"(-9020, -7429, 4343, 10631)","(-511, 1525, 898)"
2017/07/09/10:03:27.151943,8752,1499565807,151674985,0,"(-9029, -7401, 4200, 10700)","(-617, 1616, 948)"
2017/07/09/10:03:27.158868,8753,1499565807,158552885,0,"(-9028, -7369, 4060, 10777)","(-693, 1673, 862)"
2017/07/09/10:03:27.181522,8754,1499565807,181263923,0,"(-9035, -7302, 3908, 10872)","(-658, 1604, 966)"
2017/07/09/10:03:27.212612,8755,1499565807,212289094,0,"(-9055, -7228, 3763, 10956)","(-633, 1438, 1064)"
2017/07/09/10:03:27.219004,8756,1499565807,218794107,0,"(-9071, -7172, 3624, 11026)","(-708, 1503, 1038)"
2017/07/09/10:03:27.241058,8757,1499565807,240899085,0,"(-9086, -7107, 3470, 11105)","(-781, 1562, 1001)"
2017/07/09/10:03:27.265131,8758,1499565807,264950990,0,"(-9096, -7018, 3312, 11202)","(-776, 1400, 1056)"
2017/07/09/10:03:27.280587,8759,1499565807,280477046,0,"(-9100, -6933, 3181, 11289)","(-699, 1398, 1188)"
2017/07/09/10:03:27.301791,8760,1499565807,301567077,0,"(-9126, -6843, 3048, 11360)","(-675, 1410, 1215)"
2017/07/09/10:03:27.323571,8761,1499565807,323385953,0,"(-9154, -6749, 2903, 11431)","(-701, 1419, 1154)"
2017/07/09/10:03:27.338814,8762,1499565807,338570117,0,"(-9180, -6642, 2726, 11516)","(-753, 1335, 1166)"
2017/07/09/10:03:27.377231,8763,1499565807,377041101,0,"(-9188, -6536, 2559, 11608)","(-914, 1058, 1272)"
2017/07/09/10:03:27.383605,8764,1499565807,383421897,0,"(-9174, -6452, 2461, 11687)","(-779, 1326, 1316)"
2017/07/09/10:03:27.398550,8765,1499565807,398452043,0,"(-9190, -6365, 2371, 11741)","(-663, 1504, 1229)"
2017/07/09/10:03:27.430938,8766,1499565807,430820941,0,"(-9236, -6232, 2207, 11808)","(-728, 1323, 1203)"
2017/07/09/10:03:27.443527,8767,1499565807,443382978,0,"(-9269, -6079, 2023, 11895)","(-853, 876, 1437)"
2017/07/09/10:03:27.458516,8768,1499565807,458385944,0,"(-9259, -5985, 1931, 11965)","(-803, 986, 1447)"
2017/07/09/10:03:27.482630,8769,1499565807,482526063,0,"(-9261, -5917, 1895, 12003)","(-639, 1345, 1366)"
2017/07/09/10:03:27.509297,8770,1499565807,509090900,0,"(-9298, -5813, 1797, 12040)","(-662, 1302, 1375)"
2017/07/09/10:03:27.518877,8771,1499565807,518691062,0,"(-9333, -5688, 1656, 12093)","(-751, 918, 1463)"
2017/07/09/10:03:27.543122,8772,1499565807,543029069,0,"(-9344, -5594, 1551, 12142)","(-740, 880, 1514)"
2017/07/09/10:03:27.564184,8773,1499565807,563971996,0,"(-9344, -5521, 1472, 12186)","(-667, 1188, 1493)"
2017/07/09/10:03:27.594622,8774,1499565807,594377994,0,"(-9359, -5435, 1358, 12225)","(-658, 1105, 1543)"
2017/07/09/10:03:27.601527,8775,1499565807,601279020,0,"(-9366, -5348, 1225, 12273)","(-837, 885, 1500)"
2017/07/09/10:03:27.623741,8776,1499565807,623419046,0,"(-9365, -5241, 1096, 12331)","(-675, 965, 1538)"
2017/07/09/10:03:27.654642,8777,1499565807,654454946,0,"(-9367, -5125, 941, 12391)","(-717, 777, 1625)"
2017/07/09/10:03:27.661354,8778,1499565807,661225080,0,"(-9364, -5027, 794, 12444)","(-773, 820, 1689)"
2017/07/09/10:03:27.708068,8779,1499565807,707707881,0,"(-9372, -4926, 652, 12486)","(-705, 836, 1593)"
2017/07/09/10:03:27.709225,8780,1499565807,709147930,0,"(-9379, -4816, 489, 12531)","(-781, 609, 1572)"
2017/07/09/10:03:27.721301,8781,1499565807,720974922,0,"(-9376, -4737, 376, 12568)","(-819, 613, 1597)"
2017/07/09/10:03:27.743678,8782,1499565807,743433952,0,"(-9376, -4671, 293, 12595)","(-779, 742, 1700)"
2017/07/09/10:03:27.760578,8783,1499565807,760401010,0,"(-9375, -4617, 200, 12617)","(-926, 676, 1677)"
2017/07/09/10:03:27.781294,8784,1499565807,781088113,0,"(-9359, -4562, 106, 12650)","(-926, 641, 1697)"
2017/07/09/10:03:27.812143,8785,1499565807,811889886,0,"(-9346, -4504, 35, 12681)","(-901, 602, 1716)"
2017/07/09/10:03:27.818461,8786,1499565807,818285942,0,"(-9337, -4462, -6, 12702)","(-875, 532, 1685)"
2017/07/09/10:03:27.841470,8787,1499565807,841192960,0,"(-9336, -4420, -40, 12718)","(-776, 513, 1691)"
2017/07/09/10:03:27.871897,8788,1499565807,871680021,0,"(-9337, -4366, -103, 12735)","(-858, 478, 1735)"
2017/07/09/10:03:27.878699,8789,1499565807,878525018,0,"(-9336, -4307, -176, 12755)","(-830, 399, 1776)"
2017/07/09/10:03:27.901146,8790,1499565807,900958061,0,"(-9333, -4240, -249, 12779)","(-764, 464, 1793)"
2017/07/09/10:03:27.932040,8791,1499565807,931715011,0,"(-9329, -4201, -297, 12794)","(-764, 376, 1692)"
2017/07/09/10:03:27.946638,8792,1499565807,946413993,0,"(-9333, -4184, -305, 12796)","(-805, 508, 1665)"
2017/07/09/10:03:27.961524,8793,1499565807,961296081,0,"(-9344, -4161, -309, 12795)","(-815, 420, 1745)"
2017/07/09/10:03:27.985597,8794,1499565807,985428094,0,"(-9355, -4127, -311, 12799)","(-668, 330, 1824)"
2017/07/09/10:03:28.000042,8795,1499565807,999931097,0,"(-9363, -4116, -314, 12796)","(-702, 448, 1718)"
2017/07/09/10:03:28.020944,8796,1499565808,20818948,0,"(-9367, -4122, -326, 12790)","(-945, 520, 1632)"
2017/07/09/10:03:28.043830,8797,1499565808,43541908,0,"(-9369, -4110, -321, 12793)","(-935, 605, 1740)"
2017/07/09/10:03:28.058940,8798,1499565808,58744907,0,"(-9373, -4074, -320, 12801)","(-741, 362, 1793)"
2017/07/09/10:03:28.096812,8799,1499565808,96592903,0,"(-9380, -4053, -306, 12803)","(-643, 351, 1669)"
2017/07/09/10:03:28.103615,8800,1499565808,103413105,0,"(-9391, -4047, -299, 12798)","(-828, 492, 1700)"
2017/07/09/10:03:28.118897,8801,1499565808,118617057,0,"(-9399, -4036, -299, 12795)","(-900, 399, 1743)"
2017/07/09/10:03:28.149522,8802,1499565808,149291038,0,"(-9403, -4024, -282, 12796)","(-720, 498, 1764)"
2017/07/09/10:03:28.166712,8803,1499565808,166557073,0,"(-9413, -4007, -289, 12794)","(-707, 394, 1730)"
2017/07/09/10:03:28.179113,8804,1499565808,178816080,0,"(-9423, -4003, -295, 12788)","(-761, 395, 1685)"
2017/07/09/10:03:28.210335,8805,1499565808,210196971,0,"(-9426, -4023, -275, 12780)","(-939, 408, 1690)"
2017/07/09/10:03:28.224219,8806,1499565808,223882913,0,"(-9438, -4030, -231, 12770)","(-781, 509, 1815)"
2017/07/09/10:03:28.239224,8807,1499565808,238931894,0,"(-9460, -4018, -218, 12757)","(-706, 467, 1847)"
2017/07/09/10:03:28.263172,8808,1499565808,262991905,0,"(-9479, -4009, -245, 12746)","(-826, 401, 1762)"
2017/07/09/10:03:28.283516,8809,1499565808,283406019,0,"(-9488, -4006, -261, 12740)","(-849, 450, 1666)"
2017/07/09/10:03:28.298423,8810,1499565808,298346042,0,"(-9501, -3997, -258, 12733)","(-759, 484, 1815)"
2017/07/09/10:03:28.321633,8811,1499565808,321222066,0,"(-9520, -3991, -262, 12720)","(-764, 383, 1827)"
2017/07/09/10:03:28.343597,8812,1499565808,343405961,0,"(-9544, -3996, -268, 12701)","(-783, 420, 1737)"
2017/07/09/10:03:28.374634,8813,1499565808,374361038,0,"(-9542, -4039, -256, 12689)","(-890, 682, 1535)"
2017/07/09/10:03:28.388798,8814,1499565808,388506889,0,"(-9535, -4061, -278, 12687)","(-821, 695, 1736)"
2017/07/09/10:03:28.403716,8815,1499565808,403510093,0,"(-9554, -4050, -323, 12675)","(-782, 499, 1968)"
2017/07/09/10:03:28.427736,8816,1499565808,427500009,0,"(-9567, -4065, -337, 12660)","(-787, 363, 1866)"
2017/07/09/10:03:28.441237,8817,1499565808,440987110,0,"(-9568, -4099, -337, 12648)","(-845, 575, 1648)"
2017/07/09/10:03:28.464108,8818,1499565808,463800907,0,"(-9582, -4099, -370, 12637)","(-833, 368, 1722)"
2017/07/09/10:03:28.485976,8819,1499565808,485827922,0,"(-9594, -4103, -390, 12625)","(-998, 201, 1750)"
2017/07/09/10:03:28.501544,8820,1499565808,501281976,0,"(-9607, -4107, -355, 12616)","(-675, 443, 1776)"
2017/07/09/10:03:28.539465,8821,1499565808,539264917,0,"(-9627, -4125, -352, 12595)","(-700, 663, 1709)"
2017/07/09/10:03:28.554927,8822,1499565808,554536104,0,"(-9648, -4138, -411, 12572)","(-900, 504, 1646)"
2017/07/09/10:03:28.561487,8823,1499565808,561216115,0,"(-9663, -4149, -456, 12555)","(-1085, 415, 1737)"
2017/07/09/10:03:28.592130,8824,1499565808,591850996,0,"(-9672, -4164, -448, 12544)","(-893, 428, 1763)"
2017/07/09/10:03:28.606792,8825,1499565808,606575965,0,"(-9692, -4175, -438, 12525)","(-811, 613, 1720)"
2017/07/09/10:03:28.621743,8826,1499565808,621431112,0,"(-9709, -4177, -467, 12510)","(-894, 456, 1728)"
2017/07/09/10:03:28.651934,8827,1499565808,651652097,0,"(-9717, -4192, -471, 12499)","(-986, 479, 1663)"
2017/07/09/10:03:28.666043,8828,1499565808,665924072,0,"(-9727, -4195, -448, 12491)","(-820, 626, 1739)"
2017/07/09/10:03:28.681081,8829,1499565808,680932998,0,"(-9742, -4191, -447, 12481)","(-788, 612, 1747)"
2017/07/09/10:03:28.705156,8830,1499565808,705038070,0,"(-9752, -4202, -455, 12468)","(-849, 510, 1684)"
2017/07/09/10:03:28.726201,8831,1499565808,726027011,0,"(-9755, -4223, -454, 12460)","(-961, 547, 1729)"
2017/07/09/10:03:28.741612,8832,1499565808,741336107,0,"(-9760, -4216, -450, 12458)","(-901, 474, 1766)"
2017/07/09/10:03:28.763663,8833,1499565808,763386964,0,"(-9764, -4210, -447, 12457)","(-849, 469, 1768)"
2017/07/09/10:03:28.792574,8834,1499565808,786417007,0,"(-9771, -4212, -449, 12451)","(-847, 524, 1696)"
2017/07/09/10:03:28.816783,8835,1499565808,816591978,0,"(-9771, -4219, -451, 12448)","(-889, 499, 1748)"
2017/07/09/10:03:28.832278,8836,1499565808,832055091,0,"(-9772, -4227, -444, 12445)","(-863, 519, 1741)"
2017/07/09/10:03:28.848645,8837,1499565808,848367929,0,"(-9777, -4227, -443, 12441)","(-800, 557, 1739)"
2017/07/09/10:03:28.868459,8838,1499565808,868387937,0,"(-9782, -4231, -456, 12436)","(-831, 505, 1698)"
2017/07/09/10:03:28.883748,8839,1499565808,883565902,0,"(-9784, -4243, -462, 12430)","(-869, 537, 1711)"
2017/07/09/10:03:28.906639,8840,1499565808,906332015,0,"(-9787, -4252, -470, 12424)","(-916, 519, 1745)"
2017/07/09/10:03:28.930377,8841,1499565808,930107116,0,"(-9789, -4263, -475, 12419)","(-908, 516, 1716)"
2017/07/09/10:03:28.945427,8842,1499565808,945259094,0,"(-9781, -4280, -473, 12419)","(-866, 507, 1678)"
2017/07/09/10:03:28.983431,8843,1499565808,982697963,0,"(-9779, -4286, -473, 12418)","(-824, 574, 1697)"
2017/07/09/10:03:28.984387,8844,1499565808,984217882,0,"(-9785, -4281, -491, 12415)","(-884, 480, 1713)"
2017/07/09/10:03:29.003958,8845,1499565809,3724098,0,"(-9784, -4290, -500, 12412)","(-919, 475, 1711)"
2017/07/09/10:03:29.042568,8846,1499565809,42330980,0,"(-9777, -4309, -489, 12411)","(-847, 588, 1666)"
2017/07/09/10:03:29.043823,8847,1499565809,43720960,0,"(-9774, -4322, -487, 12409)","(-901, 610, 1677)"
2017/07/09/10:03:29.063921,8848,1499565809,63643932,0,"(-9774, -4318, -500, 12410)","(-936, 452, 1724)"
2017/07/09/10:03:29.094832,8849,1499565809,94667911,0,"(-9770, -4310, -496, 12416)","(-849, 446, 1716)"
2017/07/09/10:03:29.101351,8850,1499565809,101166009,0,"(-9765, -4318, -485, 12418)","(-858, 546, 1664)"
2017/07/09/10:03:29.123839,8851,1499565809,123459100,0,"(-9764, -4322, -489, 12417)","(-897, 554, 1662)"
2017/07/09/10:03:29.146232,8852,1499565809,145992040,0,"(-9764, -4322, -491, 12417)","(-908, 452, 1724)"
2017/07/09/10:03:29.161091,8853,1499565809,160938978,0,"(-9760, -4310, -492, 12424)","(-858, 450, 1795)"
2017/07/09/10:03:29.183753,8854,1499565809,183638095,0,"(-9764, -4305, -493, 12423)","(-894, 513, 1770)"
2017/07/09/10:03:29.211611,8855,1499565809,211448907,0,"(-9761, -4318, -492, 12421)","(-870, 527, 1706)"
2017/07/09/10:03:29.221522,8856,1499565809,221133947,0,"(-9753, -4339, -485, 12420)","(-878, 583, 1628)"
2017/07/09/10:03:29.259506,8857,1499565809,259282112,0,"(-9754, -4334, -489, 12421)","(-889, 570, 1704)"
2017/07/09/10:03:29.266355,8858,1499565809,266191959,0,"(-9753, -4322, -495, 12425)","(-870, 456, 1743)"
2017/07/09/10:03:29.282694,8859,1499565809,282555103,0,"(-9745, -4331, -483, 12429)","(-864, 516, 1684)"
2017/07/09/10:03:29.304056,8860,1499565809,303740978,0,"(-9740, -4341, -469, 12430)","(-808, 577, 1704)"
2017/07/09/10:03:29.327696,8861,1499565809,327588081,0,"(-9739, -4339, -478, 12431)","(-923, 537, 1743)"
2017/07/09/10:03:29.349022,8862,1499565809,348737001,0,"(-9739, -4328, -494, 12434)","(-938, 426, 1760)"
