time,.header.seq,.header.stamp.secs,.header.stamp.nsecs,.header.frame_id,.pose.position.x,.pose.position.y,.pose.position.z,.pose.orientation.x,.pose.orientation.y,.pose.orientation.z,.pose.orientation.w,.twist.linear.x,.twist.linear.y,.twist.linear.z,.twist.angular.x,.twist.angular.y,.twist.angular.z,.wrench.force.x,.wrench.force.y,.wrench.force.z,.wrench.torque.x,.wrench.torque.y,.wrench.torque.z
2017/07/09/10:07:23.934330,442860,1499566046,738992084,,0.787551243202,0.381552824309,0.167687497933,0.629347259774,0.774381059908,0.0529365649603,0.0381276902045,0.045393433424,-0.117009581853,0.0138376817077,-0.0339461072193,-0.0468562693731,-0.181551354685,3.97802448273,6.25928544998,-1.41825628281,-2.26299524307,1.67573845387,-0.329773426056
2017/07/09/10:07:23.944282,442861,1499566046,748991684,,0.788122498708,0.379728350342,0.167399103472,0.630176930713,0.773711148606,0.0523223528074,0.0388647129938,0.0363753455926,-0.109956192622,0.00614776342088,-0.0401295628779,-0.0299171850658,-0.168964532296,3.19173717499,5.79684877396,-1.54898238182,-1.98047065735,1.39051556587,-0.26437908411
2017/07/09/10:07:23.954197,442862,1499566046,758996141,,0.788846929195,0.378207369431,0.167524317366,0.631011857505,0.772987491224,0.0525709291884,0.0393785665516,0.0544873990602,-0.164155600718,0.0156149770873,-0.0843405326366,-0.0631226674149,-0.200049179069,3.18203830719,5.14593601227,-1.40188550949,-1.68054831028,1.45574390888,-0.228827357292
2017/07/09/10:07:23.964262,442863,1499566046,769004634,,0.789073599844,0.3768477287,0.167797490258,0.631260081067,0.772773415769,0.0522293157947,0.040050674193,0.0672417484724,-0.192132731237,0.0173968046499,-0.118064371063,-0.0955994872964,-0.215989384217,3.06977033615,3.14824223518,-0.456300348043,-0.96263229847,1.42394077778,-0.117383778095
2017/07/09/10:07:23.974117,442864,1499566046,778993885,,0.790301316367,0.37422709734,0.168491310744,0.632666413029,0.771555412779,0.0524228949103,0.0410766956422,0.0665523614412,-0.192466275212,0.0271772362694,-0.112708530136,-0.102068933519,-0.218852987714,3.08369064331,1.77707612514,0.0498779527843,-0.674701929092,1.37973916531,-0.181522011757
2017/07/09/10:07:23.984274,442865,1499566046,788992545,,0.790417465843,0.372266077419,0.16860036061,0.633525735356,0.770872324484,0.0517138319082,0.0415533581785,0.059197792781,-0.191815008821,0.0365613681209,-0.0988838207514,-0.0812330916041,-0.235834845892,2.25841641426,1.5219398737,-0.381669223309,-0.667157888412,0.973777592182,-0.194658011198
2017/07/09/10:07:23.994363,442866,1499566046,799018223,,0.791174492745,0.371041354354,0.168695880144,0.634451390664,0.770073821026,0.0520172672386,0.0418562655378,0.0510672625486,-0.173363095683,0.021260913719,-0.0690679858381,-0.051159490666,-0.240862553916,1.99102640152,1.52990722656,-0.786642730236,-0.777880907059,0.808464765549,-0.177476659417
2017/07/09/10:07:24.004260,442867,1499566046,808994959,,0.791588650011,0.368928083251,0.168776392837,0.635231382294,0.769423993887,0.0514341036374,0.0426888927375,0.0557492033217,-0.174453924115,0.0118436774236,-0.069107531669,-0.0615566765586,-0.246558230791,3.24088168144,1.72044944763,-0.793519437313,-0.860366761684,1.33509218693,-0.185602083802
2017/07/09/10:07:24.014494,442868,1499566046,819004407,,0.79212640336,0.367300725664,0.169214599323,0.635919288444,0.768830249795,0.0513662751011,0.0432228107276,0.0624732758827,-0.217103204826,0.0259342596727,-0.0961007838644,-0.0749063674877,-0.284430427621,3.6198117733,1.9668315649,-0.807241976261,-0.89235663414,1.48987185955,-0.166546136141
2017/07/09/10:07:24.024185,442869,1499566046,828992026,,0.792613417485,0.364484703233,0.169299447348,0.637185612586,0.767774345516,0.0508606808752,0.043934503773,0.0589160927404,-0.213817518399,0.0264680754655,-0.114494004788,-0.0704409503782,-0.25191978683,3.86906313896,1.80824375153,-0.964944958687,-0.720206022263,1.51767396927,-0.138531625271
2017/07/09/10:07:24.034202,442870,1499566046,838998342,,0.793706564242,0.362424885231,0.169968545993,0.638255264495,0.766815851887,0.0509752600853,0.045002105491,0.0630744799689,-0.230741011373,0.0297762637899,-0.128308943413,-0.0736802075692,-0.29121523143,4.68816518784,1.96669745445,-1.27231836319,-0.810367465019,1.76841425896,-0.176253303885
2017/07/09/10:07:24.044310,442871,1499566046,848993075,,0.793618424638,0.360936379815,0.170030411177,0.639395135265,0.765905074444,0.0507311471213,0.0446052536274,0.0408651930252,-0.205226914278,0.0220273916151,-0.104929204524,-0.0233424719017,-0.280482258933,5.14604854584,1.96875035763,-1.32023906708,-0.831488490105,1.90753090382,-0.185589969158
2017/07/09/10:07:24.054190,442872,1499566046,858995017,,0.794441843176,0.35885748988,0.170234808661,0.640095607653,0.765274161032,0.0505608828787,0.0455704799539,0.0518461199356,-0.1878588079,0.0203880045976,-0.0566525043644,-0.0454745127008,-0.286184689569,5.12541007996,1.86215829849,-1.48698699474,-0.660381495953,1.85493707657,-0.106359988451
2017/07/09/10:07:24.064418,442873,1499566046,868998614,,0.795275823204,0.357007182674,0.17081671902,0.641144735626,0.764340493745,0.050898883466,0.0461122680262,0.062493824811,-0.220184400846,0.0198387147918,-0.0815686399549,-0.0560975589137,-0.305346638403,5.38497781754,1.8625497818,-1.65126526356,-0.741513907909,1.94363796711,-0.165177851915
2017/07/09/10:07:24.074307,442874,1499566046,879004153,,0.795464258351,0.354375143455,0.170659591233,0.642493940756,0.763248535771,0.0500060253512,0.0463961869532,0.0700336677628,-0.217408674398,0.0432662637044,-0.0709216080917,-0.0910076176312,-0.301500884089,5.04057073593,1.09680008888,-1.7124029398,-0.446046352386,1.81479942799,-0.117536351085
2017/07/09/10:07:24.083971,442875,1499566046,888993703,,0.796656081652,0.351442344134,0.171419897805,0.644011162307,0.761872327189,0.0504791877413,0.0474555738761,0.0752407642265,-0.231048997629,0.0446111188586,-0.0600497167006,-0.102704116599,-0.316325817368,4.63997459412,0.273575603962,-1.97716796398,-0.0601489767432,1.6520819664,-0.0304262079298
2017/07/09/10:07:24.094344,442876,1499566046,898999392,,0.797252113255,0.350396474121,0.17157443818,0.644751990265,0.761215066619,0.0506084371043,0.0478045970065,0.0885719027466,-0.234095784822,0.0428466841269,-0.0411908849502,-0.130241642503,-0.341772081598,4.43633127213,0.0772742852569,-1.88823699951,0.0617063716054,1.60522830486,0.0223966408521
2017/07/09/10:07:24.104212,442877,1499566046,909026077,,0.797837526228,0.34895451036,0.171592577821,0.64565357042,0.760421926739,0.0508264389259,0.0480274238776,0.0779203357113,-0.227819170697,0.0357797240346,-0.0255244903564,-0.101670438373,-0.358025737673,4.40759897232,0.263915240765,-1.8896099329,-0.0594039559364,1.58148133755,-0.0319034680724
2017/07/09/10:07:24.114190,442878,1499566046,918999228,,0.798447265589,0.345904829873,0.171896884831,0.64765165482,0.758711121128,0.0505359986593,0.0484858899503,0.0730838624736,-0.203830954259,0.0324012329798,-0.00105900931958,-0.0872676481767,-0.348947400154,4.8933467865,0.861081361771,-1.83785796165,-0.331915318966,1.74417865276,-0.0743111148477
2017/07/09/10:07:24.124314,442879,1499566046,928998830,,0.799081160011,0.343942150368,0.172318335999,0.649143817792,0.757401857656,0.0506960038977,0.0488328273848,0.0661906363428,-0.211251088972,0.0196925480391,-0.00866535290041,-0.0564000802494,-0.390309302345,5.2235212326,1.54405069351,-1.93055808544,-0.687529265881,1.79923343658,-0.166338741779
2017/07/09/10:07:24.134137,442880,1499566046,938995417,,0.79965744373,0.341592926283,0.172772588379,0.650787595004,0.755957680227,0.0505417934516,0.0494875641959,0.0671248509037,-0.187086792543,0.0227818704718,0.0153792678826,-0.0674396176586,-0.421992882705,4.76549959183,1.66980195045,-1.8961108923,-0.676356315613,1.61248826981,-0.11506768316
2017/07/09/10:07:24.144202,442881,1499566046,948997056,,0.80042506168,0.340098519825,0.17301445616,0.652917899616,0.754067886411,0.0511518847077,0.049631882242,0.074510444544,-0.219301244506,0.0408091528483,-0.0115888577908,-0.0928475834177,-0.505333037336,3.85554718971,1.58003389835,-1.74828517437,-0.601719617844,1.30712020397,-0.11943538487
2017/07/09/10:07:24.154200,442882,1499566046,959004473,,0.801797241047,0.337032567953,0.173207009863,0.655199942921,0.752021020402,0.0512480280252,0.0505080121797,0.0786163381116,-0.229947939945,0.0360654412547,-0.0137940426384,-0.0945355100651,-0.543885430613,3.82484936714,1.46048879623,-1.47861671448,-0.525509476662,1.32223057747,-0.0899416357279
2017/07/09/10:07:24.164162,442883,1499566046,969004138,,0.802320343302,0.334824327928,0.173563385757,0.65736157584,0.750093664699,0.0511410179943,0.0511844611809,0.0919245216623,-0.248187192292,0.0336724376658,-0.0123910539308,-0.120227704029,-0.627980524195,3.43786811829,1.17547762394,-1.30730509758,-0.387629568577,1.1916333437,-0.0733872950077
2017/07/09/10:07:24.174160,442884,1499566046,979000717,,0.802641955177,0.332717832285,0.17364091664,0.658788610262,0.748854474821,0.0511311880379,0.050991608529,0.0872516158378,-0.234830547096,0.0366114340845,0.0014571285701,-0.1159828819,-0.559646777877,2.89726090431,1.11894977093,-1.14677488804,-0.36515250802,0.962331652641,-0.0612089522183
2017/07/09/10:07:24.184064,442885,1499566046,988997733,,0.803738370845,0.330537043384,0.174168284791,0.659880765063,0.747794962244,0.0516085350423,0.0519290810054,0.0685689160081,-0.238435800906,0.0155833422419,-0.00100993288868,-0.0625563038776,-0.418606979228,2.73387265205,0.971337556839,-1.17718756199,-0.387052834034,0.839233219624,-0.104912146926
2017/07/09/10:07:24.194306,442886,1499566046,999005113,,0.804624048422,0.328649333762,0.174354066135,0.661141227301,0.746636716462,0.0519915476881,0.0521801702114,0.0686276212713,-0.235654123647,0.0233456345856,-0.00914538147406,-0.0668230632357,-0.356083206236,2.16049051285,0.943986654282,-1.0171431303,-0.370152324438,0.601574838161,-0.116801433265
2017/07/09/10:07:24.204276,442887,1499566047,8994751,,0.804813067673,0.326232086526,0.174313645219,0.662483027027,0.745471289383,0.0517082505092,0.0521061650509,0.0616396335335,-0.252808276904,0.0283153865502,-0.0207475369062,-0.0539727415296,-0.364226119218,1.60907781124,0.887850880623,-0.966341793537,-0.433448493481,0.338779181242,-0.130157351494
2017/07/09/10:07:24.214293,442888,1499566047,19004552,,0.805981675491,0.323229224229,0.174885350014,0.663936284867,0.744083078655,0.0518808173475,0.0532668986128,0.0743250654093,-0.255488795397,0.0319880043983,-0.0187753681932,-0.0839902914879,-0.370950148691,1.54731357098,1.02346658707,-0.7552780509,-0.462944477797,0.375590443611,-0.135584667325
2017/07/09/10:07:24.224448,442889,1499566047,29009366,,0.80611126987,0.321535936078,0.174536533337,0.665064024194,0.743099936972,0.0519523129231,0.0528515333581,0.0718634734461,-0.258124976489,0.0359908125853,-0.0327097850027,-0.0930161245559,-0.363649612334,1.73635041714,0.998902499676,-0.526955604553,-0.477239280939,0.45797097683,-0.121370695531
2017/07/09/10:07:24.234436,442890,1499566047,39004851,,0.807083959465,0.318694862179,0.175597433546,0.666344735135,0.741860590009,0.0523132834073,0.053766898068,0.0669599063605,-0.254809339463,0.0280919610485,-0.00962832263575,-0.0823579098182,-0.376655316519,1.55871784687,0.942339837551,-0.622864842415,-0.407017499208,0.382663339376,-0.0902126207948
2017/07/09/10:07:24.244046,442891,1499566047,49004052,,0.807700287545,0.316471859258,0.176012619489,0.667073998769,0.741142671849,0.0523378961704,0.0545945487716,0.0607854069858,-0.271864229308,0.0295186868805,-0.0357077609688,-0.0775142350893,-0.378519212215,1.66976666451,0.814086019993,-0.606567442417,-0.264609217644,0.397253066301,-0.0345445163548
2017/07/09/10:07:24.254267,442892,1499566047,58997470,,0.807876800873,0.313355893332,0.175939300488,0.668987198165,0.739446521468,0.052054584633,0.0544544837378,0.0639051085415,-0.289710802118,0.0359135113467,-0.052281107853,-0.089633361682,-0.380856518978,1.74031591415,0.456185460091,-0.669879615307,-0.104875266552,0.392449915409,0.00498655438423
2017/07/09/10:07:24.264227,442893,1499566047,68997793,,0.808278497071,0.310589145999,0.176018041529,0.669960261266,0.73854382504,0.0516183600766,0.0551526220813,0.0538208702447,-0.294251432801,0.0257081794146,-0.0650931760275,-0.0576490298799,-0.373009751543,1.68564403057,0.577734351158,-0.808596909046,-0.177882909775,0.340635448694,-0.0629020482302
2017/07/09/10:07:24.274060,442894,1499566047,78999362,,0.809261420365,0.307257044166,0.176685522362,0.671596542257,0.736963641901,0.051928498195,0.056090159746,0.0520363290428,-0.307640286402,0.0325485144836,-0.0480370621623,-0.0661461517744,-0.431307818821,2.11313652992,0.536473751068,-0.716362476349,-0.180120006204,0.465320914984,-0.0452391579747
2017/07/09/10:07:24.284224,442895,1499566047,89003209,,0.809939313216,0.304634526417,0.177506735496,0.673058721992,0.735571198761,0.0521338409867,0.056648309136,0.047338367164,-0.292790983635,0.0297857375453,-0.0427604164023,-0.0595027802697,-0.40480562347,2.32988929749,0.76881980896,-0.886919260025,-0.31693726778,0.56037735939,-0.103439413011
2017/07/09/10:07:24.294635,442896,1499566047,99000013,,0.810434749974,0.301109229826,0.177620356405,0.675059282893,0.733723907109,0.0520248338577,0.0568999945492,0.0549212842849,-0.303977093155,0.0351240524558,-0.0252583223275,-0.0748126140762,-0.426315692948,2.45265579224,0.830096006393,-0.903985023499,-0.310451894999,0.608665883541,-0.0479936413467
2017/07/09/10:07:24.304288,442897,1499566047,108995668,,0.810731506762,0.298070892444,0.177559052398,0.676363191067,0.732506184472,0.0517901624615,0.0573175588533,0.0559633591747,-0.326690607516,0.0411528729769,-0.0453894377096,-0.080897983162,-0.455626504403,2.61516213417,0.964012026787,-1.08415699005,-0.402644813061,0.665814042091,-0.0973405763507
2017/07/09/10:07:24.314210,442898,1499566047,119004217,,0.811323749634,0.295756250735,0.178244530946,0.677786765098,0.731130700008,0.0520237376267,0.0578492116283,0.0466455108792,-0.318496693769,0.0187088716449,-0.0356491772753,-0.0588603967955,-0.42138270424,3.10118079185,0.801858603954,-1.10678684711,-0.302074283361,0.877670049667,-0.069410726428
2017/07/09/10:07:24.324095,442899,1499566047,129004327,,0.811512862142,0.292187471303,0.178684558063,0.679072540223,0.729914544479,0.051651460091,0.058458271807,0.0440301853241,-0.337229546125,0.026035873463,-0.0522548434943,-0.0531126467929,-0.453490177848,3.34968066216,0.932908177376,-1.30511343479,-0.342352539301,0.943795681,-0.0824289098382
2017/07/09/10:07:24.334166,442900,1499566047,139004249,,0.81235780466,0.288826076604,0.178784175395,0.680767910871,0.728276330311,0.0518520260657,0.0589915725291,0.0486893485473,-0.344214754374,0.0518619491273,-0.065867595642,-0.0874309771084,-0.443393568027,2.85076498985,0.0039642509073,-1.11866247654,-0.144431933761,0.722212851048,-0.0512000620365
2017/07/09/10:07:24.344486,442901,1499566047,148996893,,0.812306619924,0.285741770851,0.179211091318,0.682216265154,0.726945893761,0.051440878411,0.0590294090369,0.0460154401354,-0.348323069782,0.0476265505169,-0.0499780572129,-0.0756783350497,-0.461466391785,2.74078154564,0.0677326396108,-1.39611756802,-0.100415229797,0.601431310177,-0.0321574956179
2017/07/09/10:07:24.354091,442902,1499566047,158992740,,0.812380567699,0.283017128967,0.179215792578,0.683790622531,0.725468384259,0.0514550900655,0.0589778067238,0.0508023163264,-0.330879876919,0.0423321430651,-0.0271348008037,-0.0752934061111,-0.464520144256,2.59353542328,0.508427321911,-1.58609867096,-0.264772385359,0.501591384411,-0.0551767870784
2017/07/09/10:07:24.364012,442903,1499566047,168992835,,0.813151753209,0.279000160757,0.179475171464,0.685720185268,0.72356438836,0.0514373252957,0.0599717014827,0.0463781677972,-0.335194987488,0.0367506594176,-0.0239435398596,-0.0738614413611,-0.472029591739,2.17598247528,-0.0471623465419,-1.72776126862,0.0356606841087,0.338324010372,0.0761857628822
2017/07/09/10:07:24.374219,442904,1499566047,178995929,,0.813709890386,0.275712592418,0.180147860766,0.686752941024,0.72253236431,0.0515019442095,0.0605386674891,0.0439348397553,-0.354971088759,0.0361836720356,-0.03456859026,-0.0734062384059,-0.466042172067,2.23729538918,0.0255975145847,-1.88296675682,-0.00599921867251,0.32635974884,0.00914958491921
2017/07/09/10:07:24.384242,442905,1499566047,188992536,,0.814275367624,0.272322598888,0.180440731071,0.688787772855,0.720532874191,0.0516596954205,0.0611151130555,0.0563724183747,-0.351296401719,0.0366803525636,-0.0392043250204,-0.101053884342,-0.435787141004,2.0611512661,-0.0952917635441,-1.65551233292,0.175083756447,0.312852621078,0.084881208837
2017/07/09/10:07:24.394318,442906,1499566047,199000398,,0.815355553112,0.26871868876,0.181241914905,0.690521624487,0.718750927125,0.0523794225038,0.0619143519045,0.0543152172243,-0.360763407828,0.0437673259589,-0.0244211260106,-0.108692465945,-0.485217755787,2.28943634033,-0.0728814452887,-1.50837767124,0.104693621397,0.416129887104,0.0262252222747
2017/07/09/10:07:24.404234,442907,1499566047,209005090,,0.815710293771,0.265590100146,0.181405563213,0.692008714982,0.717277646396,0.0524560776501,0.0623303801297,0.0491072392779,-0.363487849743,0.0402345868467,5.57746702791e-06,-0.0950917786495,-0.514793887488,2.20865702629,-0.233450368047,-1.62289977074,0.0793382897973,0.386402606964,-0.0105980765074
2017/07/09/10:07:24.414802,442908,1499566047,219008381,,0.815803186052,0.261782247908,0.181691431931,0.693987725889,0.715362444412,0.0522970992895,0.0624709760361,0.0548791562999,-0.368683764826,0.0439588733159,-0.00570238650515,-0.109298654276,-0.496978572747,2.02610659599,-0.370508372784,-1.57686531544,0.0863344371319,0.311021566391,0.0330153107643
2017/07/09/10:07:24.424351,442909,1499566047,228995753,,0.816605936214,0.25883342903,0.18260003651,0.694994997416,0.714276154387,0.052808683313,0.0632674624721,0.0586781527427,-0.373907784296,0.0550445715349,0.0142122598207,-0.120359875091,-0.512309702931,1.95747959614,-0.211176589131,-1.56055748463,0.0932454094291,0.272319704294,0.0138424765319
2017/07/09/10:07:24.434300,442910,1499566047,239005527,,0.816715555501,0.255482641462,0.182647692605,0.697280280209,0.712049364127,0.0528554488632,0.0631839805942,0.0500096606938,-0.342113736633,0.050611533673,0.037532901629,-0.112719838398,-0.490369466996,1.48132705688,0.0180989373475,-1.54800963402,-0.169148951769,0.103999219835,-0.0331073403358
2017/07/09/10:07:24.444267,442911,1499566047,249004197,,0.817757035157,0.251586838014,0.183476913921,0.69886653105,0.710334404917,0.0535451756203,0.0643701727258,0.0455365783708,-0.360958602207,0.0463191568474,0.025857166807,-0.104910992893,-0.513968103137,2.56794667244,1.63611924648,-1.4538141489,-1.10708725452,0.462614506483,-0.330717772245
2017/07/09/10:07:24.454172,442912,1499566047,258991193,,0.817518596427,0.247413364807,0.183387627088,0.70067047816,0.708607295239,0.0529186019949,0.0643133246854,0.0530199149592,-0.35062379768,0.0561969304824,0.000893380309374,-0.126568282176,-0.473936330392,2.8968629837,2.60705590248,-1.47350716591,-1.58787178993,0.599258542061,-0.462989032269
2017/07/09/10:07:24.464415,442913,1499566047,269006921,,0.818218809017,0.244216444276,0.184133127111,0.702286583795,0.706895579099,0.0533792447681,0.0651371683454,0.0422236285776,-0.371111841722,0.0320667712138,-0.00366769040268,-0.0889210544065,-0.501403194055,3.03660917282,2.69619083405,-1.48993730545,-1.529037714,0.63565737009,-0.404852330685
2017/07/09/10:07:24.474267,442914,1499566047,279012171,,0.818573476505,0.240561508923,0.184686360841,0.703895446101,0.705246951897,0.0531964732719,0.0657880918575,0.0500228913198,-0.386913855908,0.0617614564684,-0.026906750683,-0.127875159196,-0.512255256285,1.4644163847,1.43922543526,-1.34713351727,-0.760593891144,0.0393733084202,-0.168454498053
2017/07/09/10:07:24.484213,442915,1499566047,289004559,,0.81937671528,0.236665238994,0.185470407975,0.705564113951,0.703451022314,0.0537805195539,0.0666603032229,0.0467357649025,-0.412922310713,0.0536856063595,-0.0633260194312,-0.119974457097,-0.528816668438,0.71322786808,0.14969573915,-1.34841310978,-0.0412565246224,-0.214092239738,0.0219053402543
2017/07/09/10:07:24.494251,442916,1499566047,299004686,,0.81977001355,0.232641652351,0.185879179182,0.707269444506,0.701671412794,0.0537407965476,0.0673727550474,0.0487075248748,-0.411552964507,0.0566676777576,-0.068301176402,-0.133176906143,-0.513583938795,-0.163363277912,-0.645104587078,-1.22441887856,0.328346014023,-0.535816431046,0.0817015171051
2017/07/09/10:07:24.504303,442917,1499566047,309004088,,0.820156650373,0.228971216273,0.186275338239,0.708749357236,0.700100711428,0.0539701015617,0.0679747792378,0.0438716451494,-0.419468851203,0.0546319342409,-0.0408577693509,-0.124101518906,-0.541097906205,-0.361485183239,-0.85341578722,-1.15826511383,0.375459223986,-0.632025301456,0.0705084204674
2017/07/09/10:07:24.514302,442918,1499566047,319004557,,0.820081999932,0.225119668398,0.186767260351,0.711027459492,0.697798525169,0.0538366636488,0.0679616345296,0.0506388680425,-0.394554397775,0.0679009072671,0.0145520110732,-0.1523395094,-0.559985431504,-0.671329021454,-0.585943222046,-1.2179543972,0.095992513001,-0.725731551647,0.00656966865063
2017/07/09/10:07:24.524275,442919,1499566047,328998323,,0.820966934298,0.222253169471,0.18717862549,0.712662199901,0.696014133122,0.0547923797984,0.0683718541732,0.0404715347289,-0.371126652995,0.0616765700067,0.0377923738716,-0.127003918788,-0.544900616527,-0.825998365879,0.463270813227,-1.26437103748,-0.409044742584,-0.811358273029,-0.103573106229
2017/07/09/10:07:24.534356,442920,1499566047,339004479,,0.821881461743,0.217814620393,0.188481780404,0.714707022916,0.693734683027,0.0556658179401,0.0694793327068,0.0443578401838,-0.383619236629,0.0474601843141,0.0264683176266,-0.124923688129,-0.554555099336,-0.44365260005,0.171767070889,-0.865081965923,-0.445310145617,-0.664131700993,-0.0901254788041
2017/07/09/10:07:24.543968,442921,1499566047,348998486,,0.821673856075,0.213641204024,0.188001894247,0.716233904237,0.69219443943,0.0548594635604,0.0697588109227,0.0368652928858,-0.378597933126,0.0500048903366,0.0199849836405,-0.121820240279,-0.528509272851,-1.39003837109,0.32989269495,-0.883679926395,-0.491276264191,-0.998457849026,-0.122977912426
2017/07/09/10:07:24.554214,442922,1499566047,359004708,,0.822184875607,0.209814631191,0.18875914133,0.718202678769,0.69003123261,0.0552815807168,0.0706098935397,0.0294946223002,-0.421664334359,0.0479364544593,-0.0272843514272,-0.105993360596,-0.545826641256,-1.37181341648,0.0300311259925,-0.518032431602,-0.245586410165,-0.992980718613,-0.0480275452137
2017/07/09/10:07:24.564563,442923,1499566047,369003694,,0.822272646226,0.20582355321,0.189088998505,0.719681515299,0.688461120244,0.0550233503712,0.0710790641678,0.0349203830531,-0.392820836482,0.0601046349818,-0.0145211545015,-0.126030876934,-0.518943749539,-2.13512182236,-0.409576803446,-0.408477723598,-0.0870137438178,-1.22343671322,-0.0167485065758
2017/07/09/10:07:24.574236,442924,1499566047,379003694,,0.822665783184,0.202605807028,0.19001282844,0.721382709758,0.686582727126,0.0555959437316,0.0715558237734,0.0237592616458,-0.390072756894,0.052944450607,-0.0310480088106,-0.106992879196,-0.493478581099,-2.44960379601,-0.276244074106,-0.246289864182,-0.0533741116524,-1.36328113079,-0.00387019664049
2017/07/09/10:07:24.584250,442925,1499566047,389004852,,0.822715215282,0.199182375157,0.190269591814,0.722923396601,0.684911391504,0.0560019018993,0.071707289862,0.0226922311451,-0.378550136188,0.0453980290429,-0.00555188388079,-0.101426742723,-0.502257967768,-2.42587184906,-0.177896261215,-0.11271365732,-0.244290828705,-1.2830773592,-0.0728323161602
2017/07/09/10:07:24.594211,442926,1499566047,398995507,,0.823015075788,0.194595150892,0.191226192988,0.724971871802,0.682642004978,0.055906562121,0.0727333104432,0.0217974598345,-0.409360023411,0.0604898481054,-0.00702547072993,-0.116330388456,-0.545388398553,-2.91707730293,-0.0528045520186,0.0683341696858,-0.225426211953,-1.42903852463,-0.0315576605499
2017/07/09/10:07:24.604397,442927,1499566047,409004050,,0.82298892612,0.191744543153,0.191206121748,0.726426996077,0.681096962653,0.056042098438,0.0725949725465,0.0264650608702,-0.380098528534,0.0518077003381,0.0240722452936,-0.124387230534,-0.547348202456,-4.35726928711,0.136276900768,0.155971944332,-0.32536816597,-1.94563043118,-0.0599211864173
2017/07/09/10:07:24.614391,442928,1499566047,419031395,,0.82318870945,0.187428621473,0.191870636584,0.728105959771,0.679192751057,0.0563165401776,0.0733986754623,0.00546107924761,-0.407812553624,0.0551549320378,-0.0119640381422,-0.0837350466387,-0.544468286068,-4.36281347275,0.167255938053,0.154554784298,-0.338596969843,-1.92605578899,-0.0592116005719
2017/07/09/10:07:24.624411,442929,1499566047,429004023,,0.823149434876,0.183268445073,0.192305277185,0.730247656915,0.676867377804,0.0561108151626,0.0737596695856,-0.0042114744276,-0.414401141874,0.0552738006834,-0.0293055506776,-0.0704461372484,-0.527592619493,-4.74444246292,-0.276502370834,0.103240959346,-0.183018356562,-2.04761838913,-0.00775671098381
2017/07/09/10:07:24.634305,442930,1499566047,439005206,,0.822529341035,0.179550336338,0.192900604711,0.731677935548,0.675340185826,0.0555648293943,0.0739971740959,-0.0137502255556,-0.411725209621,0.0452272587272,-0.0204029803496,-0.0364471113097,-0.537815828248,-4.55239343643,-0.0330102927983,-0.0790070593357,-0.198634788394,-1.9642739296,-0.00805819407105
2017/07/09/10:07:24.644153,442931,1499566047,448994154,,0.822933528092,0.176118640553,0.193875908894,0.733357913799,0.673410910809,0.0560279828422,0.0745974571281,-0.026036761821,-0.418482551212,0.0488214429173,-0.0318377205077,-0.0142244570644,-0.549858441759,-4.73329687119,0.258525490761,0.0648538246751,-0.20083090663,-2.06396484375,0.0151455681771
2017/07/09/10:07:24.654234,442932,1499566047,459021042,,0.822546979846,0.172292092258,0.19365359658,0.734884064855,0.671799400567,0.0555386920948,0.0744743600193,-0.024028373837,-0.391473926254,0.0507144809645,-0.031083039498,-0.0172805510415,-0.519064788178,-5.53493499756,0.579817652702,-0.114731818438,-0.331731408834,-2.35980629921,-0.0160087645054
2017/07/09/10:07:24.664007,442933,1499566047,469005327,,0.821864239707,0.168788900485,0.193605814959,0.736293866304,0.670322842276,0.0546459051864,0.0745147945836,-0.0309617289188,-0.38370582802,0.0466016032329,-0.0381414296101,0.00640959138198,-0.50887851821,-6.41486787796,0.663487493992,-0.0223298259079,-0.288371473551,-2.69625687599,0.00931787118316
2017/07/09/10:07:24.674305,442934,1499566047,479004085,,0.821644594463,0.164686595678,0.19433012106,0.738246132587,0.668151123568,0.0546666695538,0.074687877425,-0.0486902326228,-0.386306407231,0.0314932444011,-0.0280646398934,0.0430153003569,-0.499432435005,-6.90298080444,0.110957793891,0.368161708117,-0.131098628044,-2.88695335388,0.0514269582927
2017/07/09/10:07:24.684190,442935,1499566047,488992151,,0.821072376993,0.161190665496,0.194309613253,0.739761615144,0.666515733207,0.053929691333,0.0748406209178,-0.0475719444963,-0.386343759539,0.039057605956,-0.0390547658957,0.0396281749566,-0.504436972283,-7.35628890991,0.0452340394258,0.469252347946,-0.0858438536525,-2.99859309196,0.053493924439
2017/07/09/10:07:24.694353,442936,1499566047,499027230,,0.821071642103,0.15781696766,0.195063586284,0.741268084927,0.664787981247,0.0540081167012,0.0752441996978,-0.044697023522,-0.372493403871,0.0345494454038,-0.0225322746101,0.0325417111128,-0.497581234541,-7.8314204216,0.270771384239,0.729756116867,-0.00967333093286,-3.22019648552,0.134662941098
2017/07/09/10:07:24.704409,442937,1499566047,508996866,,0.82006496396,0.154412196926,0.195238778822,0.742565435141,0.663446917729,0.0533374621364,0.0747654801548,-0.0474369927575,-0.372655506297,0.0351293222928,-0.0209561838181,0.0415659952275,-0.494993838044,-7.82889986038,-0.00193528085947,0.563381493092,0.0950462073088,-3.18729424477,0.126243337989
2017/07/09/10:07:24.714260,442938,1499566047,518994308,,0.819529875863,0.151222643187,0.195180889705,0.74433064021,0.661548472796,0.0530796840946,0.0742163278695,-0.059824519248,-0.373579114812,0.0404060025455,-0.0128906755634,0.0588958095137,-0.484440724741,-7.86897182465,0.319921284914,0.348646432161,-0.0295494757593,-3.19613862038,0.115937054157
2017/07/09/10:07:24.724043,442939,1499566047,528993548,,0.819426051331,0.147987591891,0.196129518751,0.745928158665,0.659719055779,0.0527308628445,0.0747088057438,-0.045867675514,-0.347969124222,0.0428740485464,-0.00513787727635,0.0476137971045,-0.467259819329,-7.86286401749,0.689840912819,0.102136448026,-0.1264950037,-3.15520000458,0.0725193396211
2017/07/09/10:07:24.734298,442940,1499566047,539003331,,0.81864639035,0.143274398306,0.196390245246,0.747857700648,0.657573444745,0.0519025409909,0.074914288269,-0.0519067021158,-0.376179226494,0.0374038802027,-0.0267623121973,0.0613930324251,-0.500118375531,-7.80562925339,-0.064727216959,0.100090645254,0.024173386395,-3.08989834785,0.103046961129
2017/07/09/10:07:24.746280,442941,1499566047,548997834,,0.818483614482,0.140157938697,0.197255545131,0.749008567211,0.656236582776,0.0518136794544,0.0752001083276,-0.0493671371894,-0.393509902363,0.0421509552176,-0.0147116918144,0.0389485961622,-0.545155546526,-7.85270833969,0.424526453018,0.316922932863,0.0101075842977,-3.10042619705,0.123356074095
2017/07/09/10:07:24.754239,442942,1499566047,558999088,,0.817678080947,0.136570296694,0.197035470591,0.750551512107,0.654592136093,0.0508295736572,0.074819232033,-0.0551241205129,-0.344162731707,0.0361927565652,-0.0104761244972,0.0733878343027,-0.447065284757,-8.88493061066,0.125398129225,0.383983552456,0.076037697494,-3.4505417347,0.138953775167
2017/07/09/10:07:24.764155,442943,1499566047,568997003,,0.817425787652,0.133733759461,0.197657903609,0.75218581289,0.652723886554,0.0510375564191,0.0745868530258,-0.0584466090153,-0.353031482513,0.0358272612382,-0.00976924289625,0.0880402355976,-0.475221379026,-9.19999694824,0.0956037119031,0.456509739161,0.0409677363932,-3.60986232758,0.122963950038
2017/07/09/10:07:24.774046,442944,1499566047,578998800,,0.816890261884,0.130096627002,0.197726950461,0.753785239543,0.650957513344,0.0504503926198,0.0742757453821,-0.0522354618295,-0.356873649292,0.034459065899,0.0121832752156,0.0789290598722,-0.493689908649,-9.64176082611,0.0529854893684,0.49116975069,0.159637913108,-3.80229854584,0.184797644615
2017/07/09/10:07:24.784458,442945,1499566047,588992374,,0.816390454618,0.126714244581,0.198193524143,0.755050842712,0.649531280265,0.0497854965822,0.0743555324575,-0.0571350394946,-0.35513606774,0.0298051125333,-0.0109130536774,0.101825599877,-0.476020516038,-10.0015888214,0.216093435884,0.552489757538,0.132571607828,-3.98247623444,0.202309802175
2017/07/09/10:07:24.794012,442946,1499566047,598996453,,0.815775836245,0.123455038474,0.198300195096,0.756685910931,0.647708363301,0.0490214272726,0.0741431586716,-0.0599992238524,-0.340845741107,0.0295396988886,0.00035793576844,0.115041859731,-0.471875522662,-10.2108240128,0.0561377629638,0.317086905241,0.187970906496,-4.07451438904,0.21742156148
2017/07/09/10:07:24.804452,442947,1499566047,608998332,,0.815280856482,0.120490869359,0.198747077269,0.757895095671,0.646367823544,0.0482941919118,0.073968450517,-0.0610907981712,-0.342699266748,0.0309531866407,-0.0235160262441,0.11958082933,-0.464528273147,-10.0444307327,0.632781803608,0.122108288109,0.0315701365471,-4.05615377426,0.167181134224
2017/07/09/10:07:24.814140,442948,1499566047,618997443,,0.814594451222,0.116815472582,0.199082081573,0.759755216572,0.644258957408,0.0477877005166,0.0736121075025,-0.0547641883805,-0.310399231428,0.0232425290868,0.00826878071822,0.117670582733,-0.448909535421,-9.6126127243,-0.0389073193073,0.231774941087,0.126336306334,-3.8895509243,0.17793276906
2017/07/09/10:07:24.824412,442949,1499566047,628996638,,0.81440831483,0.114680157292,0.199221710909,0.76088765815,0.642995876792,0.0473061149861,0.0732694041794,-0.0473098506012,-0.337962867389,0.0383216692948,-0.00714990527342,0.100278725113,-0.492858813667,-9.36413955688,0.469450026751,0.234239622951,0.0392074584961,-3.88245582581,0.153677850962
2017/07/09/10:07:24.834256,442950,1499566047,638994880,,0.81350386186,0.111656161347,0.199334683617,0.761949122096,0.641882308955,0.0459769977785,0.0728474602312,-0.0664983733242,-0.339449646101,0.0268446143444,-0.014415454226,0.158543792016,-0.470120487011,-9.3902387619,0.597388505936,0.0138116609305,0.0359618477523,-3.92151427269,0.158276706934
2017/07/09/10:07:24.844138,442951,1499566047,648990456,,0.81352469184,0.107733267051,0.200144914148,0.76362858404,0.639859263915,0.0455933410878,0.0732990809507,-0.0597376752715,-0.33360219592,0.02494994102,-0.0335707360661,0.15725678624,-0.463992629072,-9.46424865723,0.148454815149,-0.000596474856138,0.119633793831,-4.00059366226,0.213172614574
2017/07/09/10:07:24.854265,442952,1499566047,658993312,,0.812646827671,0.104170321399,0.199896503907,0.765293650306,0.638011929177,0.0442654514516,0.0728490002506,-0.0532499934645,-0.316395354027,0.0274426380874,-0.0171558132378,0.159158973336,-0.448037285937,-9.37473106384,0.383413553238,-0.222775325179,0.0282427445054,-4.00914144516,0.160559371114
2017/07/09/10:07:24.866288,442953,1499566047,668991444,,0.812416129695,0.101342216452,0.20013728497,0.766525841109,0.63658675631,0.0437858220956,0.0726514857854,-0.0532804993469,-0.308963435536,0.011148741755,-0.0174835178085,0.180945124742,-0.416961638492,-9.42519378662,0.360133826733,-0.311079978943,-0.012594178319,-4.1077299118,0.177078127861
2017/07/09/10:07:24.874230,442954,1499566047,678998454,,0.811932047712,0.09880238078,0.200322951782,0.767638118767,0.635380871214,0.0427665246081,0.0720686581187,-0.0390461534661,-0.316851919921,0.0388274980861,-0.0438511333276,0.140005399993,-0.420496956839,-9.40792369843,0.615683376789,-0.104309678078,-0.0610721372068,-4.15649747849,0.220410987735
2017/07/09/10:07:24.884192,442955,1499566047,688999148,,0.811761938931,0.0957306896408,0.201109324826,0.769117873163,0.633612847056,0.042256235664,0.0721586292464,-0.0441182219622,-0.313746684473,0.03318640862,-0.0512329603944,0.168651483179,-0.438626843806,-9.30549812317,0.627135396004,-0.400195896626,-0.0861456245184,-4.10638523102,0.179737091064
2017/07/09/10:07:24.894631,442956,1499566047,698994899,,0.811011564239,0.0916991469522,0.20042932274,0.770762121348,0.631760992315,0.0404386679176,0.0718923850039,-0.0365956179038,-0.327800772789,0.0362994872905,-0.0772590623608,0.157314410312,-0.437592999053,-10.2123355865,0.154210880399,-0.759358584881,-0.0489118993282,-4.44635295868,0.201776355505
2017/07/09/10:07:24.904078,442957,1499566047,708992765,,0.810981840555,0.0893900856166,0.201472624221,0.771725468258,0.630650553447,0.03987817813,0.0716199133538,-0.0403144261341,-0.334658244603,0.0228792956708,-0.10605811238,0.186507776448,-0.427624429578,-10.0360479355,0.66215801239,-0.3941873312,-0.186850517988,-4.41964769363,0.177454337478
2017/07/09/10:07:24.914351,442958,1499566047,718996375,,0.810622877677,0.0864874374772,0.201404004507,0.772554439939,0.629723177617,0.038434328671,0.0716321106907,-0.0349837391364,-0.327622685511,0.0295126223755,-0.107571644242,0.182266380913,-0.412548520537,-10.253156662,1.12545382977,-0.630227684975,-0.160548388958,-4.50258541107,0.212387233973
2017/07/09/10:07:24.924270,442959,1499566047,728998771,,0.809902696248,0.0834393668682,0.201521529149,0.774007421648,0.628089972802,0.0370041157924,0.071036558992,-0.0427291824707,-0.312217494473,0.0132207241379,-0.0960075571989,0.224744389771,-0.397975690933,-9.22286987305,0.654547393322,-0.778635919094,-0.243192344904,-4.16692018509,0.140960052609
2017/07/09/10:07:24.934031,442960,1499566047,738994997,,0.810022906677,0.0804717887607,0.202071707371,0.774913236235,0.627003413507,0.0356094539757,0.0714714106916,-0.0329189413972,-0.298953548105,0.0234564882692,-0.104360369287,0.218437266795,-0.366863647082,-8.03622245789,0.945653736591,-1.20086407661,-0.366176396608,-3.76584434509,0.108242444694
2017/07/09/10:07:24.944007,442961,1499566047,748991796,,0.809236335793,0.0776685723299,0.201867861988,0.776079492385,0.625733603103,0.0343747901921,0.0705439809287,-0.0357237890748,-0.317308020128,0.0358929767163,-0.130470676554,0.220574722538,-0.371996063579,-8.40361404419,1.00983011723,-1.38410782814,-0.299364715815,-3.93999242783,0.139820545912
2017/07/09/10:07:24.954263,442962,1499566047,758990929,,0.809379031345,0.0750581777954,0.202248630287,0.776935130645,0.62469696767,0.0329114498822,0.0710094206524,-0.0357537609665,-0.307798641431,0.0207978224483,-0.134870265974,0.232964827534,-0.353536608247,-7.70540714264,0.703411698341,-1.11939573288,-0.215510457754,-3.68272447586,0.137550547719
2017/07/09/10:07:24.964387,442963,1499566047,768997341,,0.808281993938,0.0710296150234,0.202116198891,0.778592290028,0.622795554774,0.0307460099474,0.0705296089254,-0.0311676173381,-0.306900476822,0.0112722225706,-0.148740217322,0.238682056263,-0.357383049659,-7.08374071121,0.303927838802,-1.43051683903,-0.21041944623,-3.30575060844,0.120849981904
2017/07/09/10:07:24.974355,442964,1499566047,778991997,,0.807947378117,0.0681210844048,0.201764271017,0.779472499233,0.62180831664,0.029123585647,0.0702058192374,-0.0428096638054,-0.314782000271,0.0141895209613,-0.153325838761,0.265760315651,-0.382580705704,-7.03316164017,0.0793021023273,-1.46827840805,-0.102278366685,-3.25768089294,0.155810326338
2017/07/09/10:07:24.984142,442965,1499566047,788998198,,0.808296835949,0.0663936741579,0.202649636314,0.780241750327,0.620882809807,0.0283295148086,0.0701768204117,-0.0254001478848,-0.331447911147,0.0335266112546,-0.196845354761,0.228681468817,-0.365404232773,-7.23488235474,0.956104278564,-0.789054811001,-0.277337968349,-3.36920905113,0.123849846423
2017/07/09/10:07:24.994195,442966,1499566047,798991283,,0.808493365097,0.0624588031918,0.203291338922,0.781145875682,0.619701488482,0.0268804034918,0.0711240464746,-0.0390503466607,-0.300574413229,0.0129955923472,-0.189497134358,0.282655828356,-0.311912903946,-7.53789663315,0.253055930138,-0.357947975397,-0.077201873064,-3.53530740738,0.226203620434
2017/07/09/10:07:25.004263,442967,1499566047,808990879,,0.807377799158,0.0592097966242,0.203099042307,0.782231481656,0.618489414169,0.0241920285985,0.0707071383912,-0.0423529006845,-0.322878716416,0.0245670075428,-0.213368164256,0.290216969906,-0.347358519414,-7.19422006607,0.319809824228,-0.825276613235,-0.0946951434016,-3.35853743553,0.185373678803
2017/07/09/10:07:25.014109,442968,1499566047,818995901,,0.807107942677,0.0559504556472,0.202662179563,0.783129510592,0.617434494816,0.0222414814576,0.0706267000106,-0.03539815564,-0.325370065063,0.0148624042472,-0.237386888945,0.287680881775,-0.339886345446,-6.38639354706,0.16921889782,-1.54216146469,-0.126439526677,-3.08922171593,0.14411047101
2017/07/09/10:07:25.024072,442969,1499566047,828997561,,0.806785189784,0.0535520100862,0.202705465206,0.783901900675,0.616527578577,0.0203474330983,0.0705516614841,-0.047881983348,-0.316235510195,0.0033216283437,-0.237697110393,0.323546872308,-0.329897276944,-5.32569313049,0.234366506338,-1.37508714199,-0.143472075462,-2.67250776291,0.109841249883
2017/07/09/10:07:25.034232,442970,1499566047,839004722,,0.806203173476,0.0507368982134,0.202253422941,0.784708077123,0.615606239467,0.0182074030771,0.070218815865,-0.0406947575804,-0.331120123477,-0.00513016614765,-0.249101078662,0.304861645459,-0.353428029757,-4.53878355026,0.939696848392,-1.46661520004,-0.313324004412,-2.28728365898,0.0630816593766
2017/07/09/10:07:25.044201,442971,1499566047,848990685,,0.806675497821,0.0467382098317,0.203520418288,0.785551726254,0.614392190657,0.0165886136759,0.0718020844793,-0.038037468751,-0.329327119045,0.00217517652967,-0.263721688807,0.291874764162,-0.338986718943,-3.92073869705,0.567453980446,-0.360492140055,-0.178166568279,-2.13593101501,0.114138774574
2017/07/09/10:07:25.054249,442972,1499566047,858997491,,0.805888361041,0.0437857078613,0.202988024175,0.786603596382,0.613128280212,0.0142245840514,0.0715971743308,-0.0226354481246,-0.323427997316,0.0199561920925,-0.308825858872,0.264016415422,-0.285272153403,-4.25948286057,0.477745741606,-0.519245326519,-0.234142184258,-2.1437523365,0.098950304091
2017/07/09/10:07:25.064290,442973,1499566047,868996967,,0.805029142644,0.0406384086223,0.202915372737,0.787388609946,0.612220500648,0.0117708071302,0.0711806407182,-0.0454362502258,-0.322902215578,0.0150303389556,-0.294206431065,0.313027629573,-0.293914843963,-4.42230224609,0.146741017699,-0.913700282574,-0.22675140202,-2.2150247097,0.106090143323
2017/07/09/10:07:25.074077,442974,1499566047,878998624,,0.804896376814,0.0385154910013,0.202799318031,0.788061779531,0.611401494845,0.0100235183292,0.0710378267119,-0.0654874149954,-0.320619569421,0.00220328150337,-0.286014874162,0.366104668427,-0.312165124654,-2.24409174919,0.661696255207,-1.28272128105,-0.232889860868,-1.45807111263,0.0461327508092
2017/07/09/10:07:25.084131,442975,1499566047,888991163,,0.80484391589,0.0353710178738,0.203091979891,0.789000745594,0.610151541905,0.00823228503215,0.0715901448982,-0.0609707973834,-0.312070405997,-0.00228729472439,-0.26474994268,0.354833221195,-0.342085865796,-1.54402506351,0.21823656559,-1.16000187397,-0.0924314856529,-1.21237111092,0.0452661067247
2017/07/09/10:07:25.094319,442976,1499566047,899022732,,0.804175088442,0.0324550372553,0.203565527541,0.78976279004,0.609188688271,0.00619591504306,0.0715925148882,-0.0498094669807,-0.325064102106,0.0109107704116,-0.2726442113,0.314035740166,-0.350274698382,-1.73681271076,0.431771576405,-0.715796947479,-0.188457563519,-1.23295879364,0.015879496932
2017/07/09/10:07:25.104316,442977,1499566047,908989677,,0.803144257611,0.0289919641303,0.203566593678,0.791076477823,0.607535772833,0.00377438911613,0.0713024890827,-0.0394640238578,-0.29686250645,0.0220505753668,-0.251924966196,0.293476638149,-0.316881967956,-1.83229005337,0.104713588953,-0.442203164101,-0.166434258223,-1.19562101364,0.00778413563967
2017/07/09/10:07:25.114107,442978,1499566047,918998161,,0.803723243882,0.026310406832,0.204221738063,0.791718824443,0.606617483675,0.00261734558608,0.072039440758,-0.0540493899651,-0.295841387114,0.0160490810009,-0.231014726093,0.321499077421,-0.320969584939,-0.564230382442,-0.154141575098,-0.200593397021,-0.0906639099121,-0.757083296776,-0.0278176926076
2017/07/09/10:07:25.124313,442979,1499566047,928991505,,0.802115953335,0.023007764062,0.20384046259,0.792631172882,0.605482761702,-0.000592039441501,0.0715967774818,-0.0525014551237,-0.270898515551,0.0153711870145,-0.210283570549,0.322580277424,-0.315210536411,-0.0442950874567,-0.688922286034,-0.649686694145,0.0209103636444,-0.516110599041,-0.0251804068685
2017/07/09/10:07:25.134178,442980,1499566047,938991712,,0.802218260371,0.0208025319733,0.204444356058,0.793486153521,0.604349438296,-0.00177481696677,0.0716821499799,-0.0666424077893,-0.286367797827,0.0108452684208,-0.224817446171,0.347312251881,-0.337683557965,0.835693538189,-0.272530853748,-0.658382594585,-0.0488343499601,-0.293674141169,-0.062050409615
2017/07/09/10:07:25.144505,442981,1499566047,948998851,,0.801916625303,0.0179489494319,0.204019174469,0.794436071646,0.603077333835,-0.00373015633915,0.0717993274078,-0.0523463440409,-0.271728867657,0.00953304896511,-0.211600423708,0.31874059253,-0.328367200892,2.68136548996,-0.620645701885,-0.967038214207,0.101121127605,0.41931322217,-0.123134352267
2017/07/09/10:07:25.154343,442982,1499566047,959019526,,0.801282263076,0.0158620390003,0.204091963054,0.795164173854,0.602180598121,-0.00563825366776,0.0711384141089,-0.0412307241786,-0.275936444244,0.00946427416902,-0.20054404441,0.280180956694,-0.330658314408,2.71823716164,-0.361639410257,-0.342397689819,0.0901063010097,0.430031329393,-0.142625153065
2017/07/09/10:07:25.164422,442983,1499566047,968991458,,0.800923555435,0.0133505865107,0.204711151162,0.795824141263,0.601259441114,-0.00716959348651,0.0714116067761,-0.031698238665,-0.261309214829,0.028528526687,-0.196918100767,0.242502615179,-0.32728299482,0.863310456276,-0.0499306470156,-0.579534947872,0.00463009998202,-0.205535456538,-0.0531147569418
2017/07/09/10:07:25.174303,442984,1499566047,978999147,,0.800507950679,0.0110764828156,0.204401146542,0.796589870967,0.600225706016,-0.0091576041605,0.0713429575791,-0.0389355567816,-0.281214645526,0.0321268866434,-0.229486012758,0.243865089203,-0.347636732682,1.20864570141,-0.124895185232,-0.534399688244,0.0174486637115,-0.0474170148373,-0.0900603085756
2017/07/09/10:07:25.184127,442985,1499566047,989003073,,0.800336035036,0.00881019796991,0.204487933331,0.797612540402,0.598865682326,-0.0105023003876,0.0711606043531,-0.0421539472953,-0.278795209866,0.0211518907177,-0.210631482814,0.255177006303,-0.350559662299,1.68671035767,0.628970563412,0.0804125517607,-0.154496043921,0.222283363342,-0.140807032585
2017/07/09/10:07:25.194495,442986,1499566047,999008667,,0.799842812489,0.00550927476507,0.204544553363,0.798982779509,0.597005300017,-0.0119046983856,0.071200196317,-0.0308995067476,-0.253252357323,0.0205192928809,-0.162723371811,0.221588606606,-0.336959980037,2.3770236969,-0.5823828578,0.302914649248,0.150360763073,0.656025350094,-0.14239013195
2017/07/09/10:07:25.204517,442987,1499566048,8994860,,0.798763792973,0.00263392583749,0.204663624715,0.799810362158,0.595913551653,-0.0138978648598,0.0706913919354,-0.0436538640847,-0.266991008528,0.0146153996877,-0.158921118662,0.231362138123,-0.36520989356,2.64202356339,-0.597697615623,-0.0841763019562,0.108036726713,0.90703368187,-0.208273276687
2017/07/09/10:07:25.214296,442988,1499566048,19012784,,0.79898022286,0.000677237607488,0.205424683393,0.80073118461,0.594628978833,-0.0145662672703,0.0709490759853,-0.0595212585707,-0.250988546603,0.0164749163539,-0.132637666047,0.268085152646,-0.354757934911,3.23694419861,-0.561959505081,0.573887169361,0.108468577266,1.12701189518,-0.234350010753
2017/07/09/10:07:25.224176,442989,1499566048,29004029,,0.798696777277,-0.000529516948059,0.205684624092,0.801482471032,0.593678150246,-0.015552323159,0.070215580846,-0.0524665745172,-0.237229231274,0.0268234885711,-0.10431940959,0.238138389001,-0.356799622592,3.29662847519,-0.16960605979,0.722642242908,0.189971670508,1.1433185339,-0.229360312223
2017/07/09/10:07:25.234153,442990,1499566048,38996884,,0.797314665066,-0.00347758592314,0.205535348945,0.802664830423,0.592095933838,-0.0178671602766,0.0695150323134,-0.0649164940913,-0.236796837379,0.0300014828591,-0.131038513004,0.272984170518,-0.34533231715,3.19782876968,-0.504236936569,0.532236933708,0.229596734047,1.19452190399,-0.233754903078
2017/07/09/10:07:25.244025,442991,1499566048,48991260,,0.796642091077,-0.00567921713254,0.205296839565,0.803475648686,0.590978472921,-0.0196377996893,0.06917863353,-0.0699497870656,-0.223876970386,0.0290374944807,-0.0880182315074,0.273427063626,-0.376018018306,4.36298036575,-0.590317308903,0.095356553793,0.285580992699,1.63204705715,-0.312131255865
2017/07/09/10:07:25.254339,442992,1499566048,58999783,,0.796590627197,-0.00808162225365,0.206209061164,0.804731862341,0.589255546812,-0.0199354455855,0.0691889318725,-0.0670239738808,-0.23342496363,0.00920166031172,-0.0844021578846,0.260911953573,-0.383273113236,5.02970504761,-1.30424976349,1.01212644577,0.544408559799,1.90520334244,-0.31473788619
2017/07/09/10:07:25.264097,442993,1499566048,69008754,,0.795990972049,-0.00935551502112,0.206585534362,0.805356502982,0.588443333254,-0.0212293450922,0.0684445875121,-0.0523254411619,-0.2222562444,0.0306804418959,-0.052669643827,0.211833670573,-0.3770188654,5.38960599899,-0.868900001049,1.06724750996,0.507311582565,2.01539158821,-0.31386077404
2017/07/09/10:07:25.274227,442994,1499566048,79003953,,0.79509153396,-0.0104477396004,0.205827905146,0.80625994528,0.587337865772,-0.0223956044063,0.0669146394346,-0.0629222870586,-0.214080207813,0.0345726804921,-0.0495567740722,0.232866626346,-0.363027140201,5.37501716614,-0.241550311446,0.148162737489,0.264183908701,2.02345848083,-0.383699864149
2017/07/09/10:07:25.284192,442995,1499566048,89000335,,0.795276734176,-0.0125419774134,0.206912813371,0.807237162508,0.58596407132,-0.0225831951518,0.0671138576178,-0.0787809013608,-0.199522855478,0.0169378557479,-0.0117388943298,0.260770619007,-0.377884029871,5.75522089005,-0.77452903986,0.994412660599,0.377889424562,2.11933636665,-0.358339369297
2017/07/09/10:07:25.294111,442996,1499566048,98996284,,0.793958891881,-0.0150921585795,0.207198145112,0.808343061631,0.584459430274,-0.024076695325,0.0664001643049,-0.0649931729068,-0.190437268364,0.0223292747481,-0.000312485239428,0.215088773422,-0.350293712298,6.18742084503,-1.19124531746,1.04653704166,0.479959130287,2.39011383057,-0.417100250721
2017/07/09/10:07:25.304189,442997,1499566048,109003913,,0.79364705799,-0.0169001842111,0.207692409773,0.809454349047,0.582970367231,-0.0244523615746,0.0658125349227,-0.0699234780787,-0.220113731276,0.0288008690298,-0.00905847397412,0.186216032905,-0.397003735946,6.30864620209,-1.26903188229,1.42580842972,0.516968607903,2.41353106499,-0.421499341726
2017/07/09/10:07:25.314398,442998,1499566048,118996508,,0.793446035033,-0.0194662117687,0.207352471842,0.810796050895,0.581076946404,-0.0250204523221,0.0658279817119,-0.0581986917693,-0.197988492951,0.0226195582054,0.00854036463013,0.167260511585,-0.353359349719,7.96603488922,-1.63704717159,1.14490377903,0.571585714817,3.07562160492,-0.537184178829
2017/07/09/10:07:25.323914,442999,1499566048,128995089,,0.792868247024,-0.0200559676462,0.207204417493,0.811028186525,0.580827099226,-0.0260190359092,0.0647778606969,-0.0467618362105,-0.178486897277,0.00602738803582,0.0335077768125,0.152398238172,-0.341322820572,8.21582126617,-1.48212134838,0.988576173782,0.615611732006,3.20244812965,-0.56005859375
2017/07/09/10:07:25.334433,443000,1499566048,138997061,,0.792945760558,-0.0218137514926,0.207732244636,0.811962586232,0.57952699683,-0.0260486683757,0.0647046009194,-0.0392101905448,-0.173463649107,0.0191366519461,0.0338280940455,0.119803578982,-0.33404135227,10.4197597504,-1.80720973015,1.60724437237,0.815269291401,3.95329284668,-0.626735091209
2017/07/09/10:07:25.344883,443001,1499566048,148997405,,0.792387072445,-0.0247612767845,0.208249520191,0.813459121548,0.57742379009,-0.0263426401114,0.064591714022,-0.0356962153333,-0.198518246857,0.0295106859133,0.0298886078324,0.077350862611,-0.355487657771,10.2583084106,-2.74070096016,1.91650724411,0.98533219099,3.88870477676,-0.639345765114
2017/07/09/10:07:25.354178,443002,1499566048,158995173,,0.792554854373,-0.0256846669199,0.209132795936,0.814111088363,0.576557698464,-0.0260122506988,0.0642473264774,-0.0217244693288,-0.189938217571,0.0371380510774,0.02729415019,0.0378317374701,-0.360241071242,9.13839149475,-2.48579478264,2.15388965607,0.942620277405,3.43625187874,-0.54617536068
2017/07/09/10:07:25.364397,443003,1499566048,169001740,,0.792294094553,-0.0276702296643,0.208686345264,0.815127329629,0.575145263595,-0.0262210285024,0.0639360611897,-0.00169396715667,-0.178243648265,0.0434974351534,0.0549390481187,-0.0263811112426,-0.357183219268,7.78121471405,-1.68701851368,1.23346018791,0.707239508629,2.8684258461,-0.494231015444
2017/07/09/10:07:25.374376,443004,1499566048,178995785,,0.792489106838,-0.0292365023021,0.209271637533,0.816197360532,0.573665386677,-0.0256113233228,0.0638275246819,0.00280499270384,-0.183058910426,0.033367684616,0.0493392722,-0.0454019006533,-0.337902502469,8.0602684021,-1.86314702034,1.29248666763,0.697190344334,3.0269215107,-0.506963372231
2017/07/09/10:07:25.383994,443005,1499566048,188999157,,0.792737188606,-0.0306111460059,0.209355280404,0.816984024733,0.572550704232,-0.025340869175,0.0638798463035,-0.0025099464117,-0.182027392304,0.020430374697,0.0604319530493,-0.0396302375491,-0.350009883752,9.30026626587,-1.46008610725,1.89144074917,0.773147702217,3.50902438164,-0.568437039852
2017/07/09/10:07:25.394277,443006,1499566048,198991340,,0.792747880884,-0.0325385703823,0.209506889793,0.818042674249,0.571102210744,-0.0248176613769,0.0635022178715,0.0127037520155,-0.157330483754,0.0334127822739,0.0753345670586,-0.0793223795973,-0.311081574079,9.85916137695,-2.69077754021,1.82980692387,0.975221216679,3.79502654076,-0.609316527843
2017/07/09/10:07:25.404200,443007,1499566048,209004340,,0.792548351566,-0.0344054420942,0.209305645778,0.819055785866,0.569679115706,-0.0247900589949,0.0632358896824,-0.00117199801015,-0.192184677253,0.0329460209352,0.0432794323139,-0.0683064461356,-0.346291365907,11.3234682083,-2.80897855759,1.29335212708,1.06203460693,4.36103916168,-0.672653675079
2017/07/09/10:07:25.414284,443008,1499566048,219004339,,0.792647871532,-0.0355346322057,0.209926315145,0.819631773513,0.568856030692,-0.0245219862054,0.0632870001347,-0.0206739783387,-0.181854275375,-1.152488171e-05,0.0696550778528,-0.00737310930166,-0.345135312306,10.6060247421,-1.98224687576,1.21533858776,0.863134622574,3.99583339691,-0.635406255722
2017/07/09/10:07:25.424218,443009,1499566048,228997769,,0.792213361614,-0.037578398861,0.209832290673,0.820659249594,0.567394614345,-0.0245559035107,0.0630773752622,0.000540019079088,-0.186365035612,0.0251304732032,0.0541862166726,-0.0837500217972,-0.342957791231,9.15851593018,-1.97316396236,1.26366150379,0.821989357471,3.47379851341,-0.546361029148
2017/07/09/10:07:25.434105,443010,1499566048,239011093,,0.792176768728,-0.0394770040119,0.209419937839,0.821816821842,0.56575454495,-0.0241467901908,0.0628954587393,0.00438619948892,-0.187041945125,0.014059690112,0.031896185542,-0.0888746048246,-0.318532606279,9.19455337524,-2.76454520226,1.99928116798,1.05789732933,3.50388288498,-0.565030395985
2017/07/09/10:07:25.444174,443011,1499566048,248995368,,0.792249675125,-0.0418259670902,0.210231012052,0.822579492142,0.564578106541,-0.0238162475349,0.0636186063634,0.00462082970269,-0.182476166257,0.0219789192056,0.0418944453934,-0.111343945143,-0.31984705606,9.46549892426,-2.93972563744,2.54894208908,1.09558427334,3.61428260803,-0.576764702797
2017/07/09/10:07:25.454212,443012,1499566048,258999229,,0.792020831952,-0.0433105492217,0.210131633077,0.823381924744,0.563429067368,-0.0238286404874,0.0634199333161,-0.00453680532721,-0.218043450464,0.0274340747813,-0.000263928414874,-0.113971346348,-0.343369637864,8.38328266144,-2.10484552383,2.00712513924,0.818223178387,3.18497395515,-0.520075082779
2017/07/09/10:07:25.464214,443013,1499566048,268997624,,0.792314409733,-0.0439222683337,0.209973398461,0.824090608337,0.562499614803,-0.0227838632081,0.0628470219936,-0.00993903590901,-0.193323390953,-0.0016384219571,0.0406085686175,-0.0765805771528,-0.311977660563,9.05559253693,-0.960057556629,1.70308434963,0.645690143108,3.32303547859,-0.543837606907
2017/07/09/10:07:25.474067,443014,1499566048,279006724,,0.791952015452,-0.0474897121841,0.210006106403,0.825186755797,0.560733365734,-0.0233516942652,0.0640281889886,-0.0124860040602,-0.197714847411,-0.00206960472747,0.0197772828356,-0.0783275973681,-0.313762391866,9.16845798492,-1.70576095581,1.29937326908,0.622753441334,3.44476556778,-0.570848941803
2017/07/09/10:07:25.484003,443015,1499566048,288993798,,0.792557350642,-0.0485993000917,0.210521965545,0.825681960448,0.560047984796,-0.0218124210472,0.0641854594541,-0.0037348354985,-0.213174336347,0.0239750384983,-0.0188940002676,-0.127966476134,-0.301675058637,9.07069396973,-1.90239644051,1.51209926605,0.732226490974,3.38759994507,-0.555556237698
2017/07/09/10:07:25.494123,443016,1499566048,298995645,,0.792252172832,-0.0506568579358,0.21042992624,0.826587062323,0.558712235047,-0.0215293835002,0.0642724859861,0.00470859473189,-0.198768321621,0.0137218472423,0.0130403624121,-0.146384329897,-0.280203571462,9.53746128082,-2.35248184204,1.66657578945,0.972059488297,3.59299349785,-0.54890704155
2017/07/09/10:07:25.504232,443017,1499566048,308999032,,0.791937674057,-0.0529787479729,0.210230964174,0.827564398718,0.557215837325,-0.0216247698298,0.0646532747659,-0.00665767608345,-0.203582504616,0.00323876499055,0.0275356230249,-0.132050432849,-0.315188525896,9.40617465973,-2.50873088837,1.37813055515,0.960523307323,3.60541296005,-0.583589434624
2017/07/09/10:07:25.514212,443018,1499566048,318998018,,0.791412577371,-0.055160063467,0.210687194326,0.828477017448,0.555831613816,-0.0215502728297,0.0649048101726,-0.0190939001797,-0.202472512861,0.00770067279106,-0.00266816924279,-0.0962194470891,-0.287752584744,8.15635585785,-2.14701294899,2.04964852333,0.812719643116,3.14776158333,-0.53894007206
2017/07/09/10:07:25.524215,443019,1499566048,328996923,,0.791337292181,-0.0572288759581,0.210510810004,0.829003128601,0.555031472564,-0.0211731873339,0.0651580645209,-0.0298357859313,-0.203665102916,9.66745504275e-05,0.00612881972091,-0.0788897664041,-0.277236521309,7.8624830246,-2.175760746,1.80152690411,0.688893556595,3.01608848572,-0.522289156914
2017/07/09/10:07:25.534371,443020,1499566048,338999143,,0.791106486746,-0.0591798032306,0.210761377207,0.829959257249,0.553578473046,-0.0207042896643,0.0654968539379,-0.0239374931433,-0.207693381575,0.00412817520563,0.00206351629994,-0.10041479809,-0.259513626363,7.08909797668,-2.10015964508,1.49342668056,0.693380713463,2.70638990402,-0.493258327246
2017/07/09/10:07:25.544285,443021,1499566048,349004889,,0.79055300497,-0.0610657963913,0.210134973215,0.830486264967,0.55282583929,-0.0207820481011,0.0651479975993,-0.0311824242568,-0.208703198379,0.00343100205546,-0.00418968383356,-0.0887224528731,-0.274550971194,7.5955696106,-1.61977720261,0.937580943108,0.59030175209,2.86582231522,-0.487735927105
2017/07/09/10:07:25.554240,443022,1499566048,359025831,,0.790182435775,-0.0628487755666,0.209998861793,0.831153205822,0.551832201949,-0.0204137239554,0.0651831973524,-0.0368442311633,-0.197076643969,-0.0239186878864,0.0118402354959,-0.0601120558501,-0.273575237256,8.68682670593,-1.68247795105,0.85563737154,0.623789966106,3.30479264259,-0.566856861115
2017/07/09/10:07:25.564246,443023,1499566048,368998021,,0.789552889321,-0.0645632461894,0.20947029738,0.831754313945,0.550942138761,-0.020637785307,0.0649738623528,-0.0402203277201,-0.19156993865,-0.0198633875717,0.0114297714136,-0.0515342042919,-0.258668397524,7.51930570602,-1.55149805546,0.519476950169,0.557519495487,2.85592341423,-0.49601110816
2017/07/09/10:07:25.574298,443024,1499566048,378992230,,0.78888653101,-0.0676525382061,0.209444110719,0.832596499388,0.549603045352,-0.0206345514668,0.0655269183808,-0.0503411481217,-0.21267821892,-0.0291865700871,-0.00490701900546,-0.0425345297409,-0.244375189688,7.12828350067,-2.58513236046,0.666024208069,0.756148934364,2.78805541992,-0.500711858273
2017/07/09/10:07:25.584207,443025,1499566048,388999305,,0.788344335422,-0.06948588175,0.2098896562,0.83310142845,0.548812789104,-0.0205011066789,0.0657741366785,-0.0672985327732,-0.25127050556,-0.0125560287719,-0.0265506159917,-0.0461280904971,-0.242886402382,5.48716259003,-1.63875615597,1.05960285664,0.567585587502,2.1077735424,-0.422833383083
2017/07/09/10:07:25.594166,443026,1499566048,399008094,,0.788330528044,-0.071121496683,0.209594511925,0.833126114467,0.548753292989,-0.0200768190089,0.0660879880532,-0.0641298156263,-0.207942123168,-0.0224704977084,-0.00419710802588,-0.00689565122918,-0.122681553852,5.56063747406,-1.02192783356,0.804578304291,0.391620576382,2.11560225487,-0.422697484493
2017/07/09/10:07:25.603926,443027,1499566048,408997060,,0.78695220907,-0.0738501590791,0.209541429606,0.83380378592,0.547722115372,-0.0205795997081,0.0659409659683,-0.0781829137925,-0.204442858987,-0.0173145271381,0.0173890706375,0.00897616253316,-0.131734854745,2.43143725395,-0.923980772495,0.700850069523,0.208168655634,1.0087171793,-0.276309847832
2017/07/09/10:07:25.614190,443028,1499566048,418999789,,0.786432885015,-0.0756734969791,0.209180126847,0.833960226459,0.547490768817,-0.0204173200446,0.0659342990201,-0.0823937717304,-0.22608973045,-0.0292986863944,-0.0212015584294,0.0153889910647,-0.127896094118,3.47411942482,-1.11031448841,0.47200524807,0.333937048912,1.40369176865,-0.316255062819
2017/07/09/10:07:25.624141,443029,1499566048,428995848,,0.785748147473,-0.0772678931659,0.209166825285,0.834454387395,0.546715904233,-0.0207279399044,0.0660147553382,-0.085960256378,-0.211304849609,-0.0476610635818,0.0146400285429,0.0272074835924,-0.167924480185,3.66495418549,-0.929905712605,0.755145668983,0.361006259918,1.4952378273,-0.329058349133
2017/07/09/10:07:25.634318,443030,1499566048,438991845,,0.784961313295,-0.0783625843559,0.208542041968,0.83482557592,0.546227728275,-0.0207253266962,0.0653604428246,-0.0784701169667,-0.19508883324,-0.00523682008865,0.00902812914574,-0.0100005489436,-0.19492362207,2.36577534676,0.018144056201,0.307248562574,0.0724943727255,0.946985781193,-0.252548843622
2017/07/09/10:07:25.644360,443031,1499566048,449001190,,0.783873186107,-0.080877935033,0.207864976086,0.835479378811,0.545205169204,-0.0212916104579,0.0653620561085,-0.0854178153404,-0.187089810149,-0.0210223413137,0.00282581302159,0.0211045535498,-0.199749147174,1.51091909409,-0.108487308025,-0.202840462327,0.00279542058706,0.643746972084,-0.253488749266
2017/07/09/10:07:25.654018,443032,1499566048,458996181,,0.782740009538,-0.083251142845,0.207731957784,0.836227334854,0.54408954264,-0.0211466143137,0.0651401161756,-0.104725402329,-0.186163038153,-0.0572262064645,0.0324399452329,0.0779396603194,-0.220294433699,2.0956466198,-0.931059658527,-0.0430566519499,0.120967827737,0.990911900997,-0.321556925774
2017/07/09/10:07:25.664282,443033,1499566048,469001156,,0.781833091281,-0.0850171746358,0.207071549583,0.836878714356,0.543104658783,-0.0215203027017,0.064870822698,-0.121716532232,-0.212265311081,-0.0681168662934,0.0450400298879,0.0853218154699,-0.262447054607,1.40814065933,-0.463759750128,-0.150639295578,0.0982208251953,0.654124796391,-0.259476929903
2017/07/09/10:07:25.674256,443034,1499566048,479016663,,0.780942513213,-0.0864810168687,0.206643232077,0.837550478614,0.542122133372,-0.0216212541928,0.0643840791578,-0.108090620796,-0.203828513952,-0.0415109453445,0.0191823353008,0.0515577243727,-0.286913674047,-0.61250013113,1.04155468941,0.0564008280635,-0.38937741518,-0.181965053082,-0.203686505556
2017/07/09/10:07:25.684273,443035,1499566048,489017175,,0.779376760988,-0.0880867824593,0.20577226617,0.838362957713,0.540948312167,-0.0223328305891,0.0634327941705,-0.104063353895,-0.182067203222,-0.0418056600692,0.0256832189344,0.0599475434911,-0.254568584636,-1.02740633488,1.02140378952,0.0684346184134,-0.41383227706,-0.272935211658,-0.189500808716
2017/07/09/10:07:25.694209,443036,1499566048,499007767,,0.778097413674,-0.0899602946717,0.20521864019,0.838933622709,0.540082967637,-0.02289429455,0.0630604157373,-0.118824103967,-0.184341013437,-0.0573183781105,0.038293722358,0.0918919254094,-0.273270872651,0.720074772835,0.784553408623,0.419259995222,-0.244773924351,0.335134506226,-0.282836288214
2017/07/09/10:07:25.704281,443037,1499566048,509003958,,0.776878851553,-0.093050765518,0.205512708379,0.840072303724,0.538272356395,-0.0229193784151,0.063372682987,-0.113320980015,-0.17310490109,-0.0521681244363,0.0285003675959,0.0907506288072,-0.240309758434,0.955619692802,-0.722177088261,1.1356099844,0.168798863888,0.546983242035,-0.289698690176
2017/07/09/10:07:25.714199,443038,1499566048,519004482,,0.777088800484,-0.0935675434442,0.204998984909,0.840445078583,0.537738015827,-0.0220831041424,0.0632632020378,-0.116892601509,-0.212115416189,-0.0391776985216,0.047145866321,0.0375092199829,-0.317752054467,1.5789796114,-0.278691023588,0.792184472084,0.160873770714,0.63933968544,-0.315422594547
2017/07/09/10:07:25.724390,443039,1499566048,529009126,,0.775672049503,-0.0951089179708,0.203842798096,0.840799054853,0.537248216594,-0.023035606431,0.0623751870649,-0.103792337096,-0.1914924577,-0.038927840469,0.0256500460969,0.0428202666166,-0.273936118246,2.40475034714,-0.0642835199833,0.210226625204,0.140651732683,0.941800355911,-0.340263664722
2017/07/09/10:07:25.734198,443040,1499566048,539008121,,0.774751111369,-0.0971583757375,0.203909355845,0.841716568513,0.535787346176,-0.0232345697642,0.0624923414281,-0.0922606331677,-0.158632688437,-0.0617166631207,0.0582252589372,0.0570943765456,-0.228215050701,2.03865146637,-0.604385375977,0.529715299606,0.256431013346,0.830069363117,-0.362738370895
2017/07/09/10:07:25.744412,443041,1499566048,548992261,,0.774325614132,-0.0978343249248,0.203493803295,0.841941858928,0.535482096024,-0.0230867411698,0.0621275575308,-0.092332685563,-0.170353204312,-0.0469622140855,0.0370160176126,0.0422214470027,-0.250569711144,0.34108287096,0.253725588322,-0.135350719094,-0.0150750726461,0.121264204383,-0.246166214347
2017/07/09/10:07:25.754201,443042,1499566048,559004558,,0.773334068775,-0.0999585547327,0.203218350484,0.842809982097,0.534104627386,-0.0232628222521,0.0621483884272,-0.0798265361028,-0.1709735843,-0.0283778135398,0.0125704273533,0.00346239152572,-0.238890507079,-2.30787777901,0.84180021286,-0.387922942638,-0.255109548569,-0.829191744328,-0.108083233237
2017/07/09/10:07:25.764064,443043,1499566048,568993489,,0.77248994644,-0.101256196028,0.202821387957,0.8434598792,0.533157137624,-0.0230911703603,0.0615280150132,-0.0845847991848,-0.170360838715,-0.0375695462939,0.0398644052632,0.00956678551638,-0.242409498714,-1.2565921545,0.92944419384,-0.0717167556286,-0.298224210739,-0.380347371101,-0.208358377218
2017/07/09/10:07:25.774029,443044,1499566048,578999625,,0.77157107774,-0.103813888871,0.202535632402,0.844262273526,0.531857103653,-0.023055426776,0.0617873942723,-0.100898945596,-0.195030279111,-0.0414501956038,0.0134056211741,0.0320442171281,-0.261538475269,-1.69761872292,0.508926033974,-0.0363152474165,-0.168750137091,-0.507739067078,-0.180672198534
2017/07/09/10:07:25.784258,443045,1499566048,589004892,,0.770752809128,-0.104987657126,0.202144761758,0.844688382156,0.531201311006,-0.0233250327861,0.0615032282171,-0.0851562695835,-0.178133501462,-0.0431825635322,0.00770540569302,0.0142520645065,-0.243980770688,-1.12586009502,1.25798010826,-0.246883913875,-0.319994419813,-0.28002178669,-0.209608703852
2017/07/09/10:07:25.794157,443046,1499566048,598996426,,0.770359646923,-0.106511446582,0.202181200905,0.845235239133,0.530310153877,-0.0231268890455,0.0617549854336,-0.0714048108594,-0.148589001983,-0.0318700253049,0.00748694797605,0.0111859909217,-0.19720825953,-0.680315673351,0.850152015686,0.251049339771,-0.278697043657,-0.0738753005862,-0.245613619685
2017/07/09/10:07:25.804115,443047,1499566048,608992804,,0.768854104399,-0.107697282413,0.201019267957,0.845884113091,0.529357490907,-0.0240231350673,0.0606926933162,-0.1006501897,-0.165837221579,-0.0433164129135,0.0342047918418,0.0549527901402,-0.226417133634,-0.643011212349,1.04009234905,0.0406121760607,-0.20038433373,-0.128355428576,-0.23485429585
2017/07/09/10:07:25.814211,443048,1499566048,618998391,,0.767835315753,-0.109041111129,0.200895862691,0.84636887504,0.528632700655,-0.0240632759316,0.0602341590252,-0.110593314157,-0.169354577797,-0.0405377069622,0.0382544241598,0.0653712649039,-0.255239845869,-0.722338557243,1.49433338642,-0.336644768715,-0.339808762074,-0.13240660727,-0.253510117531
2017/07/09/10:07:25.824159,443049,1499566048,628997902,,0.767007214977,-0.111117077743,0.200365756827,0.846767895911,0.527923765858,-0.0247690288412,0.0605567759052,-0.082201431875,-0.130660995203,-0.0472684383389,0.0362288682562,0.0541616375933,-0.174903308417,-2.15004062653,0.651185870171,-0.760142862797,-0.238268733025,-0.641720175743,-0.164580762386
2017/07/09/10:07:25.833966,443050,1499566048,638992508,,0.766174399292,-0.112204008713,0.19992678846,0.847259380373,0.527181950776,-0.0248683863174,0.0601023835511,-0.0879547462858,-0.143919126668,-0.0489562765353,0.0187282204494,0.0603711302162,-0.194781127642,-2.06426692009,0.801491260529,-0.571698248386,-0.256277322769,-0.612733900547,-0.173023015261
2017/07/09/10:07:25.844658,443051,1499566048,648994193,,0.765595934432,-0.113523401894,0.199882053994,0.847509645781,0.526783924448,-0.0248210398759,0.0600833856536,-0.0967756905834,-0.175375417244,-0.0326687895473,0.0100509098573,0.0334369572125,-0.233878332311,-2.5326654911,1.79266941547,-0.57114303112,-0.506152391434,-0.883379280567,-0.143039613962
2017/07/09/10:07:25.854257,443052,1499566048,658991475,,0.764700018338,-0.11556320084,0.199690848127,0.848409881883,0.525324424541,-0.0248443921493,0.0601471319549,-0.0966445515342,-0.149214060674,-0.0385365977167,0.0331207633386,0.0628265166594,-0.177247434402,-3.34791994095,1.33437776566,-0.457600951195,-0.391212642193,-1.19977760315,-0.0884867310524
2017/07/09/10:07:25.864321,443053,1499566048,669005736,,0.7637145362,-0.116463339699,0.198810344834,0.848731790027,0.524864521231,-0.0252770103655,0.0594361480693,-0.0730189073782,-0.107513886809,-0.0335110405337,0.0445198326012,0.0442333981357,-0.147036870277,-3.75184035301,1.51964116096,-0.661339759827,-0.526201248169,-1.32059979439,-0.0945985019207
2017/07/09/10:07:25.874296,443054,1499566048,679023243,,0.763473167002,-0.117102762364,0.198746739133,0.848887288206,0.524637829966,-0.025041850858,0.0593163130724,-0.0718343304315,-0.11310701346,-0.032077427835,0.0258540353576,0.0459772346596,-0.113008907198,-3.33260202408,1.54666042328,-0.841904103756,-0.57963103056,-1.13972604275,-0.091052994132
2017/07/09/10:07:25.884144,443055,1499566048,689005230,,0.761908415298,-0.119005696272,0.19779731285,0.849370047471,0.523883754609,-0.0259251998559,0.0586874614211,-0.0847445190707,-0.144290399547,-0.0397664041777,0.00839263425701,0.0529741539887,-0.133421651732,-3.17511081696,0.67643392086,-1.13543117046,-0.279735922813,-1.03659939766,-0.110751777887
2017/07/09/10:07:25.894159,443056,1499566048,698997290,,0.761352628062,-0.120281404593,0.197933382395,0.849501049544,0.523680595097,-0.0257595249883,0.0586774915495,-0.11050493779,-0.179327450008,-0.0511526946201,0.0109025661289,0.0784236836077,-0.166266290096,-2.46554660797,1.44797742367,-0.924854576588,-0.387042164803,-0.886964797974,-0.113678567111
2017/07/09/10:07:25.904150,443057,1499566048,708998809,,0.760582201107,-0.121232026463,0.19710599123,0.84980848875,0.523226691296,-0.0260646555566,0.058137730382,-0.0853074076698,-0.131101732289,-0.0388256967005,0.0301752070695,0.0630524086762,-0.0906965593784,-3.53334999084,1.4951518774,-0.789799809456,-0.523157536983,-1.2430921793,-0.0600858330727
2017/07/09/10:07:25.914261,443058,1499566048,718998300,,0.760095410538,-0.122572982625,0.196836334064,0.849743590874,0.523310301849,-0.0261589733273,0.0582912159992,-0.0691516629222,-0.113034199823,-0.0303121585724,0.00973902098578,0.0503755427478,-0.0551224213218,-3.92811751366,2.06728243828,-1.11266303062,-0.762351751328,-1.40537190437,-0.0668752938509
2017/07/09/10:07:25.924153,443059,1499566048,728995381,,0.759186576598,-0.124094185291,0.196735476976,0.849918954444,0.523034426042,-0.0263687911194,0.0581158059965,-0.0790091308146,-0.131632244579,-0.0419919756791,0.014571465928,0.0618847878976,-0.046839803376,-3.59061193466,1.21616339684,-0.746839880943,-0.537931919098,-1.2048817873,-0.0890613496304
2017/07/09/10:07:25.934162,443060,1499566048,738999366,,0.758964112653,-0.124177494999,0.196042077775,0.849439523426,0.52387584118,-0.0263244985449,0.0575640499406,-0.0731673356857,-0.123088890583,-0.0458495320793,0.0161396313754,0.0629141146619,-0.023059228608,-2.23653769493,1.93010127544,-0.991487920284,-0.52038359642,-0.822978317738,-0.103201858699
2017/07/09/10:07:25.944292,443061,1499566048,749006569,,0.757853769592,-0.125754601142,0.195762431271,0.8496002478,0.523607061124,-0.0269111246789,0.0573659816159,-0.0589880984644,-0.0892285823979,-0.0415089982655,0.0438564963229,0.0548715752954,0.0346650648999,-3.38012695312,1.70939099789,-0.678212165833,-0.53066265583,-1.23984205723,-0.0256209969521
2017/07/09/10:07:25.953968,443062,1499566048,758998847,,0.757302229184,-0.127180489793,0.195647289208,0.849615421867,0.523575289029,-0.0268793642314,0.0574460740373,-0.0687608401998,-0.093161391669,-0.0400928650299,0.0334849428325,0.0764905922261,0.0548394791145,-3.7555398941,1.57222032547,-0.89677977562,-0.497431814671,-1.41749358177,0.0131556838751
2017/07/09/10:07:25.964349,443063,1499566048,768998725,,0.756042386803,-0.128128149671,0.194686824703,0.849456019143,0.523903521125,-0.0275907905649,0.0564652138093,-0.0743561514885,-0.096200970238,-0.0453975897672,0.0402176581956,0.0892727408775,0.0624554851868,-3.71751093864,1.30568110943,-1.02326047421,-0.397456407547,-1.35245192051,0.0344294533134
2017/07/09/10:07:25.974271,443064,1499566048,778998733,,0.75558072887,-0.128766647121,0.194940480866,0.849371314603,0.524057492464,-0.0275399947716,0.0563352749978,-0.0898804832971,-0.116967766048,-0.0596637147901,0.0347666874082,0.111563808957,0.033789415031,-3.66270971298,1.59105658531,-0.604021072388,-0.405278086662,-1.42689454556,0.0546536892653
2017/07/09/10:07:25.984274,443065,1499566048,789004140,,0.755380123523,-0.128890477305,0.194071820906,0.849233974628,0.524338457281,-0.0275445054244,0.0557865465376,-0.0681703292276,-0.0845929117549,-0.039682573019,0.0248531524217,0.0950529519314,0.0544755324255,-3.39250278473,1.7590944767,-0.747856736183,-0.559022724628,-1.30124568939,0.0281949341297
2017/07/09/10:07:25.994066,443066,1499566048,798997276,,0.754716808682,-0.130193691048,0.193931726021,0.849515388924,0.523872635757,-0.0277202336482,0.0557911653744,-0.0737418891079,-0.0762486374236,-0.0574378839141,0.0356725095452,0.115730733233,-0.0020737065559,-2.43028187752,1.1105427742,-0.646158516407,-0.361801147461,-0.961888730526,-0.0150358006358
2017/07/09/10:07:26.003901,443067,1499566048,808990690,,0.753469270128,-0.131933972636,0.193441658307,0.849901939557,0.523202989158,-0.0286782421621,0.0557035339913,-0.0786731807241,-0.105341937836,-0.0388503229826,0.0163111710773,0.0775117117333,-0.0803168302518,-1.61513233185,0.539782166481,-0.811986207962,-0.174658030272,-0.663084030151,-0.0384435988963
2017/07/09/10:07:26.014277,443068,1499566048,819004451,,0.752683457173,-0.132335892672,0.192880225501,0.849757722906,0.523460563517,-0.029293979886,0.0551607971933,-0.0765204854516,-0.100470774488,-0.0487051828526,0.0166200516346,0.0905737465546,-0.0734136994478,-2.14538431168,0.898124217987,-0.508873581886,-0.225993290544,-0.872888207436,0.00827383995056
2017/07/09/10:07:26.024245,443069,1499566048,829004689,,0.752574336932,-0.133223851561,0.192349733999,0.850145365631,0.522818150164,-0.0292490514986,0.0553039975166,-0.0725703919602,-0.0953807790596,-0.045435842221,-0.0109923725293,0.0926191769265,-0.108022356066,-2.2017261982,1.51557540894,-0.721892535686,-0.468320727348,-0.940341711044,-0.0174589529634
2017/07/09/10:07:26.033977,443070,1499566048,838991766,,0.751173761384,-0.13453581302,0.192020202024,0.850708770733,0.521879981374,-0.030297740011,0.0549355930951,-0.0715270534927,-0.0863347520345,-0.0533405233051,-0.010091796904,0.101554268192,-0.120508905006,-2.93757534027,0.435477882624,-0.4338722229,-0.284306526184,-1.08341181278,0.0401016548276
2017/07/09/10:07:26.044245,443071,1499566048,849018524,,0.750146033739,-0.135580265441,0.191033280081,0.851042015118,0.521371596126,-0.0308382733622,0.0542968521449,-0.0887741097074,-0.120896274851,-0.0430651086607,-0.0466844252094,0.107264801896,-0.16453645737,-3.77607512474,1.40157496929,-0.708480656147,-0.566133260727,-1.48304784298,0.0643757581711
2017/07/09/10:07:26.054279,443072,1499566048,859004558,,0.749315988507,-0.136778663482,0.190840380144,0.851260912812,0.520896210418,-0.0321064244097,0.0546916246044,-0.0857152569086,-0.118809738938,-0.0485231399217,-0.0399207703461,0.108441025727,-0.143476203067,-3.04923081398,1.60581564903,-0.6825735569,-0.527422428131,-1.25396955013,0.0514401271939
2017/07/09/10:07:26.064146,443073,1499566048,869005061,,0.748997177451,-0.137381074783,0.190486058219,0.851018461842,0.521282035545,-0.0323929447368,0.054619723121,-0.055650776181,-0.0892744740912,-0.0407005135176,-0.0610639799271,0.08223366452,-0.0688418641971,-2.74867391586,1.65773415565,0.0346122011542,-0.460072487593,-1.14044892788,0.0986931622028
2017/07/09/10:07:26.074422,443074,1499566048,878998620,,0.748891930322,-0.137435232109,0.190100653219,0.850977264656,0.521391702635,-0.0322174693063,0.0543177883788,-0.0519512054853,-0.0756577960057,-0.0370320195104,-0.0372022363647,0.0883118842472,0.0250815895926,-2.62426185608,1.3019567728,-0.401001572609,-0.445085436106,-1.05093634129,0.060775782913
2017/07/09/10:07:26.084652,443075,1499566048,888993368,,0.748392637248,-0.138955680095,0.189751794414,0.850813942406,0.521577930712,-0.0327418555687,0.0547728810272,-0.0643501600649,-0.113276815906,-0.0446380323902,-0.0508753446499,0.0818828680658,-0.000504251799126,-2.19230985641,0.947235941887,-0.195166215301,-0.348957598209,-0.862580358982,0.0209317691624
2017/07/09/10:07:26.094211,443076,1499566048,899004421,,0.747640820424,-0.139840757658,0.189503190115,0.850863448108,0.521513367004,-0.0330181804666,0.0544518178569,-0.0790961804489,-0.106203711484,-0.0451495606219,-0.0442534889908,0.121353849514,0.00350492304695,-3.54816389084,1.40821754932,-0.130860894918,-0.428616642952,-1.44972777367,0.124546408653
2017/07/09/10:07:26.104100,443077,1499566048,908998555,,0.746800885141,-0.140776496511,0.188970001159,0.850957807139,0.521299658778,-0.0340608517067,0.0543813810697,-0.057822220349,-0.0842671592939,-0.0417344215333,-0.0543431985682,0.103611846782,0.01424705152,-3.16023945808,1.40196824074,-0.106599330902,-0.445338219404,-1.26969885826,0.124861121178
2017/07/09/10:07:26.114234,443078,1499566048,919011339,,0.746956804283,-0.1406262132,0.188535405126,0.850511258134,0.522040756918,-0.034053887863,0.0542621472657,-0.0613574861677,-0.094750770856,-0.0473085534188,-0.0760800540937,0.106509624885,-0.0240596570916,-2.28252243996,1.53495872021,-0.178286463022,-0.46264976263,-0.958485066891,0.0841506421566
2017/07/09/10:07:26.124092,443079,1499566048,929006095,,0.745852363149,-0.143274093257,0.188549127172,0.851393110666,0.520444529392,-0.0350088213245,0.0551511139094,-0.051631694176,-0.0886345763352,-0.0391325168323,-0.0549423946249,0.07219397026,-0.0247604224867,-3.2097799778,0.213906690478,0.189925983548,-0.161105215549,-1.22004127502,0.130909889936
2017/07/09/10:07:26.134161,443080,1499566048,938998536,,0.744869014945,-0.143456801019,0.187870742586,0.851268439192,0.520676163544,-0.0358390320469,0.0543501695994,-0.0765604215169,-0.112574875351,-0.0376232069726,-0.068073287732,0.102187534965,-0.104181828921,-3.15693259239,1.33477926254,-0.0436521545053,-0.493963778019,-1.27621483803,0.108378008008
2017/07/09/10:07:26.144094,443081,1499566048,948999017,,0.743959017149,-0.144948506162,0.18725229906,0.851812434614,0.519709862278,-0.0367487977263,0.0544679828328,-0.0728325424576,-0.0923822719136,-0.035254891455,-0.06756385607,0.116348305426,-0.0852248049991,-3.49619102478,0.877515673637,-0.352784991264,-0.450473040342,-1.33187067509,0.101555578411
2017/07/09/10:07:26.154316,443082,1499566048,958999711,,0.744033841336,-0.144817617689,0.186969248082,0.851697640781,0.519935565515,-0.0364627487783,0.0543010529536,-0.0533064003751,-0.0658559845804,-0.0342545031352,-0.0637284441319,0.100325061802,-0.072316028799,-1.60821688175,0.508154809475,0.0592853501439,-0.215336278081,-0.622597515583,0.0304623078555
2017/07/09/10:07:26.164186,443083,1499566048,968991323,,0.743111512021,-0.145703721308,0.186516687802,0.851765397001,0.519730769765,-0.0377913795138,0.054290395701,-0.0563993247507,-0.0763309574378,-0.0409705704676,-0.0504272863201,0.0909380697629,-0.0667743024349,-1.73257160187,1.08796584606,0.218553975224,-0.348760306835,-0.726843118668,0.0304767154157
2017/07/09/10:07:26.174234,443084,1499566048,978989922,,0.742515740467,-0.146836010227,0.185850056452,0.852123879305,0.51912449831,-0.0381419157738,0.0542203267553,-0.0701073960211,-0.0892838432099,-0.0458753860703,-0.0326690263836,0.0986831427878,-0.105473830718,-2.68722867966,0.807004153728,-0.275292515755,-0.334741681814,-1.08489751816,0.0984316915274
2017/07/09/10:07:26.184481,443085,1499566048,988994171,,0.742679762227,-0.146783816098,0.186329278991,0.852136347478,0.519078962613,-0.0380855208506,0.0544992567069,-0.0489906690499,-0.0845122720554,-0.0418320859926,-0.0621921780864,0.0726015532278,-0.0831563462748,-1.00073873997,0.896077513695,0.357113838196,-0.172262296081,-0.539122164249,-0.0060587413609
2017/07/09/10:07:26.194214,443086,1499566048,998998049,,0.74219011252,-0.148052353633,0.185674678486,0.852228993171,0.518860225375,-0.0386370780065,0.0547447342204,-0.0364984173906,-0.0636117116564,-0.0223258495397,-0.0571897897448,0.0549851079112,-0.0572598664371,-1.24232685566,0.339468210936,-0.0687566101551,-0.123385623097,-0.579949557781,0.0362529419363
2017/07/09/10:07:26.204314,443087,1499566049,8997327,,0.741226697597,-0.148407338296,0.184582926325,0.852523981742,0.518429532278,-0.0392283192836,0.0538035276163,-0.0388298391143,-0.0666498584846,-0.025179001451,-0.0429336096325,0.0480503773197,-0.0612813668733,-2.27139425278,0.692117214203,-0.682516753674,-0.199475198984,-0.935225009918,0.0727314651012
2017/07/09/10:07:26.214179,443088,1499566049,18998989,,0.741224710582,-0.148900330347,0.185195950684,0.852415950712,0.518557938464,-0.0392500044519,0.0542600090162,-0.0541313544675,-0.0681922151645,-0.0381238701735,-0.0400181290887,0.0897834044682,-0.054625151413,-1.19632196426,0.882249951363,0.251874983311,-0.206337854266,-0.595500528812,0.0338221117854
2017/07/09/10:07:26.224222,443089,1499566049,28995313,,0.740373663956,-0.150115967017,0.184539088663,0.852754469047,0.517920799543,-0.0401693292247,0.0543533431418,-0.0467829993932,-0.0585458753826,-0.0361403162113,-0.0375475599731,0.0856046641765,-0.0537677758698,-1.42655038834,0.927065968513,-0.0766801536083,-0.24235984683,-0.668384075165,0.024455640465
2017/07/09/10:07:26.234259,443090,1499566049,38999345,,0.740336393542,-0.149994308778,0.184257251815,0.852711686348,0.518043957354,-0.0399685817981,0.0539976914606,-0.0327220734171,-0.038225291143,-0.0350970546526,-0.018966948783,0.060682967637,-0.0425965024447,-2.39945554733,1.0508980751,-0.252528309822,-0.453756839037,-0.95016002655,0.0470008552074
2017/07/09/10:07:26.244149,443091,1499566049,49003446,,0.740500578225,-0.150053496158,0.184309321367,0.852787447337,0.517921611342,-0.0397305508117,0.0541503231949,-0.0243935135364,-0.0457024749783,-0.0246714288542,-0.0213051653012,0.0223734038159,-0.0645504961525,-1.96667063236,1.61524379253,-0.0296888463199,-0.486737787724,-0.905490756035,0.0751879662275
2017/07/09/10:07:26.254214,443092,1499566049,58999167,,0.739331008916,-0.150707845851,0.183305998111,0.852926444635,0.517677021675,-0.0408955630469,0.053427841013,-0.0237858132811,-0.0280279381291,-0.030023740045,0.00287159334983,0.0383570682815,-0.0505007766882,-2.64760279655,0.674114704132,-0.746898412704,-0.219124794006,-1.0553817749,0.0980711579323
2017/07/09/10:07:26.264318,443093,1499566049,68999022,,0.739466461786,-0.151629902324,0.183844689388,0.853288201442,0.516984966361,-0.0408249050841,0.0543977661448,-0.0352440258041,-0.0399957109039,-0.0261411162327,-0.00423012109141,0.0527036215927,-0.0429879065828,-2.29702615738,0.495033681393,-0.0811612904072,-0.0838440284133,-1.00546097755,0.131494596601
2017/07/09/10:07:26.274259,443094,1499566049,78995369,,0.739045986655,-0.151922186141,0.183583020119,0.853288338436,0.516980725962,-0.0411901653571,0.0541600475435,-0.0310146353662,-0.0419241113881,-0.0253597271648,-0.0325734395699,0.0569265284595,-0.0402358101133,-1.12912631035,0.211534827948,-0.182334572077,-0.0500207282603,-0.474679470062,0.00919157266617
2017/07/09/10:07:26.284309,443095,1499566049,89000031,,0.739011818865,-0.151927354246,0.182866047406,0.853401991248,0.516815532861,-0.0412093215778,0.0539308644826,-0.00894403586024,-0.0175162696094,-0.0236203141866,-0.00970931622923,0.0257139690623,0.00386850357264,-1.15690886974,0.490235388279,-0.291737258434,-0.126086696982,-0.48475921154,-0.00619781762362
2017/07/09/10:07:26.294323,443096,1499566049,98997815,,0.738612890475,-0.151900973251,0.182597798952,0.853312445696,0.516966400802,-0.0416737960459,0.0535434887291,-0.0152228874497,-0.0301821698037,-0.0278795660218,-0.0252633655756,0.0349342422837,-0.00753631767706,-0.939774334431,0.648680925369,-0.345654726028,-0.139261931181,-0.407729417086,-0.0045175217092
2017/07/09/10:07:26.304262,443097,1499566049,108996377,,0.738703749781,-0.152383289854,0.182801871285,0.853159106954,0.517174171821,-0.0416614053021,0.0539883462444,-0.0347452732064,-0.0387107223521,-0.0281665640166,-0.0167174501699,0.061545821686,-0.0632731029737,-1.88394796848,0.70598423481,-0.44590318203,-0.105092138052,-0.84534072876,0.039368674159
2017/07/09/10:07:26.314197,443098,1499566049,118999074,,0.738469112004,-0.152648833976,0.182497150622,0.853536957314,0.51661529958,-0.0414120867936,0.0535568278289,-0.039169001338,-0.0507759585913,-0.0242595679392,-0.0426341071658,0.0654096038419,-0.0524475159632,-1.93073523045,0.961471676826,-0.154054358602,-0.158241897821,-0.839496850967,0.0807806551456
2017/07/09/10:07:26.324034,443099,1499566049,129005120,,0.73833663533,-0.152793121507,0.18210817478,0.853334503762,0.516895618032,-0.0419444441601,0.0536638458599,-0.0191804037295,-0.019180429081,-0.0243931304425,0.0129140533706,0.0311824157992,-0.0236823797021,-1.71284687519,1.57974731922,-0.193829447031,-0.385662406683,-0.793154299259,0.0416683442891
2017/07/09/10:07:26.334264,443100,1499566049,139008841,,0.738171019896,-0.152763794668,0.181569812772,0.853579397491,0.516532001371,-0.041947495742,0.0532664185043,-0.0150143772711,-0.0201454197533,-0.0248069618868,0.00926521445833,0.0233148611622,-0.0353152407506,-2.73938202858,1.63809120655,-0.506131887436,-0.407898873091,-1.14572238922,0.085230819881
2017/07/09/10:07:26.344454,443101,1499566049,148995288,,0.738357123952,-0.153048663801,0.181740699585,0.853388160589,0.516809448814,-0.0419111589974,0.0536665234102,-0.00418155176482,-0.0110511183294,-0.0193260228362,0.0033418948764,0.00222245255868,-0.0258500179025,-3.07487869263,1.75172424316,-0.193220108747,-0.487032175064,-1.27651572227,0.126368939877
2017/07/09/10:07:26.354343,443102,1499566049,158993456,,0.738675653081,-0.152124146618,0.181369713478,0.853453406939,0.516790101827,-0.0414913963721,0.0531388451518,-0.0142583641294,-0.0278391540696,-0.0178593112307,-0.0213519334183,0.0171456753061,-0.0314960616973,-3.04802441597,2.59245157242,0.489413619041,-0.643494367599,-1.32351779938,0.114909261465
2017/07/09/10:07:26.364004,443103,1499566049,168991914,,0.73780358239,-0.153598315611,0.181532943408,0.853879891871,0.516016790494,-0.0419867252813,0.0534127052858,-0.00132704622799,0.00400451332824,-0.027749320233,0.01703959364,0.0162416665981,-0.00529279971287,-2.71956849098,1.12776315212,0.474580258131,-0.272540003061,-1.05527794361,0.0863912254572
2017/07/09/10:07:26.374022,443104,1499566049,178992248,,0.738050720792,-0.153009966384,0.181063637735,0.853450078207,0.516713419304,-0.0423198643075,0.0532844762119,-0.000644137096956,0.0205206963274,-0.0236370225026,0.0230943621349,0.036510166647,0.0374892524216,-2.24868083,0.885110378265,-0.112717464566,-0.15646995604,-0.901308596134,0.0644643381238
2017/07/09/10:07:26.384380,443105,1499566049,188992802,,0.738343187239,-0.152976565701,0.181370996941,0.853635674683,0.516422806252,-0.0418353078985,0.0535109998483,-0.00179796200936,0.00288742560256,-0.0188796452211,0.00645695483813,0.0216477625893,0.013082951278,-1.19135177135,0.525966346264,0.127939611673,0.0529869645834,-0.557163834572,0.0388144776225
2017/07/09/10:07:26.394336,443106,1499566049,198991859,,0.737431244006,-0.153591771532,0.180632231212,0.853573302789,0.516510557988,-0.0426758112977,0.0529927861379,-0.0100537100234,-0.00480965060779,-0.0258733642133,0.0257305767181,0.0262340822739,-0.00349742953484,-1.20725786686,0.0755984038115,-0.325486719608,0.229081705213,-0.52950245142,0.0508116967976
2017/07/09/10:07:26.404347,443107,1499566049,208999459,,0.738020183687,-0.153040170397,0.180531121062,0.853586164856,0.516522005295,-0.0422238185294,0.0530360854716,-0.00911316740713,-0.00833870268856,-0.0193483820884,0.00180605419756,0.0273579054463,0.00557166347019,-1.44186234474,0.335524857044,-0.0908506512642,0.0283338353038,-0.581117749214,0.0301171950996
2017/07/09/10:07:26.414163,443108,1499566049,218998700,,0.737108061326,-0.153732132831,0.179845021053,0.853749355442,0.516205098396,-0.0432050895169,0.0527034601514,-0.0056080400469,-0.014680050735,-0.010902202829,-0.0129028599401,0.012244377045,-0.0148853918829,-2.8514726162,0.499657213688,-0.435721486807,-0.132510960102,-1.06365096569,0.0867978483438
2017/07/09/10:07:26.424194,443109,1499566049,228991053,,0.737648619372,-0.153555697305,0.1804350747,0.853800049369,0.516132015657,-0.0426203293827,0.0530728333057,-0.00993281262131,-0.0218162984675,-0.00845931427287,-0.0444688910244,0.0278661514923,-0.014556865313,-3.35635328293,1.83218669891,-0.521463394165,-0.432519465685,-1.36610341072,0.156562149525
2017/07/09/10:07:26.434336,443110,1499566049,238999322,,0.737697849946,-0.15393671503,0.180711241966,0.853685192373,0.516243477379,-0.0428770653787,0.0536266878573,-0.00418469327281,-0.010523106845,-0.0074373308867,-0.0310891110876,0.0171400773335,-0.0139635462238,-3.37861347198,1.41723406315,-0.00166643410921,-0.451124072075,-1.32880890369,0.126156777143
2017/07/09/10:07:26.444460,443111,1499566049,248996428,,0.737373113532,-0.153563831139,0.18034341327,0.853456460002,0.516640883936,-0.0433167158324,0.0530841789559,-0.00791361665238,-0.0118167817194,-0.013086971502,-0.0183802256371,0.0231289546256,-0.0155583150413,-2.83478975296,1.26396656036,-0.102063834667,-0.24959911406,-1.12553083897,0.106149591506
2017/07/09/10:07:26.454128,443112,1499566049,258998210,,0.737532928536,-0.1534324021,0.179908066468,0.853412643192,0.516681496114,-0.0435387054316,0.053211588428,-0.000514818352578,0.0029935800807,-0.00760746991334,-0.026694095346,0.0303402939706,0.0264438327912,-2.0635008812,1.33181536198,-0.543413281441,-0.17841309309,-0.900601565838,0.109237201512
2017/07/09/10:07:26.464303,443113,1499566049,268996652,,0.73760051466,-0.153941904176,0.180251128349,0.853691924141,0.516175433364,-0.043489169108,0.05368158733,-0.0108943500331,-0.00809099364755,-0.00924910647344,-0.0269829794124,0.0423966741441,0.00910507891281,-1.33847534657,0.25074288249,-0.381695538759,0.0184261538088,-0.528376638889,0.00940243154764
2017/07/09/10:07:26.474344,443114,1499566049,278994430,,0.736925203064,-0.153902037722,0.179544541263,0.853484935045,0.516560814818,-0.0440094965864,0.052835163057,-0.0019652430314,-0.01702675442,0.00769764665118,-0.0429908380081,0.00610784304624,0.0095461214875,-1.29209434986,0.244473457336,-0.795933425426,0.137989863753,-0.520438551903,0.0349909998477
2017/07/09/10:07:26.484962,443115,1499566049,288998459,,0.737072411108,-0.154007103008,0.179728853629,0.853293392488,0.516821507781,-0.0442196654825,0.053202787674,0.00104767587644,-0.000900355791698,-0.0195652549555,0.0016083643561,0.0103931593926,0.00436970943134,-0.544748365879,-0.143677949905,-0.572191119194,0.297046393156,-0.267357647419,0.0161057524383
2017/07/09/10:07:26.494244,443116,1499566049,298991390,,0.736979853933,-0.154522991906,0.179820067075,0.853616455352,0.516300380394,-0.0438660645788,0.0533725841147,-0.00221827190042,-0.0125022904622,-0.0151513278494,-0.0045677920869,-0.000627677349704,-0.021823395606,-1.26084411144,-0.292656332254,-0.498844444752,0.279011130333,-0.529267013073,0.0346562750638
2017/07/09/10:07:26.504278,443117,1499566049,308995235,,0.737359537699,-0.154334494072,0.179865456138,0.853607967814,0.516305948023,-0.0437286970062,0.053566840289,-0.0161801796185,-0.0274600435734,-0.0166963333238,-0.0128615262635,0.0166485622135,-0.0394343546251,-1.55146622658,1.29522120953,-0.322616815567,-0.167911186814,-0.649351418018,0.0639683753252
2017/07/09/10:07:26.514207,443118,1499566049,318995553,,0.73719683086,-0.15431298945,0.179422614298,0.853617801166,0.51632019441,-0.043677447371,0.0533140409998,-0.00980293793234,0.00824651135054,-0.0127417289766,0.0105391410117,0.0429428903974,0.0101978313913,-2.18708634377,0.838487565517,-0.692707121372,-0.149734303355,-0.857627868652,0.0763424485922
2017/07/09/10:07:26.524010,443119,1499566049,328997251,,0.737159488415,-0.154198967272,0.179038082351,0.85370444846,0.516180496244,-0.0439536983754,0.0530516953175,0.0077198517775,0.0117478331729,-0.0197663676733,0.01023706073,0.012951140736,0.0361375046346,-2.42308688164,0.988661706448,-0.499177992344,-0.128381073475,-0.933545470238,0.105240918696
2017/07/09/10:07:26.534273,443120,1499566049,338998149,,0.737125890117,-0.153871686057,0.179036335012,0.85330390209,0.516862073126,-0.0439719720773,0.0528442401245,-0.00510271303733,-0.00115226515574,-0.015722468175,-0.00187432962013,0.0198347725094,-0.0069472275304,-3.61781787872,1.45865869522,-0.348702073097,-0.306882083416,-1.40729045868,0.146911650896
2017/07/09/10:07:26.544350,443121,1499566049,348999295,,0.736403631733,-0.154119336124,0.178773233666,0.853560224455,0.516402306963,-0.0448152494421,0.0524899419902,-0.0164638027703,-0.00434423303698,-0.0209826384854,0.0129190442732,0.0444699104161,-0.00421321461429,-2.81281995773,1.06344282627,-0.356644481421,-0.184898048639,-1.05610799789,0.116003289819
2017/07/09/10:07:26.554263,443122,1499566049,358998608,,0.736776871256,-0.154359404583,0.17880190145,0.853579878403,0.516368152737,-0.0443540994526,0.052896463839,-0.010962767677,0.013835740996,-0.0227936252669,0.0252607514113,0.0490290639219,0.0250078703321,-2.42214918137,0.83930593729,-0.0443411432207,-0.188627004623,-0.945710241795,0.0815886110067
2017/07/09/10:07:26.564012,443123,1499566049,368991912,,0.736957154902,-0.154617977348,0.178788027581,0.853463978304,0.516509810225,-0.0444233875232,0.0533236937835,-0.00559676316923,0.0169574236608,-0.0260495243277,0.0280351450599,0.0362042516508,-0.00167564584255,-1.81918168068,0.525367975235,0.130788788199,0.0149672664702,-0.845712721348,0.0831016153097
2017/07/09/10:07:26.574367,443124,1499566049,378993972,,0.737365446119,-0.153565771005,0.178345661653,0.853270012863,0.516920292479,-0.0441072279563,0.0527090961159,0.00746524819477,4.98687193217e-05,-0.011287008951,-0.00776413199186,-0.00479352609304,0.0022812038371,-2.22567892075,1.17527270317,-0.108533941209,-0.17652015388,-0.971862316132,0.109618663788
2017/07/09/10:07:26.584264,443125,1499566049,388998960,,0.736970841984,-0.15401161954,0.1782422775,0.853420936583,0.516628182964,-0.0445259138368,0.0527775384562,0.000117954999727,-0.00392805370989,-0.0185275104345,-0.0128072670203,0.021509224482,0.00346891969925,-2.64406037331,0.866891801357,-0.0718487277627,-0.235226020217,-1.02108561993,0.114343844354
2017/07/09/10:07:26.594321,443126,1499566049,399000411,,0.736617771585,-0.154337367733,0.178062567745,0.85317957581,0.516920053412,-0.0454999109435,0.0529908284951,-0.00732661460751,-0.0100739629405,-0.0188067150538,-0.0275721554459,0.0391216846228,0.0209555693134,-2.33320212364,1.04778218269,-0.33207911253,-0.277590155602,-0.837176561356,0.097215667367
2017/07/09/10:07:26.604157,443127,1499566049,408999597,,0.736567238429,-0.154342462919,0.177799977632,0.853447461332,0.516555496042,-0.045121034876,0.0525541860002,-0.0117082363073,-0.0269710408202,-0.00520713695563,-0.0739313518709,0.0415803336785,-0.00143741057543,-2.71501851082,1.32601678371,-0.766521275043,-0.36991584301,-1.03958976269,0.0910097211599
2017/07/09/10:07:26.614252,443128,1499566049,418998199,,0.736974317004,-0.154522759328,0.177815712944,0.853418779836,0.516583214906,-0.0447936136833,0.0530254700584,-0.00201241325579,-0.0241653909662,-0.0102160701045,-0.0536018807739,0.00860567236547,-0.0186788436617,-2.10093641281,1.22898972034,-0.759092032909,-0.261904984713,-0.765367746353,0.0564847104251
2017/07/09/10:07:26.623949,443129,1499566049,428998959,,0.736600860402,-0.155193855769,0.177833050735,0.853399908681,0.516527735208,-0.045405586343,0.0533481710318,-0.00229303774755,-0.0058978658286,-0.0268976888784,-0.0041197968328,0.0166439065189,-0.00218235362383,-2.76116085052,0.884398579597,-0.656378209591,-0.235459879041,-1.00461947918,0.0844329968095
2017/07/09/10:07:26.634164,443130,1499566049,438998319,,0.73703057356,-0.154310295267,0.178098075637,0.853378819147,0.516663019802,-0.0446808023792,0.052986233116,-0.00273931721785,-0.0182338403591,-0.0112649515638,-0.0240113821432,0.00446140948322,-0.00569952156936,-1.94187664986,1.7494494915,-0.455452978611,-0.376867294312,-0.787321746349,0.0540832467377
2017/07/09/10:07:26.644096,443131,1499566049,448996740,,0.736658801396,-0.155075883851,0.177134940944,0.853302734358,0.516685002124,-0.0455827689487,0.0532284068142,0.00889725036246,-0.0134651939548,-0.00833256322847,-0.0157181240093,-0.0220142166138,0.00602524720578,-2.89341664314,1.37990128994,-0.690939128399,-0.319646924734,-1.07323694229,0.121490068734
2017/07/09/10:07:26.654031,443132,1499566049,458998595,,0.7368459281,-0.154848920336,0.17772521002,0.853302263537,0.51668207201,-0.0453947203751,0.0534247402277,0.0172519176607,0.0149095261013,-0.0165887143881,0.00456699777938,-0.00934667045061,0.0412216684342,-2.27291178703,0.980726122856,-0.194778904319,-0.208398744464,-0.828674435616,0.0751331299543
2017/07/09/10:07:26.664051,443133,1499566049,469021316,,0.736868986639,-0.153935102127,0.176696592368,0.853311783505,0.516841683622,-0.0448279517262,0.0521931887004,0.000487539930367,-0.00187623618011,-0.0181732170886,-0.00300098050304,0.00546376811446,-0.00395814871728,-3.28583145142,1.42691016197,-0.760932862759,-0.370555758476,-1.17348563671,0.126285582781
2017/07/09/10:07:26.674420,443134,1499566049,478999608,,0.736961128299,-0.154651956462,0.177064130434,0.853152847514,0.516980902022,-0.04517017379,0.0531095200863,-0.0124959975346,-0.0168129063648,-0.0174403926519,-0.00471611073836,0.0184725591953,-0.0236557429799,-2.22910809517,1.07229375839,-0.0424409471452,-0.167458713055,-0.851768612862,0.0677277371287
2017/07/09/10:07:26.684244,443135,1499566049,488997682,,0.737230943835,-0.154819679114,0.176587595153,0.853357779246,0.51662812971,-0.0450032551657,0.0533908533101,0.00770353362522,0.00511871031923,-0.0166036171487,0.0141681826574,-0.00741965411317,0.0141611066849,-2.58719229698,1.22105681896,-0.311211287975,-0.266350179911,-0.975552201271,0.0894929692149
2017/07/09/10:07:26.694117,443136,1499566049,498996898,,0.736756438815,-0.155089667009,0.176909236403,0.85337878631,0.516575827174,-0.0454211808941,0.0532069373483,0.0169519326865,0.00915447878155,-0.00612640880728,-3.90387807395e-05,-0.0223004444486,0.035154826545,-3.03851556778,1.32979726791,-0.142558097839,-0.372704893351,-1.07997334003,0.09040774405
2017/07/09/10:07:26.704206,443137,1499566049,508991168,,0.737061509051,-0.153876275496,0.176003396829,0.853007161913,0.517334651926,-0.0449158817533,0.0522130559211,-0.00474943151762,-0.0109943695704,-0.0152715915345,-0.0194937278128,0.0202845424449,0.00785108490233,-2.76253318787,1.68500721455,-0.683097481728,-0.450589030981,-0.986756086349,0.0641629844904
2017/07/09/10:07:26.714267,443138,1499566049,518999304,,0.736964562782,-0.155270078474,0.17688756743,0.85351944885,0.516336658627,-0.0451792490977,0.0534774797718,0.00153285844697,0.00693981304999,-0.0164707552395,0.0298789142164,-0.000589289613383,-0.0112556445448,-1.9674539566,0.606278598309,-0.03722243011,-0.157926395535,-0.648151755333,0.0394313931465
2017/07/09/10:07:26.724244,443139,1499566049,528998782,,0.737023132087,-0.154607680892,0.176062910113,0.85320513403,0.516902459189,-0.0452927316541,0.0529283988959,0.0291860044583,0.00858937949225,-0.000647054754104,0.000637601471949,-0.0615726303327,0.00602921882453,-2.39808011055,1.54480218887,-0.621038734913,-0.359543144703,-0.863698005676,0.0815061256289
2017/07/09/10:07:26.734244,443140,1499566049,538998657,,0.737571478993,-0.155128333127,0.176528062419,0.85335523776,0.516597167357,-0.0449073883599,0.0538101415717,0.0210267245774,0.0024059469147,-0.00232856543751,-0.0289609798091,-0.0263995023919,0.0304741623257,-1.43383586407,0.928145170212,-0.460278689861,-0.174540325999,-0.515363037586,0.0285166427493
2017/07/09/10:07:26.744196,443141,1499566049,548992978,,0.737074140585,-0.155123040098,0.17609480913,0.853472414319,0.516422860452,-0.0452207596116,0.0533605668927,0.0201619528925,-0.0118796342996,0.000870990306715,-0.0259516321686,-0.0517658844607,0.00376386525411,-1.98298072815,0.5182980299,-0.58986389637,-0.0559725873172,-0.653067827225,0.0373158827424
2017/07/09/10:07:26.754317,443142,1499566049,558999099,,0.737666656612,-0.154599770882,0.17618265951,0.85322458291,0.516893809438,-0.0445461575385,0.053331423489,0.00668331554602,-0.0127913289365,-0.0149190862997,-0.0122141507084,-0.0202300982485,-0.00845908624317,-1.25574755669,0.416130781174,-0.515276968479,0.0169376917183,-0.415707558393,0.00934454426169
2017/07/09/10:07:26.764078,443143,1499566049,568995439,,0.737418347042,-0.155041606723,0.175665046055,0.853142729611,0.516976511356,-0.0450621873604,0.0534057008954,0.00996015967646,-0.00570007010589,-0.0103001209805,0.0186603446911,-0.0382553360823,-0.01146797007,-1.01218223572,0.627513468266,-0.50390291214,-0.11628742516,-0.278774023056,-0.0279373526573
2017/07/09/10:07:26.774633,443144,1499566049,578998461,,0.737384603151,-0.155101196696,0.175677734607,0.85338975242,0.516587058789,-0.0449074793942,0.0533578433893,0.00797552030622,-0.003526785567,-0.00516619156093,-0.00103459153991,-0.0195971099906,0.0215154472662,-0.706411004066,0.564896523952,-0.720431089401,-0.0027184151113,-0.197589337826,-0.0368557497859
2017/07/09/10:07:26.784863,443145,1499566049,588993112,,0.737609207635,-0.155723599562,0.175946677711,0.853362902788,0.516562658575,-0.0447999034631,0.0541086366609,0.0135357691717,0.00841388898709,-0.0110813786553,0.0124970508567,-0.0267550356099,-0.00414596238601,-0.868603765965,-0.0095738619566,-0.140864729881,0.054300904274,-0.232967674732,-0.0349120758474
2017/07/09/10:07:26.794019,443146,1499566049,598997546,,0.737844153644,-0.154340970157,0.175554127857,0.85311370701,0.517122083015,-0.0443239648302,0.0530767398248,0.00356985059107,-0.0188980589002,-0.0145177951895,-0.0136955676222,-0.0188650481588,-0.0125410175968,-0.646024703979,0.550978779793,-0.0274893566966,0.0085012242198,-0.187544316053,-0.0390012450516
2017/07/09/10:07:26.804201,443147,1499566049,608999293,,0.737535564289,-0.155659188104,0.175675398884,0.853470508512,0.516458038625,-0.0444525492854,0.0536950305059,0.00434383898426,-0.00502990287777,-0.0084069050204,-0.00436149003898,-0.0117341674793,-0.00171754797645,-0.917137503624,0.0700664371252,-0.0276762768626,0.0348181910813,-0.196839034557,-0.0473074577749
2017/07/09/10:07:26.813987,443148,1499566049,618991795,,0.738155990711,-0.155206414081,0.176028035424,0.852982377687,0.517188905866,-0.0445735963334,0.0543129221742,0.020547587989,0.00629091109704,0.00369736031402,-0.00487469906548,-0.0402708173606,0.016772068574,-0.460205346346,0.363964825869,-0.0821866989136,-0.0123505890369,-0.107590287924,-0.0589276999235
2017/07/09/10:07:26.824170,443149,1499566049,628994223,,0.738001494712,-0.155538949884,0.175725845393,0.853231081985,0.516789631483,-0.044529032634,0.0542435505709,0.0149133506881,-0.0100891077331,0.00806555379535,-0.0322332892983,-0.0368580281836,0.00264174912781,-1.4082659483,0.483511775732,-0.199644416571,-0.0680944249034,-0.450715869665,-0.00476086139679
2017/07/09/10:07:26.834266,443150,1499566049,638992362,,0.737995116089,-0.156008638343,0.176155966219,0.853298016652,0.516617150228,-0.0446475513251,0.0547340024851,0.00294072785545,-0.00386562477852,0.00282792698193,-0.0280001572978,0.00274532930476,0.00853200043146,-1.06146502495,-0.0909971296787,0.0159853231162,-0.0028519667685,-0.23937804997,-0.0258599352092
2017/07/09/10:07:26.844172,443151,1499566049,648992556,,0.737882431028,-0.155299387951,0.175831044628,0.853423892896,0.516498357147,-0.0444865120132,0.0540190369062,-0.00693456797423,-0.00365488765217,-8.72144070261e-05,-0.00782904980806,0.0158386239199,0.00516904467584,-1.02378571033,0.143317520618,-0.129769444466,0.0281703062356,-0.236107647419,-0.0414202325046
2017/07/09/10:07:26.854328,443152,1499566049,658996631,,0.737900199595,-0.155262579024,0.175595159694,0.853226502854,0.516834402646,-0.0445771129905,0.053848083227,-0.000870230642529,-0.00156171915783,-0.000622828622117,0.00597148599171,-0.00129307137117,0.00766903064003,-1.77476143837,0.565430164337,-0.217009454966,-0.110353089869,-0.569916844368,0.0412006787956
2017/07/09/10:07:26.864384,443153,1499566049,668991141,,0.737281905258,-0.155860901346,0.175159337555,0.853338206941,0.516587437683,-0.0453493307466,0.0538029925238,-0.0104400549785,0.00344876706517,-0.0166389539859,0.0150347567792,0.0310729749508,-0.0136729707534,-1.58634281158,0.424456655979,-0.426761239767,-0.101448476315,-0.412254691124,-0.0183293260634
2017/07/09/10:07:26.874170,443154,1499566049,679004521,,0.737855197629,-0.155220747723,0.175726521438,0.853200462763,0.516872569012,-0.0446033523678,0.0538726155043,-0.00790578743022,-0.00730534867378,-0.00670988295179,0.00708333606188,0.0105256386889,-0.0276131473296,-1.09006512165,0.699010014534,-0.14554810524,-0.152835145593,-0.326790452003,-0.0238494537771
2017/07/09/10:07:26.884006,443155,1499566049,688993973,,0.738364047214,-0.155386814492,0.176007065555,0.853221989482,0.516785841096,-0.0443211486036,0.0545918207557,0.0107083169262,0.0017503776168,0.00894729237499,0.00812853780644,-0.0298424644619,0.00708037016731,-0.608090758324,0.540011167526,0.148478120565,-0.00827161595225,-0.204451441765,-0.0193208567798
2017/07/09/10:07:26.894195,443156,1499566049,698998050,,0.737955713361,-0.155594568397,0.176004413781,0.853502556167,0.516341821006,-0.0445175830609,0.054246615527,0.00579553261812,-0.000191457378375,0.00162098039928,0.00438887176199,-0.0186801304606,0.00378584789579,-0.0840984210372,0.262468278408,0.166364431381,0.0742124840617,0.0319642722607,-0.0705277174711
2017/07/09/10:07:26.904362,443157,1499566049,708995733,,0.737594237754,-0.15611375932,0.175643483089,0.853393183744,0.516502159138,-0.0448020972676,0.0542066935538,-0.00654045176914,0.00426532382797,-0.00365626098652,0.0153884440795,0.0157671729514,-0.00622063544486,-0.874313235283,-0.27944123745,0.278235137463,0.0765275806189,-0.174189031124,-0.0410208515823
