time,.header.seq,.header.stamp.secs,.header.stamp.nsecs,.header.frame_id,.pose.position.x,.pose.position.y,.pose.position.z,.pose.orientation.x,.pose.orientation.y,.pose.orientation.z,.pose.orientation.w,.twist.linear.x,.twist.linear.y,.twist.linear.z,.twist.angular.x,.twist.angular.y,.twist.angular.z,.wrench.force.x,.wrench.force.y,.wrench.force.z,.wrench.torque.x,.wrench.torque.y,.wrench.torque.z
2017/07/09/10:05:21.015296,430568,1499565923,819628412,,0.781424243535,0.399646566291,0.165820702036,0.623969867947,0.778864972976,0.0562004481443,0.0295375590386,0.015659322723,-0.0237800565564,0.00360332966482,-0.00769682347351,-0.0297352137309,-0.0211122160452,5.5037279129,1.37621414661,-0.392814695835,-0.677588164806,2.20644521713,0.0697264894843
2017/07/09/10:05:21.025298,430569,1499565923,829636149,,0.781236448795,0.399511603406,0.165631400537,0.624263394891,0.778647274766,0.0560639877937,0.0293336763891,0.0195674095617,-0.0368648929332,-0.0106579186582,-0.0195952323475,-0.019009649523,-0.042066499777,5.40418148041,1.44900906086,-0.304883658886,-0.668861329556,2.22284340858,0.11011248827
2017/07/09/10:05:21.035196,430570,1499565923,839631539,,0.781424243535,0.399646566291,0.165820702036,0.624268513033,0.778625626261,0.0562117715234,0.0295160042652,0.00952739271153,-0.0241135285894,-0.0118365916238,-0.0153600764369,-0.00609037965984,-0.0262471848611,5.15982055664,1.57396924496,-0.349577277899,-0.782091140747,2.13529372215,0.0325265973806
2017/07/09/10:05:21.045651,430571,1499565923,849628649,,0.781393329624,0.398078906773,0.165177124187,0.624739117704,0.778288192334,0.0556560591762,0.0295114818684,0.00921947951839,-0.0416169216808,-0.00054476856769,-0.0279985571567,-0.00625667870862,-0.0378165823905,5.06776618958,1.89175879955,-0.329300761223,-0.857886195183,2.11998677254,0.0198158584535
2017/07/09/10:05:21.055444,430572,1499565923,859635360,,0.781899316612,0.398917458739,0.165856530721,0.624163173925,0.778681641263,0.0563089012449,0.0300755966921,0.00727436860957,-0.0217238405373,-0.00308998846364,-0.0139227127014,-0.00463630768097,-0.0186308231753,4.38468503952,1.87189948559,-0.313112944365,-0.836489319801,1.88156425953,0.0450449325144
2017/07/09/10:05:21.065517,430573,1499565923,869633587,,0.782308094779,0.397322232205,0.166085825855,0.625108205837,0.777924901234,0.0560348074919,0.0305398000054,0.0148711942421,-0.0294274737622,0.00137101975515,-0.010799794291,-0.019655730197,-0.054659843194,3.76805186272,1.63396561146,-0.386962324381,-0.70036137104,1.66646373272,0.0129540869966
2017/07/09/10:05:21.075445,430574,1499565923,879634915,,0.782169623816,0.397601140816,0.165839867233,0.624970585005,0.7780496168,0.0559289148489,0.0303729840454,0.0205001928492,-0.0451445766984,6.48536360379e-05,-0.0225427895009,-0.0300038410935,-0.0547136474101,3.48240947723,1.66809916496,-0.377231180668,-0.66659617424,1.5575722456,0.051654972136
2017/07/09/10:05:21.085520,430575,1499565923,889627275,,0.782161136339,0.396214470437,0.165446123931,0.625556602878,0.777607490735,0.055635109549,0.030170540837,0.0147715903585,-0.0532038925832,0.0049355253542,-0.000814333309962,-0.0125175309772,-0.0798406274134,2.14300322533,1.4920361042,-0.137334793806,-0.625386893749,1.01507532597,-0.0276288613677
2017/07/09/10:05:21.095088,430576,1499565923,899627907,,0.782937303934,0.39564753298,0.166088667959,0.626211775023,0.777010242062,0.0561449978793,0.0310102526006,0.0274780747489,-0.0559179014127,0.004570646567,0.00716034773495,-0.0403381929046,-0.0868821226652,1.45543777943,1.30586016178,0.364796251059,-0.524531841278,0.824719250202,0.00662016496062
2017/07/09/10:05:21.105161,430577,1499565923,909627581,,0.783421666274,0.395483648854,0.166185347854,0.626220035676,0.776952195866,0.0566988794792,0.0312888050735,0.0366601791149,-0.065791148526,0.0118169422255,-0.0212448207183,-0.0795601065093,-0.0809266843671,1.53705728054,1.35381579399,0.504750370979,-0.519914388657,0.93631285429,-0.0117999054492
2017/07/09/10:05:21.115320,430578,1499565923,919628085,,0.783526151797,0.394667120987,0.165938802217,0.626288428201,0.776913696669,0.0563695409914,0.03147042226,0.0413477195061,-0.0848807516626,0.00231824158548,-0.0314194589492,-0.074446728884,-0.0761929321377,1.95822751522,1.25336420536,0.515929043293,-0.424532026052,1.12811028957,0.0721698403358
2017/07/09/10:05:21.125217,430579,1499565923,929630216,,0.784051377498,0.394248682952,0.16599803521,0.627011784115,0.776282125148,0.0568544871984,0.0317781692732,0.0330081105664,-0.0704869265063,0.00556900033186,-0.00873527108686,-0.054782435751,-0.0973135575084,1.62770664692,1.21244132519,0.492580652237,-0.373279571533,1.02585852146,0.0929213315248
2017/07/09/10:05:21.135396,430580,1499565923,939633778,,0.784025544894,0.392398097598,0.165679390183,0.627408479728,0.776012582815,0.0561844472775,0.03172347336,0.036258065658,-0.0791958331129,0.00542881721387,-0.00318779848645,-0.0503814983663,-0.132431549372,1.44275724888,1.13791441917,0.43230843544,-0.386607944965,0.901888251305,0.029578788206
2017/07/09/10:05:21.145069,430581,1499565923,949629115,,0.784396073253,0.391266199809,0.165738140682,0.628092336796,0.775434766712,0.0563620208273,0.0320040878638,0.0307486332571,-0.101985535959,-0.00403455110813,-0.0192201768592,-0.0190575323224,-0.128351863778,0.913850784302,1.11670601368,0.113333582878,-0.41287112236,0.622103869915,0.011610802263
2017/07/09/10:05:21.155469,430582,1499565923,959635125,,0.784859115404,0.39001497088,0.165554094083,0.628773778678,0.77487653919,0.0562683021919,0.0323073123164,0.030665200478,-0.104263480453,-0.00402898066086,0.00590921295418,-0.0235783263972,-0.152638296178,0.604278624058,1.08305168152,0.125463545322,-0.31307014823,0.490617752075,0.0398342162371
2017/07/09/10:05:21.165162,430583,1499565923,969629855,,0.785064588902,0.390145233301,0.165897365775,0.628710941834,0.774888167891,0.0568075247016,0.0323076464315,0.0346130562033,-0.118714115706,-0.00227499402815,-0.0127662275793,-0.0393392097772,-0.160223450773,1.08398485184,1.26193594933,-0.0277087111026,-0.491820961237,0.611263990402,0.000429272651672
2017/07/09/10:05:21.175342,430584,1499565923,979628639,,0.785733591693,0.389141316545,0.166093455405,0.629460387704,0.774231194495,0.0572570460866,0.032669687105,0.0381282703355,-0.108525673531,0.00599682437492,0.006669324632,-0.048813138395,-0.170917539107,0.720195174217,0.928950965405,0.0534240975976,-0.308514118195,0.489659070969,0.0441878810525
2017/07/09/10:05:21.185087,430585,1499565923,989628533,,0.786447408255,0.386261270859,0.166077067989,0.630686619936,0.773217988826,0.0569249834143,0.0335838570103,0.0547740990508,-0.124030945093,-0.00165988067384,0.0205459170484,-0.0715816320229,-0.204064322599,1.232213974,1.0103302002,-0.0597933344543,-0.336706668139,0.701909542084,0.0538740381598
2017/07/09/10:05:21.195060,430586,1499565923,999633286,,0.78648269375,0.386400471675,0.165928531389,0.630943960064,0.772997964153,0.0572557086583,0.0332513232704,0.0575414302637,-0.154160044723,0.0020382175196,-0.00274885585715,-0.076596743358,-0.238990569711,1.47552001476,0.71968883276,-0.191662758589,-0.21846395731,0.748140692711,0.0824095010757
2017/07/09/10:05:21.205198,430587,1499565924,9634225,,0.787303294375,0.383924611216,0.16631988281,0.632407985654,0.771749763106,0.0576757823509,0.033703812201,0.0479000843534,-0.163146445541,0.00920856781408,-0.012128385308,-0.0632398040201,-0.216358733828,1.61032104492,0.999053776264,-0.21766205132,-0.382267355919,0.766029834747,-0.0226896964014
2017/07/09/10:05:21.215399,430588,1499565924,19627436,,0.787609951264,0.382871819375,0.165793506417,0.632985733725,0.771286504293,0.0575240535374,0.0337219877979,0.0525657133393,-0.153203420139,0.00678305322551,0.00196605387877,-0.0698119902746,-0.22777106803,1.76818442345,0.975981831551,-0.136453583837,-0.403019547462,0.82868719101,0.0178902074695
2017/07/09/10:05:21.225539,430589,1499565924,29627261,,0.787832333223,0.381494252408,0.166152195273,0.633492214536,0.770836397049,0.0577767249888,0.0340692406232,0.0610428466965,-0.176707770272,0.00413859670401,-0.0202301675107,-0.0838205556112,-0.238467179614,1.86546957493,1.1587460041,-0.26877450943,-0.456465184689,0.894551753998,-0.0121994279325
2017/07/09/10:05:21.235074,430590,1499565924,39628301,,0.788361280223,0.379602706906,0.166332057618,0.634635747358,0.769890671861,0.0576154465921,0.0344424428699,0.0434522822441,-0.180118750285,0.00416119707328,-0.0132361144904,-0.0415508870079,-0.227073561046,1.74684870243,1.21128058434,-0.29002609849,-0.460126340389,0.860558390617,-0.000190149992704
2017/07/09/10:05:21.245041,430591,1499565924,49628686,,0.788743879734,0.377318677157,0.165980142596,0.635985317945,0.768772978594,0.0577201105562,0.0343390678284,0.043531264428,-0.18482636473,0.0010836492796,0.00604700994696,-0.0297089389913,-0.271920189037,2.2034471035,1.17713367939,-0.301134556532,-0.486939162016,1.0398119688,0.0146437622607
2017/07/09/10:05:21.255436,430592,1499565924,59633884,,0.789053262023,0.375677209807,0.166097430547,0.636681493939,0.768180532295,0.0577958352019,0.0345685769301,0.0488415001902,-0.204899267681,0.00413986457961,0.00624930436062,-0.0396751326757,-0.300201072477,2.04846739769,1.13064432144,-0.464838176966,-0.436376214027,0.939492583275,-0.000616360455751
2017/07/09/10:05:21.265322,430593,1499565924,69629233,,0.790222216014,0.372999095078,0.166548351029,0.638232829623,0.766831145179,0.058059943252,0.0354667867634,0.0568059970473,-0.222174032977,0.00392992497447,0.0106836844719,-0.0550406522946,-0.326114283776,1.88329219818,0.984383523464,-0.427866786718,-0.360521733761,0.880803823471,0.0604916997254
2017/07/09/10:05:21.275522,430594,1499565924,79634644,,0.790851852188,0.37156251585,0.166954309264,0.638798228579,0.766293282247,0.0586541041128,0.0359322253459,0.0551882317809,-0.217682195492,-0.00181261846027,0.00577225625562,-0.0483404186985,-0.320305957466,2.11971926689,0.979487478733,-0.619274735451,-0.382115960121,0.95721334219,0.0281665641814
2017/07/09/10:05:21.285237,430595,1499565924,89630892,,0.791422248003,0.369407823644,0.166553753226,0.640281218109,0.765048789833,0.0589269897158,0.0356078754586,0.0512326714955,-0.195793110614,0.000906050512936,0.0200778799438,-0.0489092384937,-0.272662459959,1.85461330414,0.914741635323,-0.551959037781,-0.325288295746,0.824155271053,0.0565167367458
2017/07/09/10:05:21.295276,430596,1499565924,99635268,,0.791644553252,0.366220927146,0.166519446465,0.641735610516,0.76385965825,0.0582929871216,0.0359966157612,0.0488086376131,-0.218124057977,0.000341353768475,0.0180902732361,-0.0440703302683,-0.308580861403,1.81172418594,0.89480304718,-0.568184614182,-0.395831733942,0.818280279636,-0.00554680451751
2017/07/09/10:05:21.305132,430597,1499565924,109627762,,0.791899834008,0.364398787676,0.166465631547,0.6427437111,0.76300387222,0.0583432997643,0.0360786944157,0.0608788872343,-0.222958406689,0.0142857155658,0.0204914895524,-0.0729051714236,-0.319989511181,1.7503695488,0.934692621231,-0.480022758245,-0.402137935162,0.820513606071,0.00550052337348
2017/07/09/10:05:21.315336,430598,1499565924,119633758,,0.793020440627,0.363142569499,0.16690319511,0.643603877152,0.762169154795,0.0595135320575,0.0364742141149,0.0471047620656,-0.225128469276,0.00885831989948,0.0145420043409,-0.0446758937219,-0.325355639337,1.23911368847,0.822853446007,-0.311117559671,-0.338248670101,0.675709724426,0.045843154192
2017/07/09/10:05:21.325108,430599,1499565924,129633844,,0.792594881822,0.360687225735,0.166314439096,0.64509803897,0.76098807498,0.0588507824128,0.0358085920455,0.0398751300178,-0.228899388829,-0.00354105465918,0.0136429291945,-0.0170516740223,-0.317981381408,1.2776838541,0.83273857832,-0.376155763865,-0.429393917322,0.684774339199,-0.0219928342849
2017/07/09/10:05:21.335221,430600,1499565924,139633613,,0.793164344751,0.357419809394,0.167043342083,0.646480503418,0.759784172774,0.058833983842,0.0364627460214,0.0289118176843,-0.241164604391,-0.00911188503799,0.00366570957312,0.0165381192945,-0.326666419632,1.73457109928,0.701115906239,-0.440943062305,-0.284222126007,0.877369940281,0.0562576130033
2017/07/09/10:05:21.345138,430601,1499565924,149628941,,0.793774481169,0.356359196293,0.166829639797,0.647035241565,0.759286923811,0.0591614208537,0.0364511973156,0.0284523401576,-0.253028667562,0.00411374153673,-0.00699682293749,0.00942559155258,-0.327576724516,1.44230949879,0.681670546532,-0.317209750414,-0.305111199617,0.745664715767,0.0388043187559
2017/07/09/10:05:21.355268,430602,1499565924,159627689,,0.793734518017,0.353396543709,0.166715631004,0.648516361851,0.758062283925,0.0585680956679,0.0365770457064,0.0248439363509,-0.24375775583,-0.00486213602633,-0.0094508514861,0.0180939413134,-0.323848924416,1.4902664423,0.705403506756,-0.461102634668,-0.286242932081,0.706803381443,0.057881552726
2017/07/09/10:05:21.365220,430603,1499565924,169627012,,0.793600309974,0.351184233368,0.166278690468,0.649755622465,0.757033386697,0.0582409553145,0.0364152938542,0.0152193106978,-0.244904107397,-0.0109775104707,0.0103263492593,0.0392341549778,-0.350872238855,1.88693213463,0.766806781292,-0.285978317261,-0.319832265377,0.877752244473,0.0394874662161
2017/07/09/10:05:21.375195,430604,1499565924,179661219,,0.794186537741,0.348589435624,0.166274734313,0.650956311912,0.75598977505,0.0582729791148,0.0366005451657,0.0273653604573,-0.26018520785,-0.0129546256931,0.00938890986288,0.0179266716795,-0.375042952591,1.94589972496,0.591097772121,-0.229070484638,-0.287369012833,0.903351247311,0.0459288433194
2017/07/09/10:05:21.385466,430605,1499565924,189629852,,0.794730285178,0.34575119733,0.16651512173,0.652770465982,0.754398229083,0.0585434239933,0.0366973868856,0.0424036787448,-0.275074625859,0.0160477440734,0.00282202551293,-0.0325346027674,-0.371430318765,1.75444483757,0.539148688316,-0.185520067811,-0.27729088068,0.827488303185,0.0316900089383
2017/07/09/10:05:21.395110,430606,1499565924,199628396,,0.794670894055,0.34220958274,0.166290849513,0.654282323936,0.753143640897,0.0578058549873,0.0367121218554,0.0384253709188,-0.288220946605,0.00593839672949,-0.0167850710683,-0.0223240406408,-0.373629445821,2.00055909157,0.595937013626,-0.119064420462,-0.257859557867,0.94699805975,0.0460800677538
2017/07/09/10:05:21.405128,430607,1499565924,209629627,,0.794961653263,0.339850729644,0.166412397267,0.655441788125,0.752117030023,0.0579609606446,0.0368315431388,0.025598548477,-0.295820744917,-0.0100258884028,-0.0120802442846,0.0157545231978,-0.41331313514,2.01081132889,0.501919388771,-0.152809605002,-0.197306901217,0.973780572414,0.0931989252567
2017/07/09/10:05:21.415395,430608,1499565924,219633447,,0.795223501712,0.337748024462,0.166571421551,0.656627979688,0.751059770258,0.058218670306,0.0368714553428,0.0347443994759,-0.271997416956,-0.000966794361724,0.0169094532299,-0.0134527217421,-0.393492996973,2.36003017426,0.440707087517,-0.221644222736,-0.166120201349,1.12768721581,0.093439951539
2017/07/09/10:05:21.425193,430609,1499565924,229629987,,0.795833968921,0.33438354539,0.166829948124,0.658138680775,0.749725007137,0.0579761925592,0.0374786824514,0.0385034377464,-0.305498453675,0.0125917711332,-0.0114394721811,-0.0238823367392,-0.413026280887,2.24037957191,0.656837761402,-0.330746591091,-0.329476982355,1.0666321516,0.048743262887
2017/07/09/10:05:21.435372,430610,1499565924,239635048,,0.796351193609,0.331436415723,0.167146619887,0.659914147153,0.74812326084,0.0583638914264,0.0376637910304,0.043793653739,-0.313501333187,0.0271937517532,0.00582340904368,-0.0423073262499,-0.429219442458,1.77973413467,0.737070798874,-0.399175524712,-0.305167227983,0.87851691246,0.050224095583
2017/07/09/10:05:21.445344,430611,1499565924,249626898,,0.796666966062,0.328599841723,0.167290035164,0.661374555438,0.746832403584,0.0582849806974,0.0377878208041,0.0405221821475,-0.301442966286,0.0223986192095,0.00243212075241,-0.0316441625463,-0.422417813155,1.58543753624,0.520991683006,-0.755981862545,-0.27583912015,0.743088304996,-0.0109385522082
2017/07/09/10:05:21.455434,430612,1499565924,259631689,,0.79685207001,0.324945652161,0.167242850921,0.663070972575,0.745347811839,0.0579448883332,0.0378934642175,0.0354322218183,-0.308824457204,0.00609602346728,-0.00928964079607,-0.0140602690424,-0.41708935799,1.28225171566,0.508276224136,-0.966927647591,-0.248174279928,0.627960264683,0.0242427513003
2017/07/09/10:05:21.465410,430613,1499565924,269629108,,0.797479610723,0.322163902583,0.167578271928,0.66478260523,0.743764886803,0.0583913607363,0.0383187934885,0.033376313011,-0.328421255825,0.0125765959802,0.00376675990012,-0.0179498437366,-0.446577840614,0.694936931133,-0.632598400116,-0.631214499474,0.0529663302004,0.398466080427,0.0865675508976
2017/07/09/10:05:21.475417,430614,1499565924,279643528,,0.79796361899,0.319393738866,0.167515943005,0.666657400851,0.742065290208,0.0585370697402,0.0384763099132,0.0411073525112,-0.327179848924,0.0165987051349,0.00381182480978,-0.0415019024225,-0.446865218047,0.868085026741,-0.312443524599,-0.80947548151,-0.0444563254714,0.496443301439,0.0653478354216
2017/07/09/10:05:21.485285,430615,1499565924,289643572,,0.798584300172,0.315930150722,0.167663362983,0.667732351885,0.74106680826,0.058521022125,0.0390996408111,0.0467138491614,-0.327979249201,0.0125237528506,-0.0169913109281,-0.0535694075017,-0.42784210284,0.815863966942,-0.139551579952,-1.03950190544,-0.179735332727,0.453497499228,0.0210279785097
2017/07/09/10:05:21.495303,430616,1499565924,299635804,,0.798660790244,0.312483945863,0.167578843226,0.669653461327,0.739361685085,0.0582668651158,0.0389038917159,0.0420618029224,-0.345245148882,0.0140126342076,-0.0198114547562,-0.0447688476575,-0.450653015748,-0.271696537733,-0.313456147909,-1.18245482445,-0.141259223223,0.0508991628885,-0.00402108579874
2017/07/09/10:05:21.505234,430617,1499565924,309636769,,0.798506216574,0.309046901556,0.167640286041,0.671337955329,0.737869083621,0.057836392819,0.038852501041,0.0354444656408,-0.338451612044,0.0175374229245,-0.00563417442438,-0.0293171439501,-0.457895488221,-0.817753553391,-0.365426510572,-1.14480960369,-0.0836587175727,-0.149243861437,0.0281233377755
2017/07/09/10:05:21.515416,430618,1499565924,319632951,,0.799330114453,0.30641223751,0.16800232875,0.672674496268,0.736577584031,0.0584567811048,0.0393101706559,0.0330107842407,-0.357360462486,0.0239463038966,-0.0204366310137,-0.0318866326022,-0.48371610944,-0.976460874081,-0.187750130892,-1.31496524811,-0.0746722221375,-0.238737374544,0.021277885884
2017/07/09/10:05:21.525074,430619,1499565924,329627913,,0.799097003579,0.302207243684,0.167643173653,0.674786153528,0.734702535073,0.0576259189358,0.0394345715221,0.016206048935,-0.337318092951,0.00209624554455,0.00441208683419,0.0146427428153,-0.474397652278,-0.631537079811,-0.361395716667,-1.19833338261,-0.0910886377096,-0.121924936771,-0.00655512139201
2017/07/09/10:05:21.535177,430620,1499565924,339628385,,0.799900039549,0.298950039045,0.168330113029,0.676252353929,0.733285511991,0.0580697577084,0.040037669128,0.0163814660329,-0.338798061915,0.00291174035695,0.00923264888132,0.0102433187843,-0.4665081084,0.00110648106784,-0.626340150833,-0.853976786137,-0.0232277102768,0.0412960574031,-0.00250942213461
2017/07/09/10:05:21.545330,430621,1499565924,349626722,,0.799828367635,0.295720077286,0.168509407481,0.677896432711,0.731794130488,0.0578565824464,0.0398295489332,0.0252027497806,-0.353363518425,0.00972997960799,-0.0168751066771,-0.00944120680002,-0.473456711232,0.160898089409,-0.425709038973,-0.731408715248,-0.0542590543628,0.0766664221883,0.0210808627307
2017/07/09/10:05:21.555422,430622,1499565924,359634871,,0.800117163053,0.291796488081,0.168789535905,0.679929840213,0.729900435365,0.0575807702283,0.0403140390202,0.0271712423922,-0.344518208136,0.0233046327099,0.00971903460392,-0.0192551932528,-0.478555949726,-0.0776502639055,-0.542719364166,-0.740963697433,-0.0336219631135,-0.0931198969483,0.00833608116955
2017/07/09/10:05:21.565261,430623,1499565924,369632148,,0.800712904257,0.289027566372,0.169133199897,0.681380952772,0.728494812578,0.0582046258269,0.0403426174054,0.0206672214096,-0.352072697192,0.0270298110978,0.0133115498783,-0.0145207493905,-0.494475754325,-0.625720560551,-0.85732293129,-0.636013090611,0.135431572795,-0.331858813763,0.0642785727978
2017/07/09/10:05:21.575214,430624,1499565924,379640850,,0.800600765262,0.285030770801,0.16856592324,0.682865181271,0.727144435458,0.0574458407144,0.0406950804753,0.0372472141854,-0.35774461007,0.0257862117534,0.00485402132818,-0.0502398214405,-0.484921789935,-0.851760923862,-1.00208342075,-0.950487554073,0.100207693875,-0.39017316699,-0.000695249531418
2017/07/09/10:05:21.585134,430625,1499565924,389628486,,0.800750778713,0.282327265552,0.16852508678,0.684724426474,0.725385372581,0.0578399172151,0.0402872810173,0.0369194562693,-0.370605124684,0.012117820522,-0.0174607373993,-0.0452907375262,-0.490876923434,0.0648000091314,0.289086818695,-0.714407801628,-0.540666878223,0.0144141418859,-0.130143478513
2017/07/09/10:05:21.595480,430626,1499565924,399634566,,0.801139164114,0.278947183669,0.168958884228,0.686341359051,0.723832886607,0.0577064503417,0.0408834527878,0.0273606271045,-0.339489639865,0.00990525279521,0.00527657670119,-0.0331174215484,-0.474032082934,0.349852472544,1.74602651596,-0.497128844261,-1.28253996372,0.120153144002,-0.323253840208
2017/07/09/10:05:21.605474,430627,1499565924,409630469,,0.801352441272,0.275141233733,0.168877510083,0.688269125872,0.721999109747,0.0575453974667,0.0411269148648,0.0313206860471,-0.363500783042,0.0157037214154,-0.0163888347196,-0.0426313064873,-0.505469436656,0.2150683254,2.15833377838,-0.544019818306,-1.42325651646,0.0452211461961,-0.365753114223
2017/07/09/10:05:21.615536,430628,1499565924,419635223,,0.802422315742,0.272274676488,0.169892177004,0.68966075412,0.720541272215,0.058384307326,0.0421852097259,0.0461962079681,-0.379501760403,0.0291334146668,-0.0241677030984,-0.0783813686863,-0.525488338741,-0.226640120149,1.60355114937,-0.42047226429,-1.0448641777,-0.166031092405,-0.227246195078
2017/07/09/10:05:21.625103,430629,1499565924,429627522,,0.802416019132,0.268074170872,0.16956212233,0.691366559088,0.718954047164,0.0575498203917,0.0424897306911,0.0298703752619,-0.393458403532,0.0240324145211,-0.0306012625385,-0.0423480562423,-0.548519928929,-1.47117972374,0.580575466156,-0.497687935829,-0.490615934134,-0.659760475159,-0.118459872901
2017/07/09/10:05:21.635575,430630,1499565924,439629581,,0.803031548639,0.263441617253,0.17052022773,0.693603577177,0.716722765195,0.0578869925128,0.0432625898004,0.0322622140439,-0.381955345083,0.039690852398,-0.0469535286089,-0.0595808042045,-0.488017159347,-2.14332151413,-0.637845873833,-0.208046585321,0.0718636140227,-0.88710963726,0.0218523424119
2017/07/09/10:05:21.645199,430631,1499565924,449629945,,0.803222847646,0.260349930236,0.170549370683,0.694744505668,0.715598107184,0.0577199241522,0.0437930496147,0.02671626979,-0.398992720792,0.0346526542051,-0.0692657089299,-0.0520067772216,-0.488140876769,-2.57822918892,-0.581387102604,-0.0120412968099,0.264562726021,-1.00033307076,0.0514004789293
2017/07/09/10:05:21.655044,430632,1499565924,459634079,,0.803434301713,0.257197309694,0.170511968816,0.696561025374,0.713826539359,0.057924270452,0.0435796802424,0.0334215126253,-0.371554989652,0.0253223435957,-0.0284478278392,-0.0652063809423,-0.48236662557,-2.33621621132,-0.413512825966,0.191495880485,0.117098599672,-0.884578645229,0.00193787366152
2017/07/09/10:05:21.665320,430633,1499565924,469630067,,0.803876771475,0.253998376636,0.171121457986,0.698248952408,0.712114402842,0.0583086765801,0.0440633176452,0.0340162968596,-0.357700801099,0.0204939085094,0.0263582003387,-0.0664984644787,-0.493454373091,-2.39324212074,-0.264947295189,0.30853921175,-0.055336240679,-0.95259732008,-0.0205030217767
2017/07/09/10:05:21.675304,430634,1499565924,479634793,,0.804368345065,0.249476319411,0.171491941526,0.700535939087,0.709818686937,0.0583240461862,0.0447787378022,0.0377046963714,-0.368245681178,0.0383684961122,0.0367922689711,-0.084204384133,-0.546560997146,-2.71392536163,-0.501438319683,0.466540575027,-0.0956877544522,-1.07690417767,-0.0507725067437
2017/07/09/10:05:21.684854,430635,1499565924,489629362,,0.804312915163,0.246703811011,0.171560582515,0.702030034782,0.708354740816,0.0583325835344,0.0445499845731,0.0282262668782,-0.368961941295,0.0255100042675,0.0199470887904,-0.0524664881061,-0.529032803819,-3.49688863754,0.0319177359343,0.57373303175,-0.227862387896,-1.42882144451,-0.079508960247
2017/07/09/10:05:21.695350,430636,1499565924,499635157,,0.804201816616,0.243745572865,0.171794617743,0.703147959453,0.707253156565,0.0581372988463,0.0446763262592,0.0246089493708,-0.353664065025,0.0413761013168,-0.0123849010302,-0.061270724792,-0.474936116434,-4.75608253479,0.00188213400543,0.478249102831,-0.235799714923,-1.90577793121,-0.0985851660371
2017/07/09/10:05:21.705388,430637,1499565924,509632218,,0.80535344909,0.239273274818,0.17269480419,0.705038308326,0.705239539262,0.058669823145,0.04600030333,0.034145469289,-0.359098950469,0.0476452153932,0.0012090963452,-0.0857705071054,-0.486965964603,-4.53965711594,-0.497899919748,0.850857853889,-0.142388403416,-1.8425372839,-0.110003329813
2017/07/09/10:05:21.715101,430638,1499565924,519628268,,0.805069012313,0.235538427809,0.172188676499,0.707065934473,0.703222997732,0.058604489845,0.0458333234607,0.0253390972332,-0.381470916399,0.0274942206936,-0.0184212520595,-0.0649491070937,-0.522825507548,-5.42032957077,-0.506316184998,1.10041677952,-0.123468600214,-2.12783074379,-0.0966898426414
2017/07/09/10:05:21.725462,430639,1499565924,529632437,,0.805688232953,0.232810067866,0.173188044208,0.708634671824,0.70156396699,0.0590269461827,0.0464835641232,0.0204616000328,-0.358589582041,0.0221439840944,-0.000335893433072,-0.053049539247,-0.495326312817,-5.20559310913,-0.413077920675,1.18316364288,-0.0752502828836,-2.02859735489,-0.0719147622585
2017/07/09/10:05:21.735337,430640,1499565924,539634491,,0.806153662518,0.228698505536,0.173369034019,0.710204295576,0.699921509763,0.059045488106,0.0472585341705,0.0185119373157,-0.372465411413,0.0234116987965,-0.0165727732124,-0.053552846869,-0.49054973756,-5.44132041931,-0.635288178921,1.14566719532,-0.0452389419079,-2.16154170036,-0.0682510510087
2017/07/09/10:05:21.745255,430641,1499565924,549637487,,0.805892273763,0.226181212303,0.173352659877,0.711365396101,0.698768512708,0.0588863889997,0.0470556273796,0.0253847647153,-0.383160290504,0.0265365964534,-0.0327020249251,-0.074334694099,-0.499455986498,-5.84597349167,0.207785308361,0.85616928339,-0.127484560013,-2.30864548683,-0.106588341296
2017/07/09/10:05:21.755276,430642,1499565924,559625214,,0.80618359661,0.222363052537,0.173472479884,0.712912149434,0.69716165996,0.0586794885462,0.0477347325891,0.0201411395971,-0.347448828302,0.0261741660866,-0.0246429347724,-0.0582082646614,-0.454659292024,-5.95953416824,0.15880857408,1.03245377541,-0.09241656214,-2.37083101273,-0.0720987021923
2017/07/09/10:05:21.765130,430643,1499565924,569630134,,0.806060411461,0.219158818821,0.173754794336,0.714647534657,0.695381849267,0.0587898963421,0.0476102195618,0.01448605433,-0.365361290074,0.00859694178474,-0.0404299811417,-0.0398030178594,-0.463145261184,-6.47369909286,0.344189286232,0.662396252155,-0.121684111655,-2.55310511589,-0.079888574779
2017/07/09/10:05:21.775352,430644,1499565924,579635337,,0.806532301311,0.215285284755,0.173666504627,0.716217908544,0.693720555278,0.0587328080658,0.0483131030023,0.0134188041382,-0.360344328645,0.00956121736938,-0.0209146444979,-0.0449817361711,-0.475009075235,-6.76540660858,-0.275877743959,0.961984992027,0.118187300861,-2.67088627815,-0.00668655429035
2017/07/09/10:05:21.785381,430645,1499565924,589627788,,0.806756051393,0.212321853954,0.173688685899,0.717834356197,0.692012818294,0.0588973268407,0.0486127686081,0.0272866929599,-0.349537926149,0.031089575636,-0.00320483658339,-0.0901066270582,-0.496186898728,-6.96473550797,-0.163261801004,1.2035138607,0.0225648824126,-2.70271682739,-0.0430653765798
2017/07/09/10:05:21.795365,430646,1499565924,599630737,,0.807261281742,0.210030978702,0.174556302528,0.719258347806,0.690450094779,0.0594468229474,0.0491138572422,0.0196707264072,-0.341906744474,0.0180075864438,-0.0017743623067,-0.0670941573932,-0.484214021284,-7.01582384109,0.573027431965,1.39065694809,-0.130001798272,-2.73587393761,-0.0916216671467
2017/07/09/10:05:21.805358,430647,1499565924,609630391,,0.807329365647,0.20626785716,0.174669728414,0.720307000329,0.689329631882,0.0593299850277,0.0496229459231,0.020418026236,-0.300502012624,0.0212269315098,0.0246752387448,-0.0677206396838,-0.421585756383,-7.92881965637,0.0340066850185,1.59677946568,0.0413604006171,-3.12775182724,-0.0388394035399
2017/07/09/10:05:21.815353,430648,1499565924,619639300,,0.807365501979,0.202655158016,0.174844799465,0.722238613055,0.687287152613,0.0594115095446,0.0497797970929,0.013636474141,-0.311052439348,0.015047953383,0.00657569896175,-0.0550652382675,-0.409256588472,-8.13224124908,-0.315370857716,1.28865921497,0.0818052813411,-3.16644716263,-0.0595460943878
2017/07/09/10:05:21.825315,430649,1499565924,629637000,,0.807488074463,0.199984902812,0.175091858238,0.723651428,0.685772599427,0.0595965174563,0.0499280255616,0.0229929833534,-0.337820344373,0.0287502716828,-0.0178766131798,-0.0788963021491,-0.447514896894,-7.59621667862,0.0575465448201,1.13422870636,0.0891455635428,-2.99490094185,-0.0200494676828
2017/07/09/10:05:21.835298,430650,1499565924,639635078,,0.807724485338,0.196960513582,0.175187406865,0.724616570395,0.684709234547,0.0594603782431,0.050680898319,0.0253849227377,-0.318594168449,0.01818921361,0.0111538623861,-0.0791955211209,-0.450426699205,-7.48981428146,-0.347954452038,0.979991078377,0.20913040638,-2.96488308907,-0.0264838673174
2017/07/09/10:05:21.845790,430651,1499565924,649636394,,0.807799463533,0.193981313761,0.174997035559,0.726381990395,0.682815595237,0.0596312293352,0.0507561170599,0.0289680115304,-0.30748560828,0.0165509726285,0.0105320947135,-0.0846035349917,-0.426080319611,-7.85710525513,-0.263297200203,0.71741515398,0.27655094862,-3.07082056999,0.0226042661816
2017/07/09/10:05:21.855319,430652,1499565924,659627334,,0.807941094274,0.191448149703,0.174997245494,0.727345585057,0.681785936136,0.059743136702,0.0506665057258,0.0176226475963,-0.29670562597,2.89464844556e-05,-0.00313824456348,-0.0434555000088,-0.396348981494,-8.23351097107,-0.345704346895,0.770418643951,0.311473011971,-3.26238751411,0.026639200747
2017/07/09/10:05:21.865203,430653,1499565924,669630696,,0.808148272009,0.18922778932,0.175013609672,0.728450662109,0.680576838211,0.0598764955703,0.0508881660415,0.0177692371887,-0.269367747653,0.00975103968194,0.0139768281906,-0.0408677539282,-0.371640276082,-9.06089782715,-0.295910805464,0.945100843906,0.280614733696,-3.6405749321,0.000700984150171
2017/07/09/10:05:21.875269,430654,1499565924,679647557,,0.808188373502,0.185721408376,0.174977284252,0.730126832372,0.678780017376,0.05977356033,0.0509864506216,-0.00340366834755,-0.316017779972,-0.00902153114789,0.00678453178414,0.00372775268073,-0.431784645285,-9.22432804108,-0.272290945053,0.973951339722,0.188426375389,-3.79731750488,-0.014341916889
2017/07/09/10:05:21.885036,430655,1499565924,689628076,,0.808408490932,0.183597524747,0.175129314677,0.731162142582,0.677636218079,0.0600072663167,0.0510901672702,0.0196944744633,-0.294379354602,0.0093643324894,0.0207420342583,-0.0519047990897,-0.427079910498,-9.67569923401,-0.120183698833,1.00925433636,0.185762822628,-4.02293968201,-0.0115127824247
2017/07/09/10:05:21.895101,430656,1499565924,699630005,,0.80917792331,0.180595942273,0.175572163484,0.73253936232,0.67603912743,0.0605683915694,0.051852201285,0.0111154516544,-0.286360086559,0.0162392325514,0.0101995815159,-0.0336881149084,-0.394926234485,-9.21627521515,-0.0450584068894,1.00354361534,0.1236102283,-3.96926736832,-0.0126914270222
2017/07/09/10:05:21.905139,430657,1499565924,709628573,,0.808688337541,0.177899869087,0.174937611683,0.733774230766,0.674788383165,0.0598764619274,0.051486168206,0.0106456551468,-0.292292048749,0.00887370550945,0.018262020209,-0.0226541761957,-0.419841268725,-8.60882472992,-0.300586700439,0.473025918007,0.15395475924,-3.73619604111,-0.0252843052149
2017/07/09/10:05:21.915289,430658,1499565924,719644859,,0.808603681046,0.174683427873,0.174992647378,0.735407188822,0.673011252908,0.0597487222174,0.0515966111425,0.00294410167435,-0.285122346235,-0.0118897268644,0.0133240907159,0.00992333850366,-0.402781314283,-8.60082435608,-0.478332400322,0.0085842628032,0.383554726839,-3.79381752014,0.0717190653086
2017/07/09/10:05:21.925579,430659,1499565924,729631991,,0.808807744286,0.17252575994,0.175121731271,0.736267419099,0.672069063931,0.0595384543081,0.0518520331179,0.0124700550222,-0.299315994705,-0.00661548241638,-0.00549588026225,-0.00964550342096,-0.414992959827,-8.95646762848,-0.119313299656,0.104320280254,0.424883365631,-3.97389793396,0.12340220809
2017/07/09/10:05:21.935147,430660,1499565924,739635822,,0.808826653929,0.169774297784,0.174599172286,0.737593703285,0.67063401353,0.0595289316183,0.0515931688436,0.00998643337709,-0.262723645351,-0.00952483821115,-0.00239075541564,0.00908708939145,-0.340600984635,-9.32156562805,-0.133745342493,0.0678613632917,0.481265336275,-4.12894678116,0.1173183918
2017/07/09/10:05:21.945349,430661,1499565924,749629175,,0.80878910936,0.166650034238,0.175205669865,0.738690772269,0.669450274459,0.0588353439941,0.0520641459073,0.0052167068951,-0.270988261692,-0.0162715385792,-0.030109721043,0.0312507307398,-0.342986302856,-9.66209506989,-0.355872631073,0.616172075272,0.562014043331,-4.22933387756,0.156033709645
2017/07/09/10:05:21.955304,430662,1499565924,759628096,,0.808852103672,0.164210550198,0.174640157871,0.739909416586,0.668129813502,0.0585201549435,0.0520768568769,-0.00579921271225,-0.277230394733,-0.0160005380985,-0.0412053643189,0.0699454343747,-0.346234453232,-10.0152292252,-0.430810213089,0.702273786068,0.461271882057,-4.39559268951,0.106541827321
2017/07/09/10:05:21.965221,430663,1499565924,769628182,,0.808249851543,0.161424036282,0.173473234947,0.741014403884,0.667073372518,0.0573240152824,0.0512320816038,-0.00808511643275,-0.281211905254,-0.0192052881986,-0.0537403591602,0.081481293635,-0.346432622199,-10.261346817,-0.361518621445,0.202666178346,0.244999855757,-4.50001001358,0.0430331081152
2017/07/09/10:05:21.975488,430664,1499565924,779635181,,0.808080199649,0.158667309294,0.174000303944,0.741900199959,0.666116677295,0.0565088839492,0.0517630328015,-0.0134557978714,-0.287154776766,-0.0221089119917,-0.0637652663432,0.108127967654,-0.352117589115,-9.35212612152,-0.269136697054,0.00244624423794,0.211172029376,-4.19248867035,0.0691336840391
2017/07/09/10:05:21.985172,430665,1499565924,789627854,,0.808226948853,0.156633260792,0.174079804846,0.742624877314,0.665367490042,0.0558429928495,0.051729633082,-0.0263282273142,-0.287020030117,-0.0143498483653,-0.103322023914,0.146982530169,-0.332423262818,-9.63412380219,-0.100429058075,-0.197341799736,0.146157160401,-4.39449834824,0.0396823845804
2017/07/09/10:05:21.995250,430666,1499565924,799634979,,0.80737843803,0.153556092451,0.173431726507,0.743389988745,0.664684794984,0.0539120975937,0.0515648492992,-0.0315513522217,-0.293980026473,-0.0119455666683,-0.150500016939,0.172135792841,-0.277586908835,-9.74578762054,-0.175902947783,-0.478312551975,0.196247681975,-4.42861604691,0.0797551646829
2017/07/09/10:05:22.005397,430667,1499565924,809633017,,0.807171860668,0.150498736033,0.173593287498,0.744540258317,0.663465041498,0.0526074132049,0.0520230961337,-0.051601768116,-0.302001346364,-0.0251991286558,-0.186892760941,0.236095165143,-0.265061684496,-9.56561946869,0.27882450819,-0.658159315586,0.097863741219,-4.43155765533,0.0761873051524
2017/07/09/10:05:22.015289,430668,1499565924,819634719,,0.806124307815,0.147642769372,0.172828344746,0.745423094659,0.662699345824,0.0503438683846,0.0513758883956,-0.0534124561617,-0.307415843843,-0.0197966856488,-0.2196568713,0.242585174116,-0.278841608275,-10.4285440445,0.101627282798,-0.560191512108,0.107380323112,-4.68665075302,0.0712757483125
2017/07/09/10:05:22.025323,430669,1499565924,829635353,,0.805809638876,0.144515685508,0.173147887621,0.746059971793,0.662060444737,0.0487090762711,0.0519414275056,-0.0689647861162,-0.317837785541,-0.0282914175516,-0.238977563577,0.300853810515,-0.274562080695,-9.35920810699,0.275981426239,0.00117049901746,0.187487721443,-4.2877035141,0.0889831781387
2017/07/09/10:05:22.035337,430670,1499565924,839634148,,0.804629498297,0.141107859931,0.172240581897,0.747011049344,0.661221104896,0.0459818492618,0.0514471781141,-0.081832767955,-0.321112995262,-0.0412023624438,-0.245889076294,0.343921875904,-0.26230917888,-10.0902423859,0.0177357643843,-0.309129118919,0.21197591722,-4.4951505661,0.141492456198
2017/07/09/10:05:22.045281,430671,1499565924,849630505,,0.804029325899,0.138581114259,0.172401250792,0.747551169355,0.660747041189,0.0440756179674,0.0513608474975,-0.096443142821,-0.31051934152,-0.0363382076653,-0.265185333724,0.396365439683,-0.233079784972,-10.0188961029,0.345528334379,-0.326642543077,0.118600971997,-4.44573831558,0.123022645712
2017/07/09/10:05:22.055067,430672,1499565924,859632329,,0.803005729479,0.135963720955,0.171323846706,0.748223402329,0.660218213199,0.041413866448,0.0505820406123,-0.0954050702173,-0.319798609976,-0.029724512163,-0.320876903781,0.412436164312,-0.20841292435,-9.49257087708,0.0576334521174,-1.15837204456,0.16023491323,-4.25404930115,0.12552344799
2017/07/09/10:05:22.065294,430673,1499565924,869633700,,0.802096726127,0.132301897397,0.171851694564,0.748963716817,0.659518488254,0.0383679329896,0.0511528714787,-0.108151096283,-0.313258302729,-0.051617089125,-0.328933351218,0.467934181059,-0.200781428724,-8.36470794678,0.458878993988,-0.845895528793,-0.00615585315973,-3.87802124023,0.125415429473
2017/07/09/10:05:22.075178,430674,1499565924,879626846,,0.80092318413,0.12978432004,0.171163052639,0.749479546066,0.659137347913,0.0355875145925,0.0505162886664,-0.137831750431,-0.34360739989,-0.0561547042746,-0.336967148604,0.544863704422,-0.239105685687,-8.13097190857,0.934832811356,-1.04495465755,-0.177868098021,-3.8049890995,0.0856086239219
2017/07/09/10:05:22.085395,430675,1499565924,889641787,,0.798899599371,0.126069222176,0.170140712682,0.75041917707,0.658334341193,0.0316590358356,0.0496453355422,-0.126444206383,-0.340341462996,-0.0137328113364,-0.372507012147,0.508874320799,-0.230130397431,-9.35109901428,0.372257292271,-1.25025522709,-0.067682184279,-4.22652816772,0.136765360832
2017/07/09/10:05:22.095171,430676,1499565924,899630839,,0.797701235555,0.122098388776,0.170255229236,0.751045049971,0.657767886609,0.0283772503946,0.0496736541883,-0.132887369139,-0.348448330451,-0.0234923654876,-0.40273484902,0.547881257096,-0.207594570751,-8.94728946686,-0.0477979592979,-0.679551064968,-0.082460001111,-4.04213237762,0.116400755942
2017/07/09/10:05:22.105123,430677,1499565924,909633721,,0.796476878,0.118855243032,0.169912805462,0.751693099238,0.657186828636,0.0249471898657,0.0494023738479,-0.137010612335,-0.350829170929,-0.025352786356,-0.438943502619,0.562631194442,-0.193548672368,-8.50847148895,0.287534356117,-0.312287509441,-0.0135406721383,-3.85677218437,0.166500270367
2017/07/09/10:05:22.115328,430678,1499565924,919633666,,0.795483650855,0.115528147698,0.16998928792,0.752237246853,0.656675921213,0.0217147276991,0.0494401612754,-0.145469065941,-0.340924637968,-0.0328402228914,-0.429210644187,0.593766577234,-0.178491670202,-7.23101711273,0.130220070481,-0.0719940438867,-0.00531696761027,-3.36609244347,0.171155542135
2017/07/09/10:05:22.125446,430679,1499565924,929633293,,0.794156910737,0.112396856795,0.169458308028,0.752747655279,0.656227267499,0.0183101418878,0.0490048932927,-0.132336368285,-0.345670704154,-0.0250346762506,-0.438390430326,0.571403819148,-0.182617784909,-5.61703872681,0.282929122448,-0.236157208681,-0.00654545985162,-2.67702174187,0.122385203838
2017/07/09/10:05:22.135286,430680,1499565924,939628786,,0.792746111934,0.109790096144,0.169200687838,0.752838943697,0.656252762543,0.0146744258148,0.048481932052,-0.130442735085,-0.34954376192,-0.00838019907,-0.451381003906,0.568811005115,-0.213075563767,-5.57595539093,0.951996445656,-0.77741765976,-0.178690075874,-2.69538807869,0.11614472419
2017/07/09/10:05:22.145244,430681,1499565924,949631268,,0.792060333544,0.106372046733,0.169688432541,0.753680294266,0.655320177547,0.0114751457153,0.0488855803364,-0.135582079996,-0.336370784314,-0.00232372866182,-0.430548621754,0.581507987978,-0.204568897263,-5.32135486603,0.466933876276,-0.3475677073,-0.101229913533,-2.69277572632,0.126807063818
2017/07/09/10:05:22.155338,430682,1499565924,959643898,,0.790588294207,0.102333622232,0.169460257885,0.754557014108,0.654375083002,0.00765489429174,0.048768491879,-0.125646730152,-0.334599642419,-0.0032881060172,-0.429406841142,0.571522347608,-0.218146653747,-4.68558454514,-0.201821103692,-0.925637543201,-0.048747241497,-2.43305063248,0.12005455792
2017/07/09/10:05:22.165388,430683,1499565924,969627100,,0.789683515474,0.0995063130337,0.169616941533,0.755026155987,0.653882878293,0.00468291659272,0.0484845907791,-0.0970376663672,-0.349240759482,0.00959530297805,-0.441625025257,0.501220773386,-0.226471898048,-4.91801691055,-0.235808387399,-0.573184907436,0.0304557029158,-2.44689464569,0.163482069969
2017/07/09/10:05:22.175277,430684,1499565924,979628185,,0.789223686829,0.0967683580605,0.169619196002,0.755546802726,0.653274515361,0.00179416930271,0.0487669706498,-0.0960840153648,-0.339706041726,0.019615405352,-0.416464632867,0.493901229704,-0.232976659771,-3.95826125145,0.667553007603,-0.508581101894,-0.188184574246,-2.10186553001,0.124387800694
2017/07/09/10:05:22.185428,430685,1499565924,989627623,,0.78743104805,0.0933483419753,0.169464048871,0.756450303881,0.652307447638,-0.00182567410853,0.0476927502647,-0.093857660175,-0.329094712475,0.0143994792232,-0.407155840122,0.496728144235,-0.238863952574,-2.79572200775,0.104549750686,-0.896018505096,-0.126941055059,-1.57183384895,0.105420187116
2017/07/09/10:05:22.195316,430686,1499565924,999633335,,0.787825805712,0.0907617496566,0.170115503553,0.756671516045,0.65197006553,-0.00396621341105,0.0486571640243,-0.0865111354857,-0.327941654469,0.0336999642976,-0.415676578937,0.470618378197,-0.235844832779,-2.38608694077,0.959008514881,-0.56641036272,-0.36414667964,-1.59167706966,0.0719039961696
2017/07/09/10:05:22.205295,430687,1499565925,9627390,,0.786587232234,0.0869722565205,0.170300483367,0.75796202658,0.650478195355,-0.00683917792594,0.0482173130275,-0.0801631986827,-0.326428407242,0.0429662032816,-0.399955858454,0.445076261799,-0.260207252869,-3.15169215202,-0.171541184187,-1.04117548466,-0.194056302309,-1.66853713989,0.104253895581
2017/07/09/10:05:22.215208,430688,1499565925,19634137,,0.78599405335,0.0839606923635,0.170780524881,0.758338210039,0.64995562179,-0.00995554025542,0.0488030338935,-0.0708142815642,-0.313419346545,0.0210943959241,-0.378734444552,0.42667195089,-0.245832627617,-2.43726348877,-0.0429359227419,-0.792568445206,-0.11286727339,-1.39224398136,0.117269299924
2017/07/09/10:05:22.225129,430689,1499565925,29629277,,0.785637520006,0.0809885876177,0.171324204082,0.758976482214,0.6491254429,-0.0126642815868,0.0492998458205,-0.0608665008005,-0.321735956407,0.0459565254134,-0.399338955726,0.384633917315,-0.267479427363,-2.08899927139,-0.179960370064,-0.361153006554,-0.0462105050683,-1.2152504921,0.139116227627
2017/07/09/10:05:22.235244,430690,1499565925,39638966,,0.784828204223,0.078980155442,0.171860876796,0.759326199512,0.648701322722,-0.015311479583,0.0487429505311,-0.0612663981869,-0.321882853733,0.0603592563034,-0.387139190377,0.385347272274,-0.287005864017,-0.848379731178,0.421784847975,-0.471158027649,-0.179775670171,-0.710323870182,0.0451517626643
2017/07/09/10:05:22.245476,430691,1499565925,49643506,,0.784464310739,0.0759158208472,0.172723604547,0.760247697957,0.647527707986,-0.0175699288584,0.0492199425157,-0.0808060234503,-0.299849598384,0.0480472022503,-0.364869604664,0.433455420825,-0.283812537494,-0.764401197433,-0.100542418659,0.0783712044358,-0.0228391569108,-0.57697480917,0.0585164390504
2017/07/09/10:05:22.255307,430692,1499565925,59626356,,0.784435756559,0.0735447991062,0.173276061198,0.760949376953,0.64665845045,-0.0194549042734,0.0490958335883,-0.0719870130318,-0.296042643904,0.0608288430873,-0.355466079293,0.416532061107,-0.282083023313,-0.342244505882,0.743127822876,0.0544478483498,-0.165395826101,-0.567946732044,0.0738968327641
2017/07/09/10:05:22.265113,430693,1499565925,69630532,,0.783226229095,0.0700872052825,0.173451932361,0.762008164074,0.645332112335,-0.0226504212191,0.0487542930645,-0.0556349635703,-0.28706902732,0.0594330134944,-0.298237328478,0.377242450311,-0.276037576505,-0.0516332350671,0.0832730904222,-0.418545722961,-0.161167889833,-0.295236438513,-0.00265225511976
2017/07/09/10:05:22.275284,430694,1499565925,79627583,,0.782428656075,0.0682523019076,0.17386034974,0.762844296353,0.64433874896,-0.0246311958771,0.0478483050779,-0.0610949084954,-0.270965997378,0.0599437846872,-0.277635967245,0.387169287701,-0.300062428908,-0.118233807385,0.212143972516,-0.573250174522,-0.159779071808,-0.317476928234,0.0489587970078
2017/07/09/10:05:22.285378,430695,1499565925,89637687,,0.782352823994,0.0659069002821,0.174985702713,0.763560380889,0.643425211104,-0.0262453175558,0.0478615269149,-0.0791082236332,-0.25701724221,0.0553995307936,-0.225933120287,0.419556209789,-0.332664901202,0.247010722756,0.633099257946,-0.575415670872,-0.207865402102,-0.234949618578,0.0432958938181
2017/07/09/10:05:22.295318,430696,1499565925,99634595,,0.78120522898,0.0633145667103,0.175377807465,0.764665000576,0.642049724155,-0.0288594493831,0.0471881424472,-0.0850524757833,-0.253668884412,0.0605889832273,-0.22268717341,0.421395152014,-0.321727989033,1.12915658951,-0.100917384028,-0.554660201073,-0.125496089458,0.138924643397,0.000912295654416
2017/07/09/10:05:22.305318,430697,1499565925,109635891,,0.780252440187,0.060937336503,0.175681142051,0.76543107592,0.641082810739,-0.0312888775387,0.0463584289404,-0.0724694750288,-0.239411156677,0.0657174232638,-0.210189028165,0.389591234455,-0.328594791839,1.23284876347,-0.0910484269261,-0.961566627026,-0.227283254266,0.19230248034,-0.0593323111534
2017/07/09/10:05:22.315204,430698,1499565925,119628956,,0.779281090495,0.0579047527328,0.176223385814,0.766389102766,0.639820814416,-0.0339168457958,0.0461163330369,-0.0718569892013,-0.243149074909,0.0620157980181,-0.202939238741,0.377568521741,-0.328421800738,2.36899209023,-0.383259743452,-0.288827002048,-0.117607817054,0.616282463074,-0.110038205981
2017/07/09/10:05:22.325310,430699,1499565925,129628371,,0.778670712304,0.0562278493846,0.176830930663,0.767326254583,0.638680491127,-0.0354804693449,0.045152913269,-0.0698123126174,-0.216588306589,0.0658028349277,-0.16490306688,0.369913326112,-0.308754601468,1.88832962513,-0.516918003559,-0.583831369877,-0.133991837502,0.502463042736,-0.0871849954128
2017/07/09/10:05:22.335394,430700,1499565925,139629647,,0.778944790824,0.0545737641387,0.177942544135,0.7683789024,0.63738756223,-0.0360461349942,0.045073650985,-0.0699754550388,-0.228893341628,0.0630807942656,-0.156981711977,0.353559241249,-0.329691060083,2.61335420609,-0.25109860301,0.496992051601,-0.127100139856,0.75486010313,-0.126114472747
2017/07/09/10:05:22.345704,430701,1499565925,149630081,,0.777577647701,0.0528284322315,0.177599122589,0.768872691964,0.636710555279,-0.0388208756908,0.0439020723663,-0.0680312286057,-0.211389178935,0.0722703699982,-0.104403232644,0.329757464666,-0.359669200458,2.54138994217,-0.193231463432,0.222209900618,-0.203691378236,0.888487100601,-0.141509264708
2017/07/09/10:05:22.355334,430702,1499565925,159627784,,0.777566551305,0.0501694864136,0.178866966022,0.770322713609,0.6349086968,-0.0395553285827,0.0439231101636,-0.06434574011,-0.219378735483,0.0774794570097,-0.122890247381,0.308790772045,-0.360922928711,2.17152118683,-0.160283565521,0.466564506292,-0.157523244619,0.738527238369,-0.122942723334
2017/07/09/10:05:22.365239,430703,1499565925,169634729,,0.77698854195,0.048252995276,0.180163727118,0.77149389144,0.633448765352,-0.0408191272293,0.0432855171662,-0.0449754172872,-0.21179613575,0.0929506630053,-0.118702450494,0.255264382722,-0.371552826489,2.8361492157,-0.638485789299,0.87706553936,0.0443261116743,0.990145802498,-0.135411962867
2017/07/09/10:05:22.375312,430704,1499565925,179628272,,0.776016909567,0.046750218189,0.18069298929,0.772627910485,0.632050658716,-0.0423724042087,0.041983998357,-0.0665207876143,-0.202159281761,0.0791901367775,-0.0672737656887,0.298923501559,-0.385307432705,3.04880213737,-0.510112702847,0.44601175189,0.0193410795182,1.07552182674,-0.153450787067
2017/07/09/10:05:22.385574,430705,1499565925,189631029,,0.775795381324,0.0443987133935,0.181533851256,0.773584383752,0.630793652294,-0.0436868675916,0.0419288330447,-0.0691182686544,-0.206027646003,0.0861546216593,-0.070506161246,0.301795670432,-0.387202065932,3.73575854301,-0.32518401742,0.260932922363,0.117260441184,1.26422202587,-0.171226590872
2017/07/09/10:05:22.395368,430706,1499565925,199626343,,0.775750842814,0.0429997860767,0.182222449303,0.774400451525,0.629783887331,-0.0443340286491,0.041360486459,-0.0657184680222,-0.173445578093,0.080331184835,-0.0392488814776,0.295745897988,-0.334813468021,3.51981711388,-0.486541360617,0.426290661097,0.141267612576,1.16709673405,-0.14717169106
2017/07/09/10:05:22.405089,430707,1499565925,209626885,,0.774251516135,0.040897175326,0.18263636939,0.775611071428,0.628246908007,-0.0462954829203,0.0398750137122,-0.0481175352224,-0.173640745203,0.0906639358548,-0.0166659205648,0.236094660792,-0.383096810226,3.26107382774,-0.825615108013,0.526980638504,0.169217720628,1.1806050539,-0.188564389944
2017/07/09/10:05:22.415309,430708,1499565925,219634713,,0.774352934302,0.0392313651641,0.183893657934,0.77691182684,0.626631010835,-0.0465927351401,0.0396321411059,-0.0710590076464,-0.188587685761,0.0737234035124,-0.000470577288621,0.274106582688,-0.411044474121,4.1307091713,-0.670736849308,1.09624183178,0.272477596998,1.34035468102,-0.180636718869
2017/07/09/10:05:22.425425,430709,1499565925,229627827,,0.773846903023,0.0380111856427,0.184384614058,0.777902697485,0.625419815706,-0.0472387900247,0.0385479452698,-0.0438035861653,-0.176828309651,0.0895963154497,0.0104449676505,0.200722633589,-0.410176839369,3.63482475281,-0.0881942287087,0.439420282841,0.0825332924724,1.24058973789,-0.186490610242
2017/07/09/10:05:22.436028,430710,1499565925,239648094,,0.773551690783,0.0366759998654,0.185525336144,0.778859736689,0.624229056996,-0.0478108086308,0.0378116588477,-0.0513769524414,-0.16184919705,0.0835701170902,0.0620860060602,0.209568128312,-0.39218200932,4.42543697357,-0.665338456631,0.905421853065,0.222058922052,1.48406887054,-0.199630737305
2017/07/09/10:05:22.445312,430711,1499565925,249626298,,0.772878414198,0.0346743581515,0.186214508855,0.780473622829,0.622238615234,-0.0483118993312,0.0366877385939,-0.0487774085371,-0.161811459867,0.0812616163786,0.0412773637158,0.192206351858,-0.382569562704,5.13474559784,-0.729576230049,0.37870067358,0.183849543333,1.72797751427,-0.208302080631
2017/07/09/10:05:22.455140,430712,1499565925,259633356,,0.772070895836,0.0326180096357,0.186844962166,0.781859261527,0.620510542601,-0.0489738718566,0.0355572996828,-0.0427771280228,-0.15332663518,0.0933888579815,0.0650624181485,0.170469661977,-0.374677829444,5.36041927338,-1.43740010262,-0.0499363765121,0.261751413345,1.85630714893,-0.253005802631
2017/07/09/10:05:22.464999,430713,1499565925,269628039,,0.771812598401,0.0316235051064,0.187845180143,0.782340062161,0.619923286321,-0.0492162109844,0.0348842484737,-0.0367126041141,-0.174170709791,0.0934548560919,0.0581312584579,0.129317673663,-0.421042424091,4.51725578308,-0.283783197403,-0.0554713383317,0.0872706249356,1.49997222424,-0.181997984648
2017/07/09/10:05:22.475422,430714,1499565925,279642835,,0.771893144814,0.0299920318493,0.189210318745,0.784068994926,0.61772617168,-0.0493703933194,0.0348245930479,-0.0313229109471,-0.170473089624,0.100487496791,0.0526777285343,0.1028469679,-0.431448682622,5.10616207123,-0.715558469296,0.333101898432,0.254555344582,1.68193697929,-0.199404776096
2017/07/09/10:05:22.485544,430715,1499565925,289628077,,0.771725907296,0.0288449625238,0.189491202867,0.784738781016,0.616919709706,-0.0494575836703,0.0338978577922,-0.0343202457208,-0.149061203644,0.0836843173661,0.0649596956244,0.126284173244,-0.367572281411,5.76175689697,-0.916059076786,0.302126288414,0.277460902929,1.96306312084,-0.241023659706
2017/07/09/10:05:22.495272,430716,1499565925,299635050,,0.771364867859,0.0261842449231,0.190675162834,0.786365211349,0.614787634733,-0.0500478062367,0.0340754405639,-0.0139333488088,-0.144020926492,0.0895163777625,0.0693605386605,0.0661944756568,-0.357221872795,5.71541547775,-1.37139487267,0.816407620907,0.351454406977,1.99138176441,-0.27722966671
2017/07/09/10:05:22.505172,430717,1499565925,309628870,,0.771679767371,0.025165222848,0.19202029517,0.787256785505,0.613722510194,-0.0494473051668,0.0335618558575,-0.0152958011281,-0.178881908261,0.0987542760093,0.0497935201834,0.0354993380309,-0.394306474122,5.38421535492,-0.855469286442,1.07236230373,0.33997386694,1.83409976959,-0.241921871901
2017/07/09/10:05:22.515355,430718,1499565925,319626824,,0.77122333814,0.0236504270042,0.192060347647,0.788341929772,0.612364486585,-0.0496499960143,0.0325824374349,-0.0147121792349,-0.168941827451,0.101975951704,0.0533259061071,0.0281300895305,-0.389249594881,5.64492940903,-0.767910242081,0.2568808496,0.257837802172,1.98310792446,-0.246697038412
2017/07/09/10:05:22.525193,430719,1499565925,329628869,,0.771044280806,0.0222166131693,0.192867493536,0.789389070162,0.611013125039,-0.0498295927741,0.0323244276613,-0.0328568045444,-0.188002895488,0.0878183085165,0.0551333974097,0.0530902799895,-0.418451032864,5.69239282608,-0.691648364067,0.157241940498,0.348547160625,2.01494622231,-0.253155887127
2017/07/09/10:05:22.535469,430720,1499565925,339634806,,0.770941862904,0.0203216068161,0.19410586175,0.790514621311,0.609562432481,-0.0498875765829,0.032117037601,-0.0311113389574,-0.180942362846,0.0822251916696,0.0441901801479,0.0543222922213,-0.395515653133,6.35122156143,-0.796968519688,0.877024292946,0.353845506907,2.21364498138,-0.290981799364
2017/07/09/10:05:22.545463,430721,1499565925,349638948,,0.770570720541,0.0184667315291,0.195033573562,0.791844952684,0.607850896712,-0.04994052088,0.0316986221976,-0.0154900982007,-0.182436553766,0.0995851730743,0.0421078333748,0.0108388553321,-0.395808111576,6.70765209198,-0.875527262688,0.739667236805,0.416780591011,2.30532097816,-0.291746020317
2017/07/09/10:05:22.555270,430722,1499565925,359628871,,0.770275479542,0.0168055451586,0.195318471941,0.79287090655,0.606517717921,-0.050175260122,0.0312158079433,-0.0271255161047,-0.180649249898,0.090436412439,0.0367644342475,0.0340607647583,-0.378892732624,5.90739822388,-0.884281754494,0.447316408157,0.423519432545,2.01509928703,-0.258691459894
2017/07/09/10:05:22.565165,430723,1499565925,369636476,,0.769982532391,0.014799883012,0.196157435073,0.793858810682,0.605199435706,-0.0504182547526,0.0313022572841,-0.0285566588865,-0.18122144657,0.0869326033588,0.0361934979891,0.0306661151111,-0.376506796644,6.84001255035,-1.31854200363,0.250439375639,0.540539741516,2.3253223896,-0.322508603334
2017/07/09/10:05:22.575580,430724,1499565925,379631602,,0.770341133467,0.0130860690152,0.197926358741,0.795000370147,0.603737538175,-0.0497575528642,0.0316161730457,-0.0332500468224,-0.203099107941,0.0741000528734,0.0283363614912,0.0252951238899,-0.399703723677,5.53990602493,-0.947946667671,0.75198495388,0.433550447226,1.77829384804,-0.249145969748
2017/07/09/10:05:22.585172,430725,1499565925,389628209,,0.768914290029,0.0108874086916,0.197773659313,0.79618512916,0.602122141583,-0.0509455266527,0.0307037462456,-0.0201027522748,-0.206373061614,0.0957699297956,-0.0058273236699,-0.0234219845644,-0.396965052403,4.16761350632,-1.05393338203,0.366069406271,0.368200987577,1.43453705311,-0.216590121388
2017/07/09/10:05:22.595248,430726,1499565925,399634502,,0.769026541558,0.0089505079358,0.198619791623,0.797251347267,0.600752502511,-0.0504730220945,0.0306462729922,-0.0382102245855,-0.211384356889,0.0849558036665,0.00597026333089,0.00394730754343,-0.403307556019,5.07270097733,-1.03620421886,0.488851100206,0.44674757123,1.6641074419,-0.225548923016
2017/07/09/10:05:22.605323,430727,1499565925,409629713,,0.769569772975,0.00732857146994,0.200023715706,0.798215583658,0.599522662272,-0.0495562941414,0.031122871637,-0.0202279117025,-0.172603528603,0.0681427455196,0.0664913808106,-0.0182466247402,-0.355442848368,4.64869976044,-0.631940662861,0.894563138485,0.271010428667,1.46189582348,-0.200488343835
2017/07/09/10:05:22.614864,430728,1499565925,419625746,,0.768572928903,0.00456168749391,0.200494491634,0.799814456906,0.597353690134,-0.050137072048,0.0308492692572,-0.0421511279639,-0.202247475992,0.067089223317,0.0335795213801,0.0159387745151,-0.379088913628,3.74347519875,-1.26469230652,0.69110751152,0.336968034506,1.22639417648,-0.19312569499
2017/07/09/10:05:22.625488,430729,1499565925,429628742,,0.767804664269,0.00353779832448,0.200353261804,0.8005500234,0.596400083445,-0.0503972065061,0.0297778790156,-0.0528368295719,-0.217558664629,0.0651099325848,0.0157972828169,0.0181506423535,-0.41896294358,3.52045917511,-0.569274187088,0.0473371855915,0.263032495975,1.06673550606,-0.124866887927
2017/07/09/10:05:22.635314,430730,1499565925,439646836,,0.767914865132,0.00161146987753,0.201759122973,0.801582437851,0.595026026589,-0.0500028127239,0.0301552935752,-0.0465044330432,-0.19440476848,0.0573780938939,0.0246083184173,0.023836954174,-0.375316655963,4.50337171555,-1.0148165226,0.642252504826,0.411226809025,1.39246320724,-0.200245738029
2017/07/09/10:05:22.645186,430731,1499565925,449640223,,0.767408856201,-0.000387299490789,0.201840720935,0.802586766389,0.593657819309,-0.0502831924394,0.0299412182083,-0.0407028454058,-0.204194673115,0.055832203239,0.00685202423401,0.00344062040151,-0.363414439174,4.42089223862,-0.919551193714,1.08546805382,0.314239531755,1.28753888607,-0.188309818506
2017/07/09/10:05:22.655182,430732,1499565925,459634609,,0.767119908364,-0.00207769775121,0.202219814475,0.803694513288,0.592226247771,-0.0497868909032,0.0294018070291,-0.0360660449408,-0.203921811134,0.0747122014498,0.00639538394602,-0.0195677807315,-0.368139467948,3.79898834229,0.059979762882,0.272473394871,0.0782737657428,0.994930326939,-0.149565964937
2017/07/09/10:05:22.665181,430733,1499565925,469633531,,0.765861866415,-0.00517277852672,0.202465334356,0.805067344455,0.59026428392,-0.0509144753912,0.029366004433,-0.0421546879138,-0.219316806754,0.059034070037,-0.00491816312869,-0.00517839400324,-0.375056115697,3.31809830666,-0.978873312473,0.0485829561949,0.203073859215,0.893399238586,-0.173896476626
2017/07/09/10:05:22.675417,430734,1499565925,479637593,,0.766433528697,-0.00655158208826,0.203742931964,0.805905605823,0.58918810008,-0.049860981067,0.0297895920366,-0.0466837168169,-0.22072506594,0.051520302852,-0.0121016381213,-0.00264150923116,-0.389813115661,2.90481686592,-0.266046375036,0.12287543714,0.0555023252964,0.638450086117,-0.12364140898
2017/07/09/10:05:22.685502,430735,1499565925,489632186,,0.766434559282,-0.00908660963394,0.204261699964,0.806963956562,0.587714228064,-0.04971277097,0.03049261129,-0.0317343148688,-0.193007096251,0.0458620982211,0.0268004348322,-0.0319593071068,-0.361235657569,4.46811819077,-0.990810334682,0.23579326272,0.349077492952,1.28905487061,-0.220535576344
2017/07/09/10:05:22.695213,430736,1499565925,499627951,,0.765174738081,-0.0108188100915,0.203784857929,0.807869528268,0.586490008467,-0.0502075973787,0.0292488021942,-0.0345833806466,-0.222139570876,0.0433486041818,-0.0107456453871,-0.0416953265711,-0.371498442943,4.31413459778,-1.23038578033,0.00929142162204,0.459088742733,1.32134401798,-0.212320104241
2017/07/09/10:05:22.705034,430737,1499565925,509638530,,0.764801973924,-0.0131166549933,0.203974530974,0.809075143245,0.58480603248,-0.0503611185645,0.0293781329241,-0.0532696797613,-0.216721824651,0.017234652379,0.0217731500113,0.0104563012494,-0.359484688856,3.45856714249,-0.82363986969,0.042245965451,0.325516909361,0.975998938084,-0.207481145859
2017/07/09/10:05:22.715226,430738,1499565925,519648035,,0.76404774824,-0.0154193353449,0.204075702148,0.810080081665,0.583423784266,-0.0504317385329,0.0290446034689,-0.0663040635579,-0.211247962927,0.0163681073009,0.0441537752614,0.0360244760387,-0.356644091593,2.47024989128,-0.52915507555,-0.113887451589,0.20875531435,0.609004557133,-0.201850354671
2017/07/09/10:05:22.725435,430739,1499565925,529629028,,0.763936225939,-0.017021242001,0.204685406817,0.810895502039,0.582293014548,-0.0502726001181,0.0292574034785,-0.0553398550205,-0.202863656249,0.0331498202085,0.0129431964796,0.0109813156025,-0.348354627934,2.33491301537,-0.00174477696419,0.443728387356,0.0442824363708,0.530049681664,-0.20229741931
2017/07/09/10:05:22.735198,430740,1499565925,539626836,,0.763668561222,-0.0191062076074,0.20486024611,0.811999937162,0.580796722448,-0.0498002161411,0.029175464274,-0.0527223272856,-0.214500750106,0.0286934821529,0.0149153050211,-0.0114968364844,-0.363983110165,2.86143040657,-0.341535449028,0.0142341554165,0.118826128542,0.733828365803,-0.226740419865
2017/07/09/10:05:22.745341,430741,1499565925,549626290,,0.762607898879,-0.0205323478562,0.204775208857,0.813237492675,0.579105057901,-0.0500049556221,0.0279574110992,-0.0652504080635,-0.198386078918,0.0151459951147,0.0393223242164,0.0286301658329,-0.35081878975,1.96815049648,-0.688560307026,-0.185364693403,0.229838937521,0.45027127862,-0.166853263974
2017/07/09/10:05:22.755201,430742,1499565925,559649539,,0.762178986614,-0.0224404908454,0.205445784435,0.81395041511,0.578088874139,-0.050044160918,0.0281701490268,-0.0747166078906,-0.20360803265,0.00640046323885,0.0616854994289,0.036496886952,-0.378757073027,3.56578111649,-0.456642866135,0.154707491398,0.246312558651,0.991182923317,-0.249939128757
2017/07/09/10:05:22.765269,430743,1499565925,569629269,,0.761319857435,-0.0247736120111,0.20531467854,0.815002281297,0.576610217297,-0.0502011996945,0.0277808988062,-0.0649634814365,-0.204666686492,0.0187995729128,0.0441222662537,0.00431631352673,-0.341094295769,2.55199813843,-0.813321709633,-0.0272010788321,0.18832474947,0.66280400753,-0.193660110235
2017/07/09/10:05:22.775545,430744,1499565925,579636079,,0.760283002612,-0.0271476537814,0.204699501668,0.815738135999,0.57551360166,-0.0509990965797,0.0274677980484,-0.0735980108027,-0.225333991144,0.0103112881333,0.000848266314204,0.0253251480309,-0.358895870116,1.59862816334,-0.368435978889,-0.778794944286,-0.0148897916079,0.290325134993,-0.176784813404
2017/07/09/10:05:22.785388,430745,1499565925,589635263,,0.760024957786,-0.0286462928882,0.204933282325,0.816560776435,0.574407141225,-0.0504323707689,0.0272306899769,-0.0839612968487,-0.220879128211,0.00118608890061,-0.00818774716021,0.0578378925604,-0.334289293407,1.17463374138,0.286441892385,-0.89698779583,-0.244765460491,0.0862019136548,-0.159943133593
2017/07/09/10:05:22.795302,430746,1499565925,599649590,,0.759135172039,-0.0304139171154,0.204849274925,0.816778845803,0.574079606698,-0.0508167065038,0.026880933077,-0.0694280455851,-0.203998444672,0.00839924744242,0.0106592601987,0.0252784420541,-0.249710013816,1.67667877674,0.678147733212,-0.429455965757,-0.33888605237,0.277192026377,-0.171437874436
2017/07/09/10:05:22.804949,430747,1499565925,609629324,,0.758041399383,-0.033407053598,0.205017535182,0.816869813495,0.573893565868,-0.0514018902294,0.0269764441195,-0.0739743899017,-0.208067484842,0.00263783967213,0.021504367914,0.0459977796876,-0.09034186013,1.16136944294,-0.213345259428,-0.69012260437,-0.165113180876,0.130636334419,-0.167578265071
2017/07/09/10:05:22.815254,430748,1499565925,619631006,,0.75729905279,-0.0353582150662,0.204841558186,0.817091867751,0.573597242367,-0.0513813858179,0.0265901559827,-0.0852060229079,-0.228490143387,-0.000319522544439,0.00676925909369,0.065493733972,-0.0216097815464,1.28750181198,-0.389875501394,-0.527585089207,-0.00787588953972,0.146996617317,-0.140029251575
2017/07/09/10:05:22.825596,430749,1499565925,629632039,,0.756720456114,-0.037526375223,0.205038756572,0.817219972116,0.573357343044,-0.0518266047075,0.0269606638946,-0.0816654420152,-0.206084699636,-0.00776339091305,-0.00715288271119,0.0817361770532,-0.0166654330454,1.29556119442,-0.709256649017,-0.275849014521,0.0909989252687,0.0919925495982,-0.164928838611
2017/07/09/10:05:22.835460,430750,1499565925,639634187,,0.755857061206,-0.039509090162,0.20505116066,0.818102974342,0.57214492323,-0.051611815965,0.0263425634103,-0.0895828248447,-0.239297981846,-0.00827824147119,-0.0372618479162,0.0610081838648,-0.163331460081,1.1407866478,-0.461416035891,-0.477522850037,0.081701785326,0.0123979710042,-0.121262736619
2017/07/09/10:05:22.845392,430751,1499565925,649632061,,0.755394165729,-0.0408395522039,0.204556291404,0.818547828204,0.571464987664,-0.0520709483754,0.0263787253903,-0.0725077429967,-0.218567021013,-0.00784135266056,-0.0214185651121,0.0210291736667,-0.222113260459,0.66752910614,0.222778141499,-0.770557880402,-0.0183069854975,-0.140985324979,-0.147084519267
2017/07/09/10:05:22.855153,430752,1499565925,659626942,,0.754941681247,-0.0431115949299,0.204607799851,0.819298432513,0.570392123418,-0.0519270068132,0.0265798793593,-0.0749258909361,-0.213616267115,-0.011370935492,-0.0122433584728,0.0105815275053,-0.291997506055,1.21880948544,0.370696693659,-0.640239596367,-0.100581899285,0.0423097908497,-0.204178482294
2017/07/09/10:05:22.865209,430753,1499565925,669628132,,0.753743738495,-0.0450882658623,0.204215627399,0.820161547912,0.5691318947,-0.0523859074383,0.0260698765682,-0.0673187612258,-0.211013523456,-0.0203391903992,-0.0151259027627,0.00161377604095,-0.284454778809,0.838748335838,-0.0212568044662,-0.958922803402,-0.0723914280534,0.0476234853268,-0.212236732244
2017/07/09/10:05:22.875690,430754,1499565925,679627417,,0.75327240721,-0.0470537164132,0.204011175167,0.820876288202,0.568114536603,-0.052221147204,0.0260949143073,-0.0652789687093,-0.190104826286,-0.0215493259467,0.00650287896118,0.00247010279949,-0.258815959319,-0.269948989153,-0.102576702833,-0.858709573746,-0.0594329237938,-0.414749026299,-0.167171895504
2017/07/09/10:05:22.885141,430755,1499565925,689631871,,0.752849547021,-0.0477555996,0.203504137665,0.821090783636,0.567843086772,-0.0521091579714,0.0254713464236,-0.0641181635517,-0.196187083606,-0.0124131789338,0.0182704029338,-0.0233634234345,-0.294134925914,0.34666955471,0.806828260422,-0.769073665142,-0.305649697781,-0.239669114351,-0.148443549871
2017/07/09/10:05:22.895422,430756,1499565925,699634757,,0.7519772241,-0.0508881560038,0.20410442045,0.822382937292,0.565892492518,-0.052507724032,0.0263615303054,-0.0641578713981,-0.174691029049,-0.0242201432712,0.00179741711871,0.0144820327406,-0.244631727563,-0.761713564396,0.227117925882,-0.87676012516,-0.265696048737,-0.636419951916,-0.111568808556
2017/07/09/10:05:22.905112,430757,1499565925,709645468,,0.750707447261,-0.0530294093053,0.203221080539,0.823155770851,0.564748725571,-0.053038605284,0.0256974751659,-0.0822670212781,-0.211122002475,-0.0176609357561,-0.00401768451563,0.0151166582919,-0.307191253974,-0.795412421227,-0.0318487286568,-1.27178609371,-0.249794647098,-0.618228673935,-0.124300703406
2017/07/09/10:05:22.914978,430758,1499565925,719642719,,0.750641513856,-0.054273096473,0.203640498541,0.82392349175,0.563681360332,-0.0523923295203,0.0258543528978,-0.076241277939,-0.189456512028,-0.0260027262381,-0.0159709942829,0.0300988494584,-0.254770988793,0.216755568981,-0.000800758600235,-0.928569555283,-0.138008505106,-0.269345760345,-0.164464443922
2017/07/09/10:05:22.925790,430759,1499565925,729632148,,0.750168053048,-0.055930191533,0.203021461973,0.824360798168,0.563016323024,-0.0526123264239,0.025958381317,-0.0730174689257,-0.167656313985,-0.0404202786002,0.0132974369448,0.0383699560933,-0.245091280751,-0.00781661272049,0.29415461421,-0.809112787247,-0.212469175458,-0.437667906284,-0.155004620552
2017/07/09/10:05:22.935274,430760,1499565925,739626747,,0.749579992526,-0.0572558633762,0.202475915314,0.824959962289,0.562186062292,-0.0523652130117,0.02541213197,-0.0551251662615,-0.172653106527,-0.030254617633,0.0177706776751,-0.0240586139274,-0.272816030065,-0.381064683199,0.479897201061,-1.32140934467,-0.223349511623,-0.534696340561,-0.125965997577
2017/07/09/10:05:22.945076,430761,1499565925,749635322,,0.748547927983,-0.059375592236,0.202004036093,0.825982562565,0.560648556338,-0.0528212423297,0.0252174339333,-0.0569592107893,-0.173736849342,-0.0240842128026,-0.00931405973372,-0.0146851394566,-0.248218431369,-1.89498507977,0.71568351984,-1.68537724018,-0.439697027206,-1.05131530762,-0.11165162921
2017/07/09/10:05:22.955107,430762,1499565925,759633082,,0.747735399981,-0.0603100572853,0.201592935356,0.826449485796,0.559993876502,-0.052839612392,0.0244147715437,-0.0780401224372,-0.179258386078,-0.0416269001649,0.0287663404832,0.0221941310758,-0.266595985309,-3.53481340408,1.45144355297,-1.83884227276,-0.635454416275,-1.72967576981,-0.0285066217184
2017/07/09/10:05:22.965323,430763,1499565925,769628501,,0.747245263851,-0.0628131207191,0.2012103833,0.827052530148,0.559072068298,-0.0528838806661,0.0250165943009,-0.0656908277865,-0.166211418973,-0.0385695553516,0.0327958363066,0.00108250252135,-0.249065978568,-2.16910767555,0.678837358952,-1.89988863468,-0.412127077579,-1.15806078911,-0.0849366188049
2017/07/09/10:05:22.975455,430764,1499565925,779627538,,0.746831253815,-0.0634185413928,0.201092410847,0.827501624786,0.558476153725,-0.0524260244444,0.0244327374258,-0.0608837273487,-0.153039846226,-0.0266394423346,0.0256342423876,-0.00507278747679,-0.222555965533,-2.80550479889,1.38118100166,-1.16919744015,-0.648657798767,-1.38754868507,-0.0852850973606
2017/07/09/10:05:22.985282,430765,1499565925,789627109,,0.746145802736,-0.0650509398931,0.200949866916,0.828190060054,0.557409853512,-0.0528214399354,0.0246043719334,-0.0658124907482,-0.150639944783,-0.0258401557422,0.0219017729406,0.00739271918094,-0.202498802793,-2.55703759193,1.0872604847,-1.34526586533,-0.518201947212,-1.32521498203,-0.0632266700268
2017/07/09/10:05:22.995374,430766,1499565925,799631149,,0.745595974949,-0.0667966926941,0.200661071809,0.828739003476,0.556611532945,-0.0526558218416,0.0245485220626,-0.0791981735108,-0.158945032426,-0.0346499032506,0.0136700160641,0.0429899185752,-0.227888099642,-3.09168577194,0.85455429554,-1.5170135498,-0.554297924042,-1.46379113197,-0.0857203900814
2017/07/09/10:05:23.004952,430767,1499565925,809630061,,0.74524922703,-0.0671882420337,0.200332515902,0.829112570924,0.55609995507,-0.0524351947194,0.023994479823,-0.0656649372329,-0.13245177873,-0.0451870667615,0.0250382148322,0.0418772951387,-0.204417071834,-2.75468730927,1.44340133667,-1.52857935429,-0.528097569942,-1.4719094038,-0.0309355258942
2017/07/09/10:05:23.014772,430768,1499565925,819628842,,0.744608498731,-0.069314858049,0.200304611826,0.82972615817,0.555168025937,-0.052469781546,0.0242875987151,-0.0667562083729,-0.134387562074,-0.0178293628911,0.0253430740303,0.0223262590149,-0.185753276457,-4.98624563217,1.72321534157,-1.63786888123,-0.882894098759,-2.3163292408,0.0154704302549
2017/07/09/10:05:23.025693,430769,1499565925,829630520,,0.743859298978,-0.0701517126589,0.199789902734,0.830402857391,0.554184499577,-0.0524808175708,0.0235881040366,-0.0632373604661,-0.133903963202,-0.000213427781895,0.00965741527404,0.00487441774383,-0.181518265519,-3.68223381042,1.40094161034,-1.88973474503,-0.765272736549,-1.76414752007,-0.011530444026
2017/07/09/10:05:23.035285,430770,1499565925,839628837,,0.743330812747,-0.0711809577801,0.199954113909,0.830580221534,0.553875568031,-0.0528302920883,0.023818290726,-0.0703621467701,-0.117239980613,-0.0341858959713,0.0408949831313,0.0473140524527,-0.157470400821,-2.44521737099,1.0078959465,-1.46887362003,-0.588160037994,-1.34360563755,-0.00868390500546
2017/07/09/10:05:23.045496,430771,1499565925,849650156,,0.742194571413,-0.071876723927,0.19864687651,0.830593250366,0.553838163427,-0.0535373519656,0.0226250551837,-0.0754102459726,-0.120310301301,-0.0428632572868,0.0293492014508,0.0693274432801,-0.155395546839,-3.04410648346,1.27591788769,-2.02928781509,-0.683282792568,-1.54004120827,-0.00901392102242
2017/07/09/10:05:23.055190,430772,1499565925,859627648,,0.741187384088,-0.073530128082,0.198778670383,0.831382000744,0.552667896152,-0.0535343423193,0.0222764358615,-0.0975732742434,-0.12491510047,-0.0514216360914,0.0454916919348,0.113516754444,-0.13791869867,-3.25142812729,1.13523066044,-1.67147612572,-0.706530570984,-1.67264389992,0.0630860030651
2017/07/09/10:05:23.065204,430773,1499565925,869632663,,0.740384176984,-0.0749596385851,0.198623288625,0.831539481589,0.552399618146,-0.0539192563515,0.0221238836001,-0.0867316163884,-0.125322139691,-0.0441630147015,0.0245166106261,0.0965154030581,-0.103270204671,-3.2909514904,1.71183419228,-1.41110920906,-0.852610230446,-1.72302353382,0.0586717501283
2017/07/09/10:05:23.075468,430774,1499565925,879635335,,0.740106062532,-0.075595831397,0.197466914112,0.831614682952,0.552288844939,-0.0540399054134,0.0217655571513,-0.0663065807527,-0.122853253799,-0.0265094678571,0.0210738135413,0.0442076219436,-0.101324684734,-5.01495695114,2.19933414459,-1.83941495419,-1.05718028545,-2.38094091415,0.153473854065
2017/07/09/10:05:23.085411,430775,1499565925,889626933,,0.739488346028,-0.0767740671193,0.197592516599,0.831974817334,0.551765848082,-0.0539185793915,0.0215670815834,-0.0611194919587,-0.0991916974256,-0.0462141942132,0.0435522670639,0.0565394399735,-0.0942496330286,-4.04120206833,2.08816838264,-1.46526074409,-0.977248907089,-2.01647090912,0.0932196676731
2017/07/09/10:05:23.095257,430776,1499565925,899632000,,0.738816385566,-0.0776363835293,0.197182213248,0.831994035824,0.551714661452,-0.0542718638022,0.0212466818748,-0.0481453364936,-0.0933466609743,-0.0341191434535,0.030091233829,0.0297587398451,-0.0352439645983,-4.34016656876,2.33209204674,-1.65611553192,-0.946619391441,-2.13558244705,0.108675450087
2017/07/09/10:05:23.105333,430777,1499565925,909633612,,0.738122187142,-0.079376992441,0.196810042215,0.832328610886,0.551199471392,-0.0543874883634,0.0212185614034,-0.0561103463681,-0.100201095817,-0.0359386965479,0.0221181171454,0.0468593339206,-0.056751021946,-4.26128911972,0.777158498764,-1.56839156151,-0.534352660179,-2.04134202003,0.108838491142
2017/07/09/10:05:23.115173,430778,1499565925,919627681,,0.737391499103,-0.0787246782145,0.196126827835,0.831911888325,0.551762084292,-0.0554280651716,0.020222314234,-0.0742185786185,-0.115955732912,-0.0448355812992,0.00949707180957,0.0817584427813,-0.0929572626009,-3.68453359604,1.92162048817,-1.84276032448,-0.672407388687,-1.86368250847,0.0895870774984
2017/07/09/10:05:23.125910,430779,1499565925,929633091,,0.737087866105,-0.080397076276,0.196128282784,0.832442142584,0.551019776357,-0.0547933543707,0.0203709015817,-0.0642492126058,-0.0789435857591,-0.0426839466934,0.0379753500135,0.0877467131752,-0.0607020002452,-4.63423109055,1.42803144455,-1.63839221001,-0.713317394257,-2.27300810814,0.153259575367
2017/07/09/10:05:23.135307,430780,1499565925,939626297,,0.735983017694,-0.0819014330888,0.195561016827,0.8331442079,0.549901721781,-0.0554850434758,0.0200058785226,-0.0559146553619,-0.0805737467339,-0.0402783601798,0.0385350333085,0.059213892641,-0.0843483578612,-3.92691135406,0.890726923943,-2.09306073189,-0.632511556149,-1.9371008873,0.103384278715
2017/07/09/10:05:23.145381,430781,1499565925,949634138,,0.735468200485,-0.0824707573193,0.195323953221,0.833032121692,0.550043917488,-0.055851074728,0.0197441261041,-0.064515441583,-0.11014467319,-0.0333121531951,0.00966420791977,0.0503568855371,-0.152138921379,-4.71902656555,1.72324252129,-1.86181342602,-0.933821260929,-2.3018682003,0.175625726581
2017/07/09/10:05:23.155120,430782,1499565925,959633159,,0.735049190685,-0.0832986462342,0.195344979147,0.833708579748,0.54903389161,-0.0557178641628,0.0196801811945,-0.0718471897229,-0.0847053246888,-0.0477075677058,0.0271783539058,0.100099316701,-0.136621214762,-3.94460511208,1.7797935009,-1.46116244793,-0.895792245865,-2.03296160698,0.125792473555
2017/07/09/10:05:23.165030,430783,1499565925,969628089,,0.734810019772,-0.0832676160604,0.194718691588,0.833666454504,0.549107593826,-0.0558329875067,0.0190727696675,-0.062136381367,-0.0592088124095,-0.038490839924,0.0308346669648,0.0924035064196,-0.116212274806,-4.06364917755,2.18545770645,-1.85691404343,-0.990767896175,-2.11470675468,0.139687404037
2017/07/09/10:05:23.175700,430784,1499565925,979631781,,0.734029501197,-0.0846822063434,0.194069628514,0.834009037206,0.548516798011,-0.056546416284,0.0189934452834,-0.0646074469621,-0.0594755265147,-0.0522407793124,0.0407297371402,0.107769681019,-0.0871503133945,-3.43681788445,1.1279706955,-1.94655263424,-0.674692451954,-1.89970004559,0.0890056490898
2017/07/09/10:05:23.185514,430785,1499565925,989628342,,0.73362376932,-0.0853946780912,0.193900454088,0.83418613588,0.548286714572,-0.0562601220426,0.018707431613,-0.0701209790679,-0.0793968965949,-0.0437549089523,0.0268937244619,0.103908897136,-0.0850510952672,-2.70983815193,1.01024508476,-1.39852201939,-0.569904565811,-1.65286004543,0.0465720742941
2017/07/09/10:05:23.195339,430786,1499565925,999634932,,0.733129487789,-0.0849293210503,0.193542127926,0.833984479339,0.548579311134,-0.0566686608397,0.017868701588,-0.0596767580439,-0.0903524420577,-0.02968631408,0.0127904826043,0.0657245319681,-0.0799773082829,-2.50831723213,1.3304579258,-1.54870438576,-0.494273930788,-1.52445328236,0.072833403945
2017/07/09/10:05:23.205190,430787,1499565926,9634962,,0.732114719381,-0.0867668626366,0.193285742748,0.834560981854,0.547664151037,-0.0570563630599,0.0177909153991,-0.0573334438494,-0.064773089164,-0.0331106877777,0.0384362985667,0.071850054468,-0.0610669191942,-3.82019734383,0.705998718739,-1.55350780487,-0.469070464373,-1.8522964716,0.0989531129599
2017/07/09/10:05:23.215173,430788,1499565926,19627700,,0.731788094859,-0.0866551719262,0.192581586526,0.834461300219,0.547828637341,-0.0571651298748,0.0170373258904,-0.0756665663665,-0.0841176336157,-0.0350615790836,0.0608728412038,0.0866333227607,-0.105843275691,-3.46804285049,1.48635804653,-1.61612248421,-0.659324884415,-1.70378601551,0.0808436796069
2017/07/09/10:05:23.225636,430789,1499565926,29626973,,0.731149698266,-0.0871778375745,0.1921907804,0.834491819158,0.547788342915,-0.0573076604998,0.0163452492187,-0.0725532809503,-0.0668101772514,-0.0361593923855,0.0615998283095,0.105732553036,-0.0799652663399,-3.33286309242,1.64912426472,-1.74372291565,-0.684853672981,-1.71715426445,0.0870102196932
2017/07/09/10:05:23.235160,430790,1499565926,39631853,,0.731002785176,-0.0875862018277,0.192535703715,0.834616152272,0.547554394191,-0.0576348460601,0.0166819749623,-0.0552399646894,-0.0364809862898,-0.0289471377135,0.0519156712509,0.0974580106267,-0.0395322677472,-3.11869049072,1.83887910843,-1.42861247063,-0.758783042431,-1.65915036201,0.0948117747903
2017/07/09/10:05:23.245003,430791,1499565926,49627834,,0.729641603406,-0.0879968319107,0.19129010076,0.834922240943,0.547067377912,-0.0582643978164,0.0150796402381,-0.05625377516,-0.026464956899,-0.0435193519011,0.0651160935621,0.113549397586,-0.053584626432,-2.89185667038,1.2928044796,-1.8902258873,-0.637334108353,-1.44881212711,0.0547242388129
2017/07/09/10:05:23.255330,430792,1499565926,59665600,,0.729291492548,-0.0888570979196,0.191024021903,0.835284707241,0.546482893432,-0.0585178669934,0.0152172362206,-0.0525429682087,-0.0399362368439,-0.039610762962,0.0360778895783,0.100016680428,-0.0519665874009,-2.84983253479,1.03356158733,-1.83244335651,-0.518090605736,-1.47310483456,0.0711426138878
2017/07/09/10:05:23.265181,430793,1499565926,69633968,,0.728317584011,-0.0894440247403,0.190545840004,0.835529337372,0.546092722889,-0.0588977243693,0.0143011349926,-0.0633091073826,-0.0560954461807,-0.0293529701325,0.0365148121949,0.0930144606212,-0.0980852339594,-3.34158706665,1.07018065453,-1.99967443943,-0.594710946083,-1.64470613003,0.0485233440995
2017/07/09/10:05:23.275449,430794,1499565926,79628096,,0.728255657806,-0.0896819165414,0.191046554276,0.835632228065,0.545906958257,-0.0590930445338,0.014573415283,-0.0644725569837,-0.0414016868935,-0.0331401886893,0.052612684776,0.107814704894,-0.0976969182792,-2.91459465027,1.18239474297,-1.48936605453,-0.569961726665,-1.6144092083,0.0439953356981
2017/07/09/10:05:23.285110,430795,1499565926,89638035,,0.728423957815,-0.0887404498353,0.190898400306,0.835509203813,0.546157048981,-0.0586952126435,0.0138463065504,-0.0510996716731,-0.011142415805,-0.0274921198038,0.0679454724069,0.0990249172217,-0.0739073344599,-2.55670785904,1.70381498337,-2.01538944244,-0.655523061752,-1.5742713213,0.0986329689622
2017/07/09/10:05:23.295339,430796,1499565926,99637602,,0.727027678145,-0.089621511132,0.190037563064,0.835693064754,0.545785086354,-0.0597354533452,0.0129389585646,-0.0382411861433,-0.0147407204291,-0.0271486784632,0.0301746099413,0.0901832902182,-0.0216036417417,-3.00718641281,0.856987416744,-1.71574783325,-0.532083213329,-1.63364160061,0.0556039735675
2017/07/09/10:05:23.304909,430797,1499565926,109631233,,0.726749042695,-0.090547943139,0.190222275143,0.836291603128,0.544853729107,-0.0597907618498,0.0132602116363,-0.0569524940607,-0.0367636488729,-0.0257818069346,0.0437867160639,0.0943765161946,-0.0773456258272,-2.05157279968,0.0452750176191,-1.38754284382,-0.226401805878,-1.24767780304,0.0274919122458
2017/07/09/10:05:23.315111,430798,1499565926,119635418,,0.726183222733,-0.090008375169,0.189421917152,0.835848830823,0.545490567235,-0.0603911919371,0.0122342554645,-0.0581429366019,-0.040040171139,-0.0287368619616,0.0467850334843,0.0944749666855,-0.0811110088391,-3.07674193382,1.02302086353,-1.65103292465,-0.557790756226,-1.60798609257,0.0454827919602
2017/07/09/10:05:23.325497,430799,1499565926,129628783,,0.726213060638,-0.0902928839945,0.189373398043,0.836296057634,0.544841003675,-0.0600735516889,0.012180028242,-0.038340602863,-0.0273640418925,-0.0252087443397,0.0336034056516,0.0666784439366,-0.050155105999,-2.10866951942,1.36758065224,-1.20413589478,-0.479200720787,-1.29709553719,0.0323645845056
2017/07/09/10:05:23.335204,430800,1499565926,139641325,,0.725848835403,-0.0901118383676,0.189311442225,0.836242088238,0.544908893146,-0.0602985623104,0.0117282313999,-0.0308307098133,-0.00308907460379,-0.0391802245802,0.043167733275,0.0823255904206,-0.0432504374469,-1.47848415375,1.50365543365,-0.933055281639,-0.532877624035,-1.00451683998,0.0179992616177
2017/07/09/10:05:23.345463,430801,1499565926,149629998,,0.725788955863,-0.0903755247405,0.189045096883,0.836232414697,0.544928247683,-0.0602663771563,0.0116840605772,-0.0241414066322,-0.0180334482643,-0.0236386357016,0.0252374728177,0.0440344404923,-0.0424553615986,-3.06717991829,1.73912405968,-1.08914518356,-0.650020122528,-1.57554996014,0.0676743984222
2017/07/09/10:05:23.355074,430802,1499565926,159631224,,0.725593383104,-0.0901617803392,0.189077042337,0.836127840028,0.545050325751,-0.0606467134194,0.0115045069666,-0.0182873216459,-0.00593598001638,-0.021261167353,0.02635364734,0.04661010193,-0.0180321457386,-2.68002438545,1.78447246552,-0.972649991512,-0.526024103165,-1.50786602497,0.0746549069881
2017/07/09/10:05:23.364960,430803,1499565926,169628824,,0.724634389202,-0.0908368947929,0.188282879651,0.836435120004,0.544510972288,-0.0613867747046,0.0107589485045,-0.0130003020596,0.0137213926463,-0.0256664678002,0.0547671182296,0.0459686796139,0.0036185383562,-1.71737086773,0.702144742012,-1.64601492882,-0.30983299017,-1.05115532875,-0.0147070586681
2017/07/09/10:05:23.375665,430804,1499565926,179634873,,0.725217551952,-0.091045521383,0.188949171073,0.836423759944,0.544564884598,-0.0609046605995,0.011619061112,-0.0233276016282,-0.0142624801258,-0.0189677138107,0.0097087493391,0.0494571879217,-0.0223569809381,-1.70931971073,0.424429059029,-1.07678508759,-0.105097562075,-1.19404995441,0.0209505185485
2017/07/09/10:05:23.385369,430805,1499565926,189629780,,0.724915068919,-0.0902421801802,0.187895001113,0.836294206474,0.544761910988,-0.0611424233653,0.0103954134062,-0.0251451144914,-0.0138673224828,-0.023504764576,0.0141512887027,0.058283919646,-0.0279456369807,-1.83525836468,0.680326044559,-2.00443673134,-0.287488937378,-1.21735405922,0.0170498713851
2017/07/09/10:05:23.395229,430806,1499565926,199631531,,0.724751269685,-0.090608950271,0.187774130192,0.836356510757,0.544647061963,-0.0612936528508,0.0105096588913,-0.0337126037837,-0.00226852859915,-0.0310278067865,0.0476217464658,0.0809816114554,-0.0190939917185,-2.44450283051,1.10043203831,-1.64368116856,-0.352068066597,-1.57508003712,0.094029083848
2017/07/09/10:05:23.405515,430807,1499565926,209630541,,0.724820754234,-0.0904645906406,0.18742238016,0.836361324238,0.544671087252,-0.0610688449067,0.0101851957546,-0.0103046960437,-0.0118932958088,-0.0189937712183,-0.00215439535927,0.03305408045,-0.0113447362981,-2.75429153442,1.44672071934,-1.84216976166,-0.538198113441,-1.66828858852,0.0774457082152
2017/07/09/10:05:23.415184,430808,1499565926,219632246,,0.724704106832,-0.0914528786328,0.187612609433,0.83644378183,0.54452099857,-0.061173711683,0.0107916149706,0.00130928514529,0.000914823873799,-0.0141294141086,0.0066624715405,0.00668800898364,0.00607820291752,-2.61537218094,0.58349442482,-1.47680032253,-0.370126157999,-1.52168536186,0.0510620549321
2017/07/09/10:05:23.425735,430809,1499565926,229631513,,0.724543279964,-0.0907241331904,0.187291478385,0.836380558938,0.544596041139,-0.0614690621192,0.010211121829,-0.00886572464277,0.00291071058914,-0.0236900509191,-0.00399829028926,0.0425905240072,0.00553986851004,-2.88419008255,1.02859628201,-1.45066273212,-0.442137300968,-1.64491081238,0.0592521950603
2017/07/09/10:05:23.435216,430810,1499565926,239634772,,0.724600373423,-0.0906993779378,0.18730597754,0.836330112207,0.544618101612,-0.061904632578,0.0105301128985,-0.00692753238529,-0.0035748815752,-0.0131114796779,-0.00515433454479,0.02220263587,-0.0243031587547,-1.95211303234,1.30984818935,-1.06313741207,-0.396141171455,-1.38093185425,0.0379032716155
2017/07/09/10:05:23.445063,430811,1499565926,249628138,,0.724456260962,-0.0903440550979,0.187322290857,0.836228028922,0.544754467788,-0.0621328266547,0.0102354932363,-0.00426436575474,-0.00537788410441,-0.00874170428734,-0.0387134152798,0.0335517948097,0.00142426695562,-0.791919767857,0.362969398499,-1.18102097511,-0.0845815241337,-0.854934751987,-0.0362461656332
2017/07/09/10:05:23.455135,430812,1499565926,259631169,,0.724416727882,-0.0910566064845,0.18727090449,0.836392452095,0.544454593116,-0.0624577002662,0.0107655836298,-0.0230111323937,-0.0199089831481,-0.0165467142446,-0.0685558122732,0.0865455896473,0.0166517685464,0.0584031194448,0.126791402698,-1.24959766865,-0.0228575840592,-0.648156523705,-0.0359569266438
2017/07/09/10:05:23.465302,430813,1499565926,269628881,,0.723680478596,-0.0922714804465,0.186944770135,0.836461463059,0.544240910016,-0.0633704657072,0.0108736726841,-0.0255119392944,-0.0309354514758,-0.00993807977508,-0.0709646227186,0.0757535120322,0.00705007542069,-0.482513338327,-0.961189806461,-1.57943761349,0.188631907105,-0.729992091656,-0.0248833298683
2017/07/09/10:05:23.475456,430814,1499565926,279640466,,0.723812017198,-0.0913181617714,0.187123376685,0.835848807376,0.545152865684,-0.06364924277,0.0106723070872,-0.0331836380336,-0.0477867608612,-0.00294255614022,-0.0845326111668,0.0751220852751,-0.0101192769149,-0.022139787674,0.273880898952,-1.27403116226,-0.0394507087767,-0.562836945057,-0.0181097537279
2017/07/09/10:05:23.485402,430815,1499565926,289640639,,0.723118619131,-0.0922966588512,0.186633624861,0.836333696366,0.544315112644,-0.0644270358708,0.0107779181003,-0.0270752594157,-0.0389861135587,-0.000822401943996,-0.0859943339458,0.0695301243302,-0.000910716783223,-1.2846134901,-0.09326800704,-1.25399494171,-0.0966833233833,-0.880241692066,-0.0182853043079
2017/07/09/10:05:23.495053,430816,1499565926,299638760,,0.722917710711,-0.0928361275896,0.186825294054,0.836210308633,0.544405340635,-0.0651756388324,0.0112818848965,-0.027479738837,-0.0443134902704,-0.00620374018773,-0.0990384460447,0.0700786314249,-0.00198232334762,-0.495258361101,-0.000477641820908,-1.01757740974,-0.000434894114733,-0.600526928902,-0.0251740589738
2017/07/09/10:05:23.505134,430817,1499565926,309630601,,0.723150756147,-0.0928054896767,0.18702395768,0.836122287469,0.544544383054,-0.0650965037178,0.0115490469815,-0.0216071977048,-0.0365785260244,-0.00166406886658,-0.10602784427,0.0629220596283,-0.00968253403193,-0.865122258663,-0.259784579277,-0.819130897522,-0.009227886796,-0.738525807858,-0.0495969280601
2017/07/09/10:05:23.515174,430818,1499565926,319632551,,0.722850246466,-0.0930832084418,0.186862479014,0.836040374642,0.544588310295,-0.0657632525599,0.0116300847867,-0.0219624322097,-0.0359377235481,0.000361528593745,-0.111717021219,0.0670535672252,-0.00597566835561,-0.662744760513,0.287996768951,-0.829775631428,-0.0537490695715,-0.742235302925,-0.00765711069107
2017/07/09/10:05:23.525718,430819,1499565926,329632817,,0.722517552292,-0.0931806722457,0.186760967443,0.836055025521,0.544485010848,-0.0664266318836,0.0116434462075,-0.00684594707343,-0.0161528205358,0.00315701909245,-0.100395134787,0.0538436490683,0.0354286886501,0.360183387995,-0.559613823891,-0.344334512949,0.269700944424,-0.348413854837,-0.0800653547049
2017/07/09/10:05:23.535225,430820,1499565926,339631138,,0.722345978779,-0.0939369590143,0.186946070089,0.836186900174,0.544229646092,-0.0667732660082,0.0121198696014,-0.0199718520216,-0.0340570133025,-0.00551325555191,-0.0896198672944,0.0554721461851,-0.0214166663978,-0.906196773052,-0.351845324039,-0.390265226364,0.0793369039893,-0.829591929913,-0.0217354074121
2017/07/09/10:05:23.545184,430821,1499565926,349629610,,0.721815571447,-0.0945480444691,0.186579372099,0.836398907985,0.543826682315,-0.0674040558095,0.0120871661269,-0.0272874356452,-0.0457493468253,-0.00723342183989,-0.0909528043499,0.0642373989905,-0.0146440296833,0.389999449253,-0.990297913551,-0.47184407711,0.251882612705,-0.254795759916,-0.125707700849
2017/07/09/10:05:23.555242,430822,1499565926,359630492,,0.722286672603,-0.0951619015691,0.18699498533,0.836166552938,0.544207159926,-0.0670471533714,0.0129900753152,-0.00679619330023,-0.0358575901402,-0.00412386725892,-0.0954260991641,0.0255530669053,0.0044699069524,0.228182554245,-0.48609495163,-0.615766882896,0.0872772112489,-0.355996191502,-0.0847649350762
2017/07/09/10:05:23.565487,430823,1499565926,369627149,,0.722063597655,-0.0959105132688,0.187296400011,0.836381986952,0.543758108404,-0.0678430554163,0.0137699411284,0.00252114982326,-0.038354908808,0.00870571390007,-0.0874148988059,-0.0109978910995,0.000341338328338,-0.983168065548,-0.664775133133,-0.337756246328,0.161217570305,-0.793336331844,-0.0320375412703
2017/07/09/10:05:23.575260,430824,1499565926,379630448,,0.722027209411,-0.0953871199199,0.187207473116,0.836226466212,0.544012958524,-0.0677973011966,0.0133687739054,0.00703929037884,-0.0303119799933,0.0214360527226,-0.0926363474488,-0.0216851676,0.0116243305726,-0.0933061242104,-0.116265073419,-0.486392259598,0.0842220932245,-0.415799707174,-0.0728169232607
2017/07/09/10:05:23.585214,430825,1499565926,389632791,,0.721643916731,-0.0955079067344,0.186546327292,0.83607419742,0.544166582307,-0.0684916425605,0.0130981681469,-0.0100542142293,-0.0332934146673,-0.00933114097236,-0.063891830708,0.0224951295314,-0.00770693673293,-0.9228515625,0.129573956132,-0.824750542641,-0.0683202892542,-0.685547113419,-0.033329680562
2017/07/09/10:05:23.595566,430826,1499565926,399633811,,0.721914572407,-0.0955146805842,0.186304078201,0.835998064288,0.544295747223,-0.0683570341278,0.0132925522852,-0.00972653152809,-0.0299745873609,-0.00573232091755,-0.0531332232981,0.0198401021699,-0.0146885154252,-1.38856339455,0.0466407239437,-0.757282495499,-0.0143857821822,-0.86819422245,-0.0230533927679
2017/07/09/10:05:23.605095,430827,1499565926,409627057,,0.721663645043,-0.0966561846307,0.186587012033,0.836439455832,0.54357573952,-0.0685760069381,0.0138485885308,-0.00234132510735,-0.0204285128587,-0.00900602791929,-0.0523608282064,0.0188041288455,0.00743812998893,-0.779234468937,-0.476875633001,-0.493864953518,0.0641546472907,-0.606033742428,-0.0509753376245
2017/07/09/10:05:23.615224,430828,1499565926,419632744,,0.721848926862,-0.0955915219395,0.186625997642,0.836045746847,0.544191886001,-0.0685588297137,0.0135050826645,0.00145886402733,-0.0163352151787,-0.000577531467759,-0.0384628366206,-0.00381125027535,-0.00673042863918,-1.06271159649,0.507164001465,-0.529892981052,-0.11882673949,-0.767230570316,-0.0184123814106
2017/07/09/10:05:23.625597,430829,1499565926,429630432,,0.72182690115,-0.0956192369751,0.186764397834,0.835877850126,0.544449641739,-0.0685668811747,0.0134681136648,-0.0134324489932,-0.0306587928975,0.00614217308589,-0.0592096432319,0.0216841689309,-0.0104099028907,-0.803670227528,0.411838322878,-0.549658119678,-0.122031509876,-0.703572571278,-0.0441726371646
2017/07/09/10:05:23.635344,430830,1499565926,439634112,,0.721607883848,-0.0967612645866,0.187098955434,0.836197333067,0.543932134595,-0.0686704673401,0.0140078564605,-0.0146134253645,-0.0144839022721,-0.004626862426,-0.0450052004097,0.0452379799174,0.0150249663163,-0.0724402070045,-0.360871702433,0.133248031139,0.0693876519799,-0.399938821793,-0.0899347662926
2017/07/09/10:05:23.645237,430831,1499565926,449630568,,0.721556445238,-0.0963266304399,0.186548699294,0.835837444825,0.544404500863,-0.0693065813729,0.014003679766,-0.000701885001482,-0.00379888621559,0.00252005372634,-0.0276595096533,0.0117934731266,0.0171197419739,-0.30895704031,0.166045919061,-0.4078309834,0.00508869439363,-0.486514776945,-0.0619799867272
2017/07/09/10:05:23.655300,430832,1499565926,459640758,,0.721739111509,-0.0966264791691,0.186827010882,0.835911306538,0.544289700119,-0.0692353896398,0.0144038455775,-0.00671116823041,-0.0291006647987,0.0109977303714,-0.0586849931105,0.00316426500036,-0.011925567109,0.0798025280237,-0.185239642859,-0.570259690285,0.032934486866,-0.34613776207,-0.0886978060007
2017/07/09/10:05:23.664994,430833,1499565926,469658761,,0.721804722986,-0.0968471659706,0.186975983157,0.83594595319,0.544224442044,-0.069275955034,0.0146615852213,-0.0142115307084,-0.0214405409681,-0.00641962754435,-0.0387399213094,0.0329648906213,-0.0172962190142,-0.0355939269066,0.0150388777256,-0.0141841098666,0.0406903401017,-0.439045637846,-0.0794111862779
2017/07/09/10:05:23.675519,430834,1499565926,479662743,,0.721351455202,-0.0960514903649,0.186332107399,0.836051957547,0.544071493899,-0.0694428768618,0.0134543918982,-0.00415606145469,-0.00221514763103,0.00863739058434,-0.00723174182342,0.00210416302141,-0.0308602651007,-0.41201338172,0.587774574757,-0.568697392941,-0.158317327499,-0.554924488068,-0.04115562886
2017/07/09/10:05:23.685175,430835,1499565926,489631568,,0.722095252366,-0.0959820057593,0.18685740649,0.835793340362,0.54450815428,-0.0689577220243,0.0143246187583,-0.00433089391968,-0.00305626302178,0.005868198689,2.13668392985e-05,0.00144878861689,-0.00396768827724,-0.238036736846,0.504730820656,-0.586993455887,-0.0860885977745,-0.560387194157,-0.0356903597713
2017/07/09/10:05:23.695331,430836,1499565926,499642638,,0.721617194682,-0.0965813360506,0.186668374626,0.836160537457,0.543945998585,-0.0690118164103,0.013988403014,0.00203312813127,-0.0215806712165,0.0117496709904,-0.03660813919,-0.0230737283807,-0.0166873193668,0.0791545286775,0.034232839942,-0.77688574791,0.0385783910751,-0.382466346025,-0.0762099027634
2017/07/09/10:05:23.705187,430837,1499565926,509628230,,0.721404566536,-0.0970606500796,0.186691521066,0.836314739073,0.543645364053,-0.0694500624361,0.014285103485,0.00202853657662,-0.00822332495023,0.000792460667392,-0.00987199118803,-0.0107635226636,-0.00311062203842,-0.790694713593,0.237538740039,-0.661778926849,-0.0840148031712,-0.660997748375,-0.0083759278059
2017/07/09/10:05:23.715568,430838,1499565926,519628194,,0.722100508693,-0.0967680135653,0.18673106458,0.836023709713,0.544158074401,-0.0688520039453,0.0146883768389,0.00319177311552,0.00128286235929,0.00890653791282,-0.0072382076134,-0.00983969917764,0.000641225959417,-0.399158000946,0.160982206464,-0.552919745445,-0.0769850984216,-0.586220502853,-0.0697614103556
2017/07/09/10:05:23.725434,430839,1499565926,529627154,,0.721953924574,-0.0966296829946,0.18668554502,0.836197803106,0.543906125882,-0.0687957177761,0.0143704392498,-0.00604609787701,-0.00828772756319,0.00469780750184,-0.00798458877603,0.00772662984516,-0.00462840275372,-0.149715662003,0.184135422111,-1.06290125847,-0.0195795968175,-0.43850338459,-0.0574754625559
2017/07/09/10:05:23.735236,430840,1499565926,539643181,,0.721702415661,-0.096589176737,0.187268445441,0.836004609238,0.544137454834,-0.0692874582923,0.0144904004067,0.0136650979018,0.0129631810877,0.000664871482258,0.0154513103841,-0.0224104123223,0.0210871650555,0.230574637651,-0.0214506685734,-0.500781416893,0.0533423498273,-0.281691908836,-0.0778246223927
2017/07/09/10:05:23.745125,430841,1499565926,549630067,,0.721197942648,-0.0974166770541,0.18689277759,0.836158370349,0.543873487374,-0.0695250986279,0.0143899300516,0.00846506671416,0.00568316727621,0.0122607133902,-0.0171804668088,-0.0175618109407,0.0164089618311,-0.827065587044,-0.0815574079752,-0.710719466209,-0.00939660519361,-0.650921523571,-0.0414081215858
2017/07/09/10:05:23.755332,430842,1499565926,559635172,,0.721572789442,-0.0969367292669,0.187493535272,0.836181707756,0.543874391819,-0.0691950504567,0.0145891236959,-0.000844726208506,0.00145994926522,0.00284595214806,-0.0112221478437,0.00620613838021,0.0085407848553,-0.553309857845,-0.211279153824,-0.873517632484,0.0527426451445,-0.565317928791,-0.0397567823529
2017/07/09/10:05:23.765385,430843,1499565926,569626866,,0.7217726436,-0.0974163635478,0.187401565253,0.836244068303,0.543778198532,-0.0691033568136,0.0150284765567,-0.0120337291133,-0.00289318477633,-0.00307002937332,0.00965913181096,0.0255527943055,-0.0104014784234,-0.163908198476,-0.531489729881,-0.502454817295,0.194667458534,-0.445630222559,-0.0841831415892
2017/07/09/10:05:23.775217,430844,1499565926,579628013,,0.72175488697,-0.0974187976002,0.187739362935,0.836241510202,0.543767109248,-0.0691757198943,0.0152376931588,0.00158101386609,-0.0108448348136,0.000243148375757,-0.0123085621954,-0.0123362051248,-0.00759904865588,-0.0328833013773,-0.111814007163,-0.455292612314,0.0831098407507,-0.393563449383,-0.0647571608424
2017/07/09/10:05:23.785462,430845,1499565926,589631878,,0.721773280786,-0.0964785321263,0.18697531495,0.835981331856,0.544154546598,-0.0694129043336,0.0145907819135,0.0083522124783,0.00912906969925,-0.0181532682291,0.0142431955312,-0.00318863078064,0.00743728310924,0.275507509708,0.239974707365,-0.557002842426,0.0341207012534,-0.325518488884,-0.0676029622555
2017/07/09/10:05:23.795304,430846,1499565926,599635161,,0.721900255447,-0.0962885729831,0.186823262568,0.83585682065,0.544414421625,-0.0689467519282,0.0142358103965,0.000494521066566,0.0132808128627,-0.00573020792761,0.0126162793885,0.0104992814837,0.0193365779905,-0.550948679447,-0.0475175827742,-0.596700549126,0.0521442815661,-0.571704506874,-0.0540023818612
2017/07/09/10:05:23.805291,430847,1499565926,609627771,,0.721763896392,-0.0965403345254,0.186824086591,0.836065580853,0.544093824766,-0.0689462539135,0.0142361664951,0.00722942282869,-0.000495439512169,0.00971033059914,0.00163965371728,-0.0253608044284,-0.00728003820391,-1.08701527119,0.116839036345,-0.828491270542,-0.00558761507273,-0.797033905983,-0.00461435317993
2017/07/09/10:05:23.815459,430848,1499565926,619631751,,0.721965929713,-0.0968710227143,0.1868287936,0.836111587807,0.543980454235,-0.0691527188084,0.0148519233461,-0.00371635799641,0.00100938103257,-0.00679306731105,4.30703937071e-06,0.0149077601101,-0.00417148509071,0.220895826817,-0.0721128880978,-0.676464617252,0.135593503714,-0.313561499119,-0.0820986106992
2017/07/09/10:05:23.825281,430849,1499565926,629629241,,0.721754193368,-0.095782265743,0.186828824238,0.835943820527,0.544295602938,-0.0689125163688,0.0138307856729,0.00303744106354,0.0029799347301,-0.00994059082561,0.00302878579056,0.000851715847004,0.0181263895665,-0.0914412811399,-0.00726999342442,-0.701695084572,0.0792707055807,-0.326501846313,-0.0824758633971
2017/07/09/10:05:23.835239,430850,1499565926,639631052,,0.721661450621,-0.0968234859554,0.186862794112,0.836160923479,0.543902507556,-0.0692480769702,0.0144801987749,-0.00203430786107,-0.00101378627552,-0.0101518643583,0.00721753178636,0.00886896853277,0.00966441497238,-0.797715604305,-0.433535933495,-0.311405539513,0.177991330624,-0.604198217392,-0.0688094869256
2017/07/09/10:05:23.845424,430851,1499565926,649628452,,0.722058581768,-0.096188459818,0.186573662672,0.835841061442,0.544421357734,-0.069058021363,0.0143560069412,0.00854969797165,-0.00593504064654,-0.00103087653339,0.00053928116422,-0.0295928735351,-0.0072690497566,0.249621495605,0.0737317949533,-0.281419485807,0.086343690753,-0.29549318552,-0.0788365155458
2017/07/09/10:05:23.855282,430852,1499565926,659629609,,0.721590776017,-0.096636775028,0.186684856965,0.836310220927,0.543734527929,-0.0688749895612,0.0139360440202,0.00382132797378,-0.00880316683074,-0.00162343368513,-0.00763292116746,-0.0157184451645,-0.0285910729077,-0.104248248041,-0.290601730347,-0.408336848021,0.125091463327,-0.310005545616,-0.0873259603977
2017/07/09/10:05:23.865113,430853,1499565926,669630130,,0.722162970401,-0.0966946582596,0.187058045526,0.836096423319,0.544058855457,-0.0687421066803,0.0147395888936,-0.00850604056533,-0.0071918092986,-0.00902492989296,-0.00215560874898,0.0209130072346,-0.0234655588701,-0.0654660612345,-0.24723815918,0.0567682832479,0.105251550674,-0.368230074644,-0.0949428454041
2017/07/09/10:05:23.875248,430854,1499565926,679627846,,0.722070732345,-0.0967088979969,0.186815142253,0.836132593744,0.54401670989,-0.0686867200012,0.0144996391633,-0.00848069399789,-0.00565206398,-0.00607622405063,-0.004271650458,0.021148347754,-0.0012676033218,-0.788204669952,-0.24735045433,-0.287384390831,0.0576604232192,-0.633028745651,-0.0463697686791
2017/07/09/10:05:23.885791,430855,1499565926,689636263,,0.721700604323,-0.0968022014843,0.186556822159,0.836054406935,0.544116169985,-0.0689151697406,0.0141887837813,0.0153827611828,0.0101020946995,0.00114030914718,0.00628390217277,-0.0243858984404,0.0396287307768,-0.445300757885,-0.0689222514629,-0.221517413855,0.0365322381258,-0.432149857283,-0.0810582414269
2017/07/09/10:05:23.895234,430856,1499565926,699634377,,0.722157832939,-0.0957813580189,0.186432699588,0.835668316866,0.544703210802,-0.0689878911912,0.0140551484271,-0.0011113494087,0.00160306480136,-0.0142294708649,0.00325732298761,0.0112358639058,0.00577847253799,-0.297735750675,0.453963369131,-0.289295554161,-0.00529733300209,-0.473914980888,-0.0373879373074
2017/07/09/10:05:23.905233,430857,1499565926,709634730,,0.721570877503,-0.0968682896837,0.186606686554,0.835997141897,0.544107455097,-0.069615895066,0.014473534577,0.0034909566096,0.00624853748194,0.0015201411635,0.01433616051,-0.00587565868562,0.00807717871703,-0.676885664463,0.0899065434933,-0.524179935455,-0.0262351110578,-0.530994236469,-0.0927790254354
2017/07/09/10:05:23.915247,430858,1499565926,719629817,,0.722382711623,-0.0965456608705,0.186364140042,0.83614184481,0.544021674517,-0.0685121406681,0.0146054645291,0.00117567373101,0.000753219764917,0.000894143968377,-0.0247340972728,0.0109456352561,0.0117763666984,-0.341263890266,-0.00648634135723,-0.317209869623,0.0103343203664,-0.428240001202,-0.0717316195369
2017/07/09/10:05:23.925668,430859,1499565926,729638064,,0.722019735772,-0.096905220001,0.186049543526,0.83612522092,0.543983327349,-0.069025285058,0.0145693009532,0.0111974913255,-0.00491618907746,-0.00154596888989,-0.0151284925569,-0.0302435589858,-0.0134595173316,-1.27179002762,0.0252528935671,-0.386913448572,0.0476744994521,-0.703590214252,-0.0476985685527
2017/07/09/10:05:23.935184,430860,1499565926,739635024,,0.721889773637,-0.0961326492864,0.185881896407,0.835844668347,0.544408645136,-0.0691965896748,0.01395526692,0.0154054317355,-0.000370106738653,-0.00248498888602,0.00815151161533,-0.0451298466616,-0.00552001194254,-0.165173649788,0.532443642616,-0.243536964059,-0.0999196693301,-0.264347314835,-0.112781427801
2017/07/09/10:05:23.944984,430861,1499565926,749635214,,0.722041175166,-0.0973639137102,0.186442459369,0.836123493903,0.543960284683,-0.0691265609711,0.0150409507239,0.00384927729379,-0.00945990144644,-0.00101544952452,-0.0153612707512,-0.0100879518079,0.00693307445799,-0.381768107414,-0.54428166151,0.378828108311,0.174819305539,-0.285745382309,-0.101114496589
2017/07/09/10:05:23.955288,430862,1499565926,759635052,,0.722063343117,-0.0973361678055,0.186304068172,0.836186685527,0.543863222822,-0.0691206987349,0.0150648868402,0.00848905878861,0.00572498469426,0.00198439461198,-0.00107702907732,-0.0157582453258,0.0362361108394,-0.569899082184,0.035411760211,-0.321759939194,0.117704868317,-0.408367335796,-0.0858874693513
2017/07/09/10:05:23.965173,430863,1499565926,769632436,,0.722917473784,-0.0965901483465,0.186408265353,0.835800274602,0.544569548441,-0.0682053715117,0.0151636137989,0.0170933133725,0.00183733800253,-0.0112457227169,-0.00277697590995,-0.0311378882735,0.0272118421744,-0.236185058951,-0.120535522699,0.0811325386167,0.109737657011,-0.265030473471,-0.0880679041147
2017/07/09/10:05:23.975472,430864,1499565926,779643501,,0.722580461648,-0.0969039865273,0.186247075475,0.836087686452,0.544080839235,-0.0685842998584,0.0151530443459,0.0136992079141,-0.0180495813978,0.00295582360862,-0.0199012935025,-0.0509025954879,-0.0220110205506,-0.655935287476,0.165150463581,0.0583054795861,-0.0241398140788,-0.428802222013,-0.0855012387037
2017/07/09/10:05:23.985486,430865,1499565926,789638946,,0.722463508288,-0.0968247011408,0.186117304221,0.83604866166,0.54413065871,-0.0686960156819,0.0150106301552,0.00842748995386,-0.0102445748475,-0.00167261591536,0.00192554760929,-0.0382958816445,-0.0260432293486,-0.841755867004,0.174845173955,-0.316025078297,0.0348386541009,-0.490022748709,-0.0532138682902
2017/07/09/10:05:23.995252,430866,1499565926,799627940,,0.722968373802,-0.0969897576185,0.186135249714,0.835945556144,0.544320742051,-0.0683405470633,0.0154766457666,0.0126788982213,0.00735706401511,7.79122016505e-05,-0.00501315375152,-0.0207950864924,-0.00101751515298,-0.457507401705,-0.0395420640707,-0.121030583978,0.0808265060186,-0.359769374132,-0.0797993391752
2017/07/09/10:05:24.005022,430867,1499565926,809629321,,0.722851556536,-0.0970926603935,0.185972624285,0.835892301688,0.544378950131,-0.0685040136366,0.015582642573,0.0126954492316,-0.00686962643696,0.00543442115245,-0.0287450754936,-0.0281312191841,0.00250512365221,-1.18634665012,0.318029522896,-0.258512616158,-0.0256894901395,-0.596844792366,-0.0632908642292
2017/07/09/10:05:24.015150,430868,1499565926,819633213,,0.722661502534,-0.0968211758571,0.186143707454,0.835774350569,0.54455838947,-0.0686028824634,0.0151999969199,0.0118444285086,-0.00557844473156,-0.00568626564856,-0.0183490266617,-0.0256890383498,0.0150214521377,-0.221427604556,0.0423944294453,-0.0649519711733,0.10808634758,-0.209420964122,-0.0914982333779
2017/07/09/10:05:24.025318,430869,1499565926,829628372,,0.723012353936,-0.0972413201737,0.186500697801,0.835772698229,0.544577232788,-0.0683228366853,0.0158626735454,0.0178125135357,0.0088133378155,0.00438965381276,-0.00564562758663,-0.0339805965229,0.0196704241066,-0.662082076073,0.114706501365,-0.0164372399449,0.0640449374914,-0.436973750591,-0.0782634168863
2017/07/09/10:05:24.035438,430870,1499565926,839633738,,0.723551360509,-0.0965983200123,0.186338743245,0.835855337851,0.544528622766,-0.0677253043051,0.0157390066953,0.014118348521,-0.00258790537568,-0.000752216910437,-0.00997655835172,-0.0271181629288,0.0191116638395,-0.405816048384,-0.209714114666,0.10655194521,0.212422400713,-0.349960237741,-0.069727435708
2017/07/09/10:05:24.045625,430871,1499565926,849627083,,0.723083744208,-0.0972208844291,0.186246242625,0.836066184856,0.544191422682,-0.06786021759,0.015621167944,0.0125783088644,0.00259413703582,0.0017760429436,-0.0100514880448,-0.0231990601413,0.0322158053307,-1.82482910156,-0.0176945626736,-0.257402300835,0.0151470527053,-0.795962095261,-0.0310373976827
2017/07/09/10:05:24.055234,430872,1499565926,859636104,,0.723117200611,-0.097261768488,0.186454399431,0.835988812748,0.544300202702,-0.0679029638428,0.015785493341,0.00382995592829,-0.0109659127243,-0.00120859825646,-0.00424289376669,-0.0243033083918,-0.0061949426684,-1.74350726604,0.198036894202,0.266457468271,0.0645568594337,-0.829353034496,-0.00315385311842
2017/07/09/10:05:24.065063,430873,1499565926,869625919,,0.723189895964,-0.0974513568842,0.186075856161,0.836211345196,0.543946045563,-0.0679802312992,0.0158736837006,0.00840138067988,0.0109605979701,0.000501953819621,0.00320171964026,-0.0109430987316,0.0103006444155,-1.18653547764,-0.22917689383,0.0970642566681,0.123019739985,-0.604612767696,-0.0559483580291
2017/07/09/10:05:24.075465,430874,1499565926,879649804,,0.723253550702,-0.0971890546838,0.186343186808,0.836013868456,0.544244333409,-0.0680167461571,0.0158946388273,0.00623565941184,0.00450311237551,-0.00402257415201,-0.0087617507907,-0.00150394318021,0.0147042119818,-1.52132821083,0.0506760776043,-0.204216614366,-0.030552431941,-0.68761408329,-0.0427904576063
2017/07/09/10:05:24.085189,430875,1499565926,889631362,,0.723551128902,-0.0971397143558,0.186085313674,0.835891226943,0.544425151787,-0.0680157636769,0.0161544641649,0.00418957745243,-0.00972534774707,-0.00149570321144,-0.0126901038499,-0.0171431494862,0.00186372458957,-0.960210323334,0.133344069123,-0.21395213902,0.0297202318907,-0.532756984234,-0.0476874560118
2017/07/09/10:05:24.095392,430876,1499565926,899632534,,0.723865831727,-0.0967380341256,0.185880689575,0.835757927016,0.544706619667,-0.0674440435109,0.0159589133708,0.00368424037403,-0.00461397796167,-0.0137289040339,-0.00690502487915,-0.00540593341573,-0.00313916855041,-0.777402997017,0.530524849892,-0.114594884217,0.0106872394681,-0.494560956955,-0.0498883612454
2017/07/09/10:05:24.105285,430877,1499565926,909629839,,0.723681623668,-0.0972462367789,0.185833443564,0.835898161973,0.544461697663,-0.0676266199014,0.0161976192285,0.0165623194084,0.00385815011527,-0.00745136653012,-0.00109402966631,-0.0347567688065,-0.0130853750916,-0.748472988605,-0.00185552239418,-0.142412543297,0.0874868482351,-0.460158109665,-0.0607084147632
2017/07/09/10:05:24.115256,430878,1499565926,919636535,,0.724200454952,-0.096301825426,0.186017261239,0.835666937934,0.544869260388,-0.0672199454536,0.0161163538699,0.00944658834169,0.00981797579181,-0.00873158379641,0.0068516022781,-0.0105691300728,0.0124599213214,-0.823290467262,0.783468663692,0.0194610729814,-0.124723657966,-0.551096439362,-0.0463434457779
