time,.header.seq,.header.stamp.secs,.header.stamp.nsecs,.header.frame_id,.pose.position.x,.pose.position.y,.pose.position.z,.pose.orientation.x,.pose.orientation.y,.pose.orientation.z,.pose.orientation.w,.twist.linear.x,.twist.linear.y,.twist.linear.z,.twist.angular.x,.twist.angular.y,.twist.angular.z,.wrench.force.x,.wrench.force.y,.wrench.force.z,.wrench.torque.x,.wrench.torque.y,.wrench.torque.z
2017/07/09/10:09:55.013980,457968,1499566197,819125713,,0.782078130549,0.399718349686,0.168081032752,0.622828346085,0.779667091826,0.0569480226293,0.0309999992892,0.0171930846401,-0.0165817940636,0.0194579910469,0.00450448328365,-0.0351458388198,-0.0229718390021,6.62120199203,2.49430418015,-2.25434851646,-1.08851027489,2.45300483704,-0.270176142454
2017/07/09/10:09:55.024047,457969,1499566197,829138687,,0.78227031937,0.399164626682,0.168327808855,0.622966039167,0.779542654856,0.0570418307825,0.0311896272125,0.0250046586394,-0.0421454369751,0.0246767620157,-0.020017675925,-0.0488454822672,-0.0490224208678,6.29606533051,2.53572797775,-2.40304780006,-1.07206785679,2.33039689064,-0.28249835968
2017/07/09/10:09:55.034043,457970,1499566197,839122884,,0.782272127364,0.398445014937,0.168369539151,0.623587140636,0.77906866998,0.0567880971717,0.0310837177372,0.0154854898217,-0.0356679916597,0.0145757670927,-0.00493640106965,-0.0190874794855,-0.0547030620568,6.30896568298,2.53635907173,-2.4131667614,-1.08075654507,2.33067774773,-0.280191868544
2017/07/09/10:09:55.043886,457971,1499566197,849125227,,0.782306464493,0.398940560022,0.168786221019,0.623334413183,0.779253160496,0.0569871315427,0.0311638899465,0.0209401381766,-0.0505800223838,0.0119482647297,0.000738338471719,-0.0285866046027,-0.0790964732026,6.28167533875,2.71132946014,-2.21134757996,-1.17290866375,2.29482984543,-0.315597325563
2017/07/09/10:09:55.053907,457972,1499566197,859120552,,0.782627404854,0.397701361225,0.168586220157,0.623960318822,0.778766780824,0.0567819713866,0.0311709695983,0.0132319633011,-0.0308518161099,0.0122911369548,-0.00180191233135,-0.0126288170281,-0.0521343570938,6.3316450119,2.73938703537,-1.92318940163,-1.17724347115,2.30803203583,-0.323291182518
2017/07/09/10:09:55.064073,457973,1499566197,869124754,,0.782627404854,0.397701361225,0.168586220157,0.623810980692,0.7788864094,0.0567759933842,0.0311818568319,0.0223765240144,-0.0543166807501,0.0104015966494,-0.0071615202838,-0.00709970290721,-0.0798100586368,5.35685443878,2.43430972099,-1.94546616077,-0.981134355068,1.89574635029,-0.279124081135
2017/07/09/10:09:55.074014,457974,1499566197,879124379,,0.782874585089,0.396594270448,0.168685407146,0.624557147722,0.778292360561,0.0566625718922,0.0312845595898,0.0172382337356,-0.0559273965957,0.0164286934776,-2.74224270579e-05,-0.00750106373194,-0.0794839708844,4.28683948517,2.09314680099,-2.44922757149,-0.828189373016,1.42897832394,-0.290988028049
2017/07/09/10:09:55.083962,457975,1499566197,889123855,,0.783439377228,0.396779556332,0.169297883721,0.624805532345,0.778026357058,0.0574252036717,0.0315496506721,0.0372297196964,-0.0632785166864,0.0234342511346,0.00722767372202,-0.0540962042464,-0.1063480916,3.75464320183,2.06560730934,-2.44400238991,-0.847195208073,1.25595808029,-0.313702344894
2017/07/09/10:09:55.094012,457976,1499566197,899126324,,0.784106592679,0.39541999393,0.169170375208,0.625019759466,0.777829833302,0.0574609383974,0.0320825694332,0.0349297525338,-0.0355063631652,0.0164031918153,0.024244324896,-0.0619264438846,-0.0647166996618,4.0235376358,2.1688978672,-2.32490634918,-0.944918632507,1.42148065567,-0.30899682641
2017/07/09/10:09:55.103966,457977,1499566197,909117902,,0.784042934516,0.395863766981,0.168888195591,0.624950147213,0.777874666481,0.057800064877,0.031740656052,0.0393315129013,-0.0493094888492,0.0190450731086,0.0289494258421,-0.0720018705677,-0.0763789907086,4.18134784698,2.33821392059,-2.17451715469,-0.988887667656,1.5626449585,-0.306731134653
2017/07/09/10:09:55.114042,457978,1499566197,919139256,,0.784505518333,0.395041134166,0.169386095456,0.625406840094,0.777481404877,0.0579456311478,0.0321131322676,0.0413856132351,-0.0716113124525,0.0159722682122,-0.000678957073003,-0.070932399314,-0.0981808397171,4.51946210861,2.31949329376,-1.99080979824,-0.97658264637,1.71663427353,-0.275874882936
2017/07/09/10:09:55.123951,457979,1499566197,929119959,,0.78453752383,0.393900473234,0.169274393947,0.626010195214,0.777007299117,0.0578603553431,0.0319854949441,0.0116284969525,-0.0901597472771,-0.00600604897911,-0.02041950709,0.0168802152828,-0.0992605368693,4.46584033966,2.27676272392,-2.01823019981,-0.923483073711,1.62436819077,-0.303538441658
2017/07/09/10:09:55.133836,457980,1499566197,939124959,,0.784327720681,0.393228403739,0.169520140425,0.626288305406,0.776825318276,0.05729794648,0.0319738756784,0.0155356700169,-0.0906518744767,0.0107970723146,-0.0247027801951,0.0092823553611,-0.116130921498,4.2874712944,2.28042602539,-2.00094509125,-0.887537479401,1.51508414745,-0.291202068329
2017/07/09/10:09:55.144061,457981,1499566197,949146536,,0.78524152448,0.391905701985,0.169359619696,0.627003873975,0.776201984929,0.0576349943941,0.0324781162359,0.0194106933138,-0.110820443089,-0.000145192594219,-0.0307643398479,0.01332258789,-0.1503392811,5.17605400085,3.28094625473,-2.0527844429,-1.37977993488,1.78137040138,-0.403020620346
2017/07/09/10:09:55.154011,457982,1499566197,959125726,,0.78499476758,0.391240721369,0.169509874364,0.627282124363,0.77601490049,0.0571696919363,0.0323981017363,0.0270625920913,-0.10533782352,0.00366473515943,-0.0119804069724,0.000479017273056,-0.147296605431,5.18902254105,5.00960493088,-2.00963783264,-2.18929314613,1.75511968136,-0.549777925014
2017/07/09/10:09:55.164099,457983,1499566197,969126806,,0.785117919612,0.389661524611,0.169356265306,0.628025498323,0.775425403554,0.0568447213466,0.0326817171246,0.0219045484595,-0.10295482087,-0.0021941186045,-0.032355428143,0.000811233443846,-0.149082487137,4.78034543991,5.55685663223,-1.99656045437,-2.39198803902,1.59586000443,-0.589915156364
2017/07/09/10:09:55.173876,457984,1499566197,979121988,,0.786131882677,0.388710994806,0.169669903142,0.628413157952,0.775056025404,0.0570933501521,0.033547127552,0.0276366870212,-0.0900606933738,-0.0107638859246,-0.0146711510803,-0.0107696312492,-0.139710877942,4.67656183243,5.78488731384,-2.01670598984,-2.47426104546,1.62539494038,-0.592242240906
2017/07/09/10:09:55.184173,457985,1499566197,989119734,,0.785863026957,0.387604982512,0.169080681571,0.629244235957,0.774431590239,0.0565871184086,0.0332460762433,0.0480069321434,-0.11426121552,0.00820699831055,-0.0368341878471,-0.0704102924793,-0.150530242845,4.70073413849,5.82302379608,-1.80225050449,-2.34718418121,1.74643909931,-0.505920112133
2017/07/09/10:09:55.193924,457986,1499566197,999123617,,0.786417482224,0.386442501539,0.16921839461,0.629777594606,0.773970313826,0.0566815036112,0.0337244984597,0.0291766991556,-0.12085569699,-0.00890537139707,-0.0682235300499,-0.0253884519606,-0.14840513478,4.51219558716,5.57188367844,-1.91118776798,-2.12695837021,1.68212616444,-0.486433357
2017/07/09/10:09:55.203654,457987,1499566198,9117284,,0.7869999004,0.385344465231,0.169865677951,0.630129792598,0.77363912864,0.0568283873835,0.0344888025986,0.0302874857578,-0.101327724383,0.00514765414331,-0.0638177484746,-0.037327261844,-0.0920470930699,4.23196220398,5.76446819305,-1.94913315773,-2.21745491028,1.58048522472,-0.530830085278
2017/07/09/10:09:55.214075,457988,1499566198,19120310,,0.786685968512,0.384561488401,0.168899202282,0.630530367226,0.773380806863,0.0561565610229,0.0340591285316,0.0118044941512,-0.104458457691,0.0101913680121,-0.0709454825637,-0.00409261190317,-0.092128480494,4.35316896439,5.77849292755,-2.09768009186,-2.29692411423,1.59801006317,-0.607024073601
2017/07/09/10:09:55.224075,457989,1499566198,29127604,,0.787191233667,0.38359296837,0.169550186845,0.631018203591,0.7729360654,0.0565958373228,0.0343915213151,0.0124267919679,-0.114465978997,-0.00946551100368,-0.0523747747164,0.0185275682229,-0.140944452293,4.67907238007,5.9704413414,-2.13717985153,-2.41589474678,1.73083412647,-0.621524333954
2017/07/09/10:09:55.233968,457990,1499566198,39124558,,0.787171540906,0.382399419317,0.16928698977,0.631695807064,0.772408434663,0.0562571279772,0.0343620859399,0.0202620486593,-0.106597700029,-0.00218068557398,-0.0342062570901,-0.0144410475735,-0.138661109759,5.00484704971,6.23945379257,-2.13221001625,-2.4640891552,1.86117100716,-0.585997641087
2017/07/09/10:09:55.243721,457991,1499566198,49122116,,0.787688489129,0.380793708305,0.169465221334,0.632604228014,0.771660986396,0.055911398073,0.0350018333541,0.0286878497134,-0.109655638772,0.00804642470766,-0.0323447475452,-0.0276086345705,-0.158563404793,5.34143781662,6.25266122818,-2.01085972786,-2.38493728638,1.99547171593,-0.530874013901
2017/07/09/10:09:55.253919,457992,1499566198,59127012,,0.787334966565,0.380198061867,0.168950043077,0.632750347434,0.771584293323,0.0555728074339,0.0345881365967,0.0348014537543,-0.104054171796,0.00686742556776,-0.0525482464437,-0.0354450870144,-0.113221035247,5.76152515411,6.48230648041,-1.86610019207,-2.39895892143,2.17216038704,-0.521945238113
2017/07/09/10:09:55.263766,457993,1499566198,69120650,,0.787993545369,0.379437308528,0.169579099278,0.63291677621,0.771389977088,0.0557944209427,0.0355083121681,0.0292465014595,-0.103653563822,0.00961907411206,-0.0620460387709,-0.0320675534511,-0.114645751735,5.3003616333,6.35605144501,-1.9063167572,-2.26968383789,2.01837682724,-0.52504825592
2017/07/09/10:09:55.274009,457994,1499566198,79117057,,0.788466466147,0.377545756033,0.169612388826,0.634073428262,0.770453115549,0.0554254744454,0.0357896786146,0.028012922103,-0.0964241747714,0.0162292712181,-0.0674319265351,-0.0423970463326,-0.0999036126804,4.96248054504,6.26102828979,-2.08162546158,-2.2767162323,1.89499163628,-0.536440134048
2017/07/09/10:09:55.283988,457995,1499566198,89122550,,0.78885126108,0.376936871229,0.169954393609,0.633939010459,0.770520075019,0.0555968336301,0.0364573326153,0.024945142475,-0.111395304775,0.00114096117413,-0.0667775458976,-0.0260038381458,-0.140132761264,5.08715248108,6.42939662933,-1.99751245975,-2.47395515442,1.95940923691,-0.578689754009
2017/07/09/10:09:55.294084,457996,1499566198,99124667,,0.788936882857,0.375867341304,0.16957483498,0.634273965934,0.770259683689,0.0552716094825,0.0366279265992,0.0527818938028,-0.141666141616,0.0103498468431,-0.0458238355641,-0.0809858376959,-0.174323473078,3.21129512787,3.52227425575,-0.635690331459,-1.37563657761,1.34210515022,-0.342949748039
2017/07/09/10:09:55.304044,457997,1499566198,109120882,,0.789835771893,0.374411995945,0.170365854177,0.635186350324,0.769430427441,0.0559201199904,0.0372566486732,0.0695494398812,-0.185801873428,0.0352000086742,-0.0446564104386,-0.118509278802,-0.236152539081,2.29093647003,1.75837421417,1.00442540646,-1.03411269188,1.04346513748,-0.382406890392
2017/07/09/10:09:55.314056,457998,1499566198,119137010,,0.79016380831,0.372250492807,0.170661327726,0.636352548212,0.768468231066,0.0554995571584,0.0378392835826,0.0632553395721,-0.176316881986,0.0427105601547,-0.0526430297226,-0.113545483229,-0.236638097792,1.26761817932,1.54254496098,1.98537993431,-1.04795312881,0.672993302345,-0.384060323238
2017/07/09/10:09:55.323892,457999,1499566198,129118033,,0.790683809067,0.369785998829,0.170940070181,0.6370757219,0.767862834304,0.0550612713827,0.0385933757789,0.0434743947646,-0.179712220609,0.0425834021188,-0.0989418178522,-0.0719413560322,-0.220966300442,0.572007238865,1.54068684578,1.64461147785,-1.02078151703,0.320156872272,-0.361666887999
2017/07/09/10:09:55.333876,458000,1499566198,139125074,,0.791096675163,0.36772414429,0.171459927176,0.638003513604,0.767066430099,0.0547303564764,0.0395625646646,0.0415906845436,-0.203457691219,0.0481501834995,-0.139708046929,-0.0656099186568,-0.201226957539,1.32352423668,1.5666513443,0.850830197334,-0.829788208008,0.566258430481,-0.25487446785
2017/07/09/10:09:55.343935,458001,1499566198,149117876,,0.791717993008,0.366060695438,0.17196710149,0.638419767012,0.766688833734,0.0544456987269,0.0405474932184,0.0468172901428,-0.201727799979,0.0447302476511,-0.151729062675,-0.0856120168954,-0.188445119229,1.28214657307,0.69182062149,0.293016970158,-0.0799074843526,0.555858671665,0.00339642167091
2017/07/09/10:09:55.353829,458002,1499566198,159125403,,0.792416377691,0.364320550262,0.173136136033,0.638691933235,0.76639176713,0.0545053525687,0.0417784661784,0.0477280159702,-0.191977262149,0.0533893053621,-0.149109670703,-0.0920190992913,-0.174353900456,0.126980423927,-0.809442043304,-0.12308614701,0.810994148254,0.144087359309,0.126763671637
2017/07/09/10:09:55.363938,458003,1499566198,169125934,,0.792861128926,0.362418009278,0.173016455675,0.639248518989,0.7659262548,0.0540014058157,0.0424517531694,0.0579146954596,-0.212044469806,0.0510272989907,-0.182465102885,-0.119310902604,-0.162037279361,0.041310608387,-1.63046395779,-0.307213187218,1.21005010605,0.113867729902,0.166066512465
2017/07/09/10:09:55.374111,458004,1499566198,179122419,,0.793304283611,0.359918835863,0.173480879756,0.640009681647,0.765252778095,0.0537194847005,0.0434742449996,0.0599397240242,-0.213109414108,0.0496041309168,-0.170067563597,-0.13336655339,-0.15262301666,-0.575883507729,-1.43718385696,-0.499885559082,0.988514900208,-0.148253560066,0.0911477953196
2017/07/09/10:09:55.384053,458005,1499566198,189125964,,0.79408920304,0.358267770084,0.173953682459,0.640804719354,0.764535774922,0.054102792399,0.0439004370463,0.0639946451908,-0.226419812317,0.0421219310245,-0.114572479388,-0.120508962103,-0.215688382386,-0.327246695757,-0.084803506732,-0.421031653881,0.0974357053638,-0.0765320360661,-0.12212318182
2017/07/09/10:09:55.394044,458006,1499566198,199116616,,0.794436682149,0.356607102589,0.174320163856,0.641777011993,0.76368557433,0.0542903194541,0.044262531012,0.0571202457279,-0.202196723175,0.0460841505856,-0.0584217546164,-0.104018942161,-0.23256681924,-0.18451911211,0.946901917458,-0.641535639763,-0.457363903522,-0.087325103581,-0.152647390962
2017/07/09/10:09:55.403850,458007,1499566198,209120626,,0.794819669955,0.355039459017,0.174712149395,0.642098874112,0.763394271737,0.0540321452655,0.0449304910111,0.0375663469417,-0.189823819506,0.0361411049376,-0.0461234214868,-0.065046508537,-0.248239482074,-0.427650094032,1.30149149895,-0.935496330261,-0.72186088562,-0.235387325287,-0.268885940313
2017/07/09/10:09:55.413904,458008,1499566198,219124943,,0.794830164452,0.352410388348,0.174438330927,0.643125656822,0.762570166661,0.0532815596924,0.0451354168294,0.0394640035599,-0.204322963178,0.0347225679966,-0.0782528355223,-0.0518011783691,-0.241045221335,-1.21208178997,1.16712880135,-0.956070721149,-0.623190402985,-0.552471041679,-0.266787111759
2017/07/09/10:09:55.423941,458009,1499566198,229118481,,0.795719079328,0.350180250128,0.175260655659,0.644131764707,0.761645187474,0.0533352827738,0.0463273753263,0.0510356590191,-0.230043196932,0.0410616766869,-0.100727410983,-0.0776604346929,-0.268095861262,0.0814278125763,1.23320114613,-0.838507533073,-0.588307976723,-0.0769686847925,-0.189333051443
2017/07/09/10:09:55.433890,458010,1499566198,239123886,,0.796568123082,0.347044186829,0.17610204434,0.645321222416,0.760575720706,0.0532725247394,0.0474039141843,0.0550436275928,-0.269244249731,0.0407713998018,-0.149805312025,-0.0875893052521,-0.269278463043,1.9640455246,1.50251114368,-0.567349791527,-0.713280975819,0.618039429188,-0.243447422981
2017/07/09/10:09:55.444082,458011,1499566198,249118857,,0.796973174453,0.344380436676,0.176216703861,0.646353293325,0.759695145049,0.0527874390038,0.0480020112118,0.0582691121913,-0.26692932599,0.0364829477454,-0.143316725313,-0.0906415746088,-0.265459390314,2.47997546196,1.61733257771,-0.74712228775,-0.656006991863,0.744593799114,-0.221138119698
2017/07/09/10:09:55.454008,458012,1499566198,259125182,,0.796953882448,0.342366871385,0.176294342877,0.647350322786,0.758863274349,0.0525314483222,0.0480055972853,0.0303446920071,-0.256774429207,0.0236755631432,-0.10748686368,-0.0185419727857,-0.267802923639,3.15000510216,1.74655675888,-0.904009461403,-0.611481308937,0.959854125977,-0.250213027
2017/07/09/10:09:55.464028,458013,1499566198,269130053,,0.797156662583,0.340747192449,0.176358750994,0.648133963483,0.758207341721,0.0523390285494,0.0480064415577,0.0354404103345,-0.242965341214,0.0401472129978,-0.040847899141,-0.0353801473447,-0.310918059242,2.64728212357,1.56531238556,-1.19358432293,-0.503705263138,0.698244214058,-0.222927838564
2017/07/09/10:09:55.473839,458014,1499566198,279123516,,0.798042563349,0.33804003408,0.176989978463,0.649739866246,0.756751236121,0.0529515134108,0.0485984574678,0.0389850479882,-0.234858512199,0.0238801218361,0.00932255410856,-0.029059124509,-0.328693286598,2.66356301308,1.57796096802,-1.49321472645,-0.545294225216,0.706344425678,-0.209595412016
2017/07/09/10:09:55.483930,458015,1499566198,289124564,,0.798688663158,0.335820661647,0.177424379165,0.650897791814,0.755701305061,0.0532867413162,0.0490726537016,0.0658046255094,-0.243968358722,0.0414830128784,0.0269409654429,-0.0973887560203,-0.36706248012,3.04485988617,1.66680729389,-1.4850859642,-0.642469465733,0.887637794018,-0.241041958332
2017/07/09/10:09:55.494174,458016,1499566198,299124727,,0.798958047576,0.333209716785,0.177489654096,0.652157067083,0.754630260706,0.053155071333,0.0489782387538,0.0635166917371,-0.269435896111,0.0277653045801,0.00726483298734,-0.0836234762732,-0.368838037668,2.57635164261,1.50736153126,-1.40908920765,-0.543306112289,0.757244229317,-0.186244443059
2017/07/09/10:09:55.503927,458017,1499566198,309121399,,0.799875602995,0.331534537801,0.178171701764,0.653089554038,0.753727414571,0.0539797800512,0.0495499977474,0.0757387592662,-0.252210841473,0.0328984162563,0.0125425307122,-0.108619852783,-0.341144812089,2.92734861374,1.10757422447,-1.30105483532,-0.305340796709,0.954692602158,-0.125877588987
2017/07/09/10:09:55.513955,458018,1499566198,319143813,,0.800696406384,0.328237764011,0.178448456278,0.654937408297,0.752071397824,0.0541488807751,0.0501348431606,0.0561944619061,-0.23203419218,0.0290472268442,0.0349602665618,-0.0676827820236,-0.362710814028,2.46505093575,0.702303171158,-1.45038104057,-0.0733735337853,0.757287800312,-0.045439876616
2017/07/09/10:09:55.523921,458019,1499566198,329122357,,0.80081058975,0.32568676013,0.178092960315,0.656432099754,0.750803301452,0.0538536854794,0.0499107353465,0.0621731810471,-0.262569226546,0.036431258617,0.0363046899734,-0.0846512417251,-0.393050941956,2.05224394798,0.443027943373,-1.32870602608,-0.0711476802826,0.573200345039,-0.0647979006171
2017/07/09/10:09:55.533927,458020,1499566198,339123522,,0.801077190306,0.322946742896,0.178270460416,0.657829341811,0.749578599866,0.0539369638884,0.0498325556442,0.0531741855636,-0.271496572235,0.0150742905436,0.0332851954441,-0.0394286189057,-0.37962848671,2.25230813026,0.080130726099,-1.1483925581,-0.0919015929103,0.609282374382,-0.0789750441909
2017/07/09/10:09:55.544042,458021,1499566198,349151548,,0.801963126758,0.320866635517,0.179305815242,0.658826149052,0.748626555382,0.0544642923948,0.050398678116,0.049582362731,-0.266882587243,0.0236729696904,0.0338547289669,-0.0400253793649,-0.383116933675,2.51493287086,0.438761413097,-1.10689723492,-0.287314504385,0.69886225462,-0.143667578697
2017/07/09/10:09:55.554056,458022,1499566198,359116694,,0.802756686742,0.318122534162,0.179485554001,0.660779548868,0.746855000228,0.0549039095367,0.0506315825345,0.0479408943669,-0.27848781648,0.0453272559933,0.0322668671699,-0.0487903718816,-0.426875666414,2.5743701458,0.962665379047,-1.18017148972,-0.628236532211,0.637006223202,-0.234692960978
2017/07/09/10:09:55.564030,458023,1499566198,369126272,,0.803218539602,0.314123062163,0.179888085653,0.66256912927,0.745244658736,0.0546574045103,0.0512358829081,0.058963226683,-0.282661766982,0.0441375684535,0.0192596111454,-0.0763683122505,-0.418343052754,2.1380546093,0.777188539505,-1.30806303024,-0.543574869633,0.446427881718,-0.219470858574
2017/07/09/10:09:55.573980,458024,1499566198,379121409,,0.8039649961,0.31224282803,0.179772296713,0.663543488107,0.744322893739,0.0553195630005,0.051314863315,0.0787630269292,-0.299069134543,0.0406125054197,0.0219274483079,-0.114740759782,-0.434230631821,2.41780924797,0.797131597996,-1.23728013039,-0.610072016716,0.576260983944,-0.237362921238
2017/07/09/10:09:55.583899,458025,1499566198,389128685,,0.80459952781,0.309070255133,0.180581186173,0.665190901821,0.742789678029,0.0553641822848,0.0521475374961,0.0593697028665,-0.299062130257,0.026893738611,0.0113903665862,-0.0794079837188,-0.406955248726,2.31783723831,0.74687731266,-1.16913747787,-0.524990260601,0.565432608128,-0.180154964328
2017/07/09/10:09:55.593961,458026,1499566198,399139016,,0.805270546793,0.30635076615,0.180851536813,0.666383478293,0.741676021684,0.0555687235063,0.0525533603617,0.0698113785165,-0.309503810063,0.0498029855597,-0.00228647822888,-0.116936917156,-0.416083051539,1.97254657745,0.672018051147,-1.26014256477,-0.487950533628,0.45007365942,-0.218957662582
2017/07/09/10:09:55.603847,458027,1499566198,409122712,,0.805590662937,0.302924459894,0.18121388858,0.667934603041,0.74026239048,0.0554465104418,0.0529211090231,0.0515107098117,-0.299562147113,0.0294012184895,0.0155002987606,-0.0658261071333,-0.422045240614,2.20214056969,0.494583725929,-1.16565549374,-0.502934873104,0.526340126991,-0.212959095836
2017/07/09/10:09:55.614020,458028,1499566198,419126481,,0.805889293615,0.299484220649,0.181264381266,0.670207353497,0.738208885719,0.0555899377638,0.0527209937658,0.0540964876064,-0.339914790617,0.0437028257423,-0.0121436636662,-0.0852108187784,-0.457173495042,1.71688532829,0.37913492322,-1.23853862286,-0.38429993391,0.345386236906,-0.19737367332
2017/07/09/10:09:55.623849,458029,1499566198,429117588,,0.80678868118,0.296110722982,0.181742722452,0.671692669474,0.736776868516,0.0557491389687,0.0536734319586,0.0574185749481,-0.333406533371,0.0441031308314,-0.00864666789596,-0.0903912751221,-0.446625000622,1.94817078114,0.135925233364,-1.13783371449,-0.22923502326,0.429173022509,-0.126651331782
2017/07/09/10:09:55.633926,458030,1499566198,439118398,,0.807178308687,0.293503926179,0.182196196001,0.672855642688,0.735672379302,0.055981139911,0.0540143167084,0.0544941637843,-0.327118214762,0.0404102271856,-0.0119131843229,-0.0844712489633,-0.447383331217,2.00315237045,0.313997358084,-1.17354869843,-0.277513951063,0.434841036797,-0.145847648382
2017/07/09/10:09:55.644554,458031,1499566198,449122480,,0.807754326338,0.289857092787,0.18279567135,0.674824873879,0.733828606934,0.0562236751364,0.0542758103901,0.0534962469609,-0.310299859026,0.0358601184948,0.0130202919193,-0.0777959694131,-0.425940455661,1.41863965988,0.207866445184,-1.35969018936,-0.230900704861,0.188308849931,-0.16881133616
2017/07/09/10:09:55.654075,458032,1499566198,459124500,,0.808585726633,0.287078582167,0.182940969653,0.67610481261,0.732567560626,0.0567474910896,0.0548340563802,0.046581280745,-0.322872998423,0.0319187533146,0.0267857350182,-0.0605031357584,-0.467595748492,1.41459608078,0.177312016487,-1.28386628628,-0.249324575067,0.118503928185,-0.160643607378
2017/07/09/10:09:55.663977,458033,1499566198,469119249,,0.808558906364,0.283809994367,0.183428524724,0.677996978575,0.730837541241,0.0564340518707,0.054879715243,0.0538111397487,-0.326849055617,0.0430475418552,0.00433305224469,-0.0904496055084,-0.451467642257,1.39043438435,-0.13002230227,-1.27307498455,-0.142782986164,0.145614802837,-0.130229845643
2017/07/09/10:09:55.673632,458034,1499566198,479120873,,0.808965638081,0.281257076007,0.183619309541,0.678983348643,0.729879893664,0.0566129708834,0.0552442270185,0.0503872213543,-0.35017436271,0.0368482781237,0.00191891384598,-0.0844020987779,-0.481545812217,1.48303198814,-0.117986500263,-1.17300438881,-0.0836607888341,0.215370506048,-0.117852047086
2017/07/09/10:09:55.683924,458035,1499566198,489126024,,0.809728696697,0.27743554411,0.184533311048,0.681315999301,0.727617986601,0.0571102472807,0.0558479572281,0.0464574810192,-0.35118424105,0.0344488848559,0.00111392165186,-0.0811992214511,-0.480379080274,1.47900402546,-0.116836130619,-0.946062743664,-0.241395801306,0.202653735876,-0.17331160605
2017/07/09/10:09:55.694011,458036,1499566198,499147686,,0.810057284966,0.274008226715,0.184920776667,0.682685661573,0.726294003793,0.0571158326415,0.0563479298587,0.047620633007,-0.355292555595,0.0437772041383,0.0193107605202,-0.0878688858392,-0.507292467303,1.54360425472,0.571151793003,-0.891963541508,-0.578017055988,0.259137243032,-0.263106822968
2017/07/09/10:09:55.703957,458037,1499566198,509117174,,0.810501020002,0.270596496478,0.184871764606,0.684405525513,0.724654504732,0.0571207192309,0.0565875326647,0.044313304436,-0.347388435077,0.0375470022448,0.00381384956588,-0.0820371425209,-0.473930062836,1.92462909222,1.80415523052,-0.846670687199,-1.27620077133,0.381927639246,-0.452835232019
2017/07/09/10:09:55.713955,458038,1499566198,519116834,,0.811125374116,0.268232397123,0.185546005279,0.685719847243,0.723320913509,0.0577534718238,0.0570936394859,0.0466307314579,-0.343241856074,0.0357204189683,-0.00118063497098,-0.0825513186311,-0.464725500411,1.68649601936,2.46566128731,-0.865381717682,-1.58282780647,0.310399353504,-0.567711651325
2017/07/09/10:09:55.723659,458039,1499566198,529119887,,0.811642572053,0.263579487884,0.185588905294,0.687652465751,0.721438925641,0.0574012611104,0.0580091211766,0.0488304077367,-0.353709311412,0.0288850328665,-0.0139985776311,-0.0941019402746,-0.46892436656,1.19874441624,1.86122131348,-0.9345048666,-1.24115550518,0.128169178963,-0.451361179352
2017/07/09/10:09:55.734286,458040,1499566198,539125454,,0.812100316916,0.260252170193,0.185825534596,0.689416212802,0.719712548557,0.0577042272587,0.0582181683953,0.0427303118893,-0.381530338331,0.0341638213124,-0.0456924100257,-0.0917805054057,-0.499851472819,0.446377664804,0.932768464088,-0.726198136806,-0.632043063641,-0.117654025555,-0.269917577505
2017/07/09/10:09:55.744097,458041,1499566198,549120275,,0.812068822062,0.256470906242,0.186106042249,0.690876102413,0.718303248858,0.0573714715773,0.0586444203957,0.0488598437819,-0.38137188241,0.0484891310744,-0.0517955119251,-0.111098526171,-0.488468437467,0.129819244146,0.0899079442024,-0.622965216637,-0.0777189731598,-0.227229952812,-0.109028339386
2017/07/09/10:09:55.753969,458042,1499566198,559118962,,0.813041743857,0.253071437551,0.18717540836,0.692418262255,0.716684364294,0.0579235191653,0.0597104513433,0.0443334196515,-0.392273719601,0.0558138028711,-0.0401191400257,-0.107033981906,-0.507720947856,-0.185923993587,-0.215382605791,-0.432944148779,0.149668246508,-0.377425253391,-0.0682111233473
2017/07/09/10:09:55.764138,458043,1499566198,569119641,,0.812818820393,0.249593307515,0.187045252825,0.694120347587,0.715079058468,0.0575339476714,0.0595712016985,0.0350483157808,-0.388072393715,0.0387274808441,-0.0321822036462,-0.0762961886958,-0.505958031099,-0.609126865864,-0.480859845877,-0.361863255501,0.23440296948,-0.564176380634,-0.0574776530266
2017/07/09/10:09:55.774017,458044,1499566198,579126800,,0.814184377247,0.245513062304,0.187940921797,0.696468192058,0.712623227602,0.0586831319543,0.0604688593928,0.0371759102683,-0.364181400115,0.0529254336835,0.0242447347928,-0.0899387198004,-0.523357343951,-0.698234677315,-0.182164818048,-0.435746461153,0.043805859983,-0.675350368023,-0.0758884102106
2017/07/09/10:09:55.784238,458045,1499566198,589119660,,0.813650737207,0.242318962529,0.188187733969,0.697934895553,0.711234417577,0.0580833950538,0.0604880487557,0.0276604959644,-0.377881493643,0.0390088791924,0.0468279303212,-0.063376448892,-0.553337777723,-0.92844170332,0.150661379099,-0.356625199318,-0.293597489595,-0.786454916,-0.215984687209
2017/07/09/10:09:55.793740,458046,1499566198,599120895,,0.814031293808,0.237957668233,0.188532947163,0.700040736298,0.709119543525,0.0581281655801,0.0609389602733,0.0180260767678,-0.379437674273,0.0358914143386,0.0420243732693,-0.0468143276225,-0.54584404704,-1.50664591789,0.329174697399,-0.583492457867,-0.442729175091,-1.06834197044,-0.226488366723
2017/07/09/10:09:55.804005,458047,1499566198,609125095,,0.814714965707,0.234331359319,0.189401732279,0.701602040314,0.707473910299,0.0584828702355,0.0617656633016,0.0218576551838,-0.419334450278,0.0364238656747,-0.0220874219232,-0.0600930010819,-0.564929249059,-2.23990011215,0.200078904629,-0.0712036639452,-0.279755145311,-1.35249614716,-0.207305535674
2017/07/09/10:09:55.814018,458048,1499566198,619132550,,0.81449783904,0.230200543076,0.189224751822,0.703526003909,0.705590810026,0.058130890291,0.0617541109983,0.0235185864672,-0.408162639111,0.0408306351352,-0.0306656574944,-0.0630455362035,-0.513561565461,-2.72270989418,-0.0621971040964,-0.0536150187254,-0.214996010065,-1.53963029385,-0.181200563908
2017/07/09/10:09:55.823935,458049,1499566198,629128470,,0.814806820603,0.226716893147,0.18990479559,0.705251235058,0.703812592291,0.0583283354669,0.0621798654166,0.0111188933109,-0.385114836155,0.0343582041464,0.000746133063179,-0.0401514047091,-0.507117325347,-3.24417185783,-0.0178354680538,0.206068754196,-0.109318464994,-1.74622130394,-0.156613096595
2017/07/09/10:09:55.834169,458050,1499566198,639125515,,0.814935721342,0.223637081615,0.190016598961,0.706577172464,0.702457338313,0.058562782202,0.0622317261777,0.0219920194226,-0.37995922537,0.0570783390382,0.00694065357846,-0.0785962607869,-0.517290600459,-4.21462869644,0.25764811039,0.215243220329,-0.209308132529,-2.0674507618,-0.158947318792
2017/07/09/10:09:55.844416,458051,1499566198,649119434,,0.8146922493,0.219416920405,0.190459594418,0.708634235135,0.700390788491,0.0582548547289,0.0624230413582,0.0101931068162,-0.395849069276,0.0339365943992,0.00764179332232,-0.0460099485021,-0.553169663634,-4.44002342224,0.403257131577,0.471646994352,-0.404047310352,-2.06344413757,-0.226585194468
2017/07/09/10:09:55.854201,458052,1499566198,659122001,,0.815089870917,0.214881780042,0.191283113652,0.710745341901,0.698159275925,0.0582799148635,0.0633887681714,0.00420805273047,-0.416575800921,0.040149544902,0.00210821433042,-0.0444440326287,-0.5715452196,-5.38989019394,0.389236986637,0.900038182735,-0.351882755756,-2.2716357708,-0.187712669373
2017/07/09/10:09:55.863897,458053,1499566198,669125993,,0.814548990641,0.211181270299,0.191295888216,0.712779878861,0.69615105851,0.0579440619858,0.0629367436939,-0.00389111396491,-0.448439080396,0.0382424865618,-0.0364676813669,-0.0297294726717,-0.594585860039,-6.24496221542,0.664627790451,0.797274649143,-0.473309755325,-2.55908608437,-0.229832917452
2017/07/09/10:09:55.874009,458054,1499566198,679125986,,0.815314273615,0.20725308421,0.192162666091,0.714778969175,0.693981739238,0.0585050369471,0.0636987557257,-0.000483046265537,-0.42960369657,0.0349249201919,-0.0230054476465,-0.0240509994292,-0.585070784841,-6.16775226593,0.489202857018,1.33480894566,-0.466671675444,-2.50333976746,-0.255091607571
2017/07/09/10:09:55.883885,458055,1499566198,689118510,,0.814745748193,0.203512668603,0.191975848289,0.715940078841,0.69285127599,0.0576010491255,0.0637889646261,0.00180645454326,-0.421484759653,0.054363616235,-0.0127112845058,-0.0401209435831,-0.591558342495,-7.03743028641,0.347075819969,1.32039248943,-0.280495405197,-2.73054432869,-0.145001873374
2017/07/09/10:09:55.893931,458056,1499566198,699122429,,0.81444316167,0.19922581901,0.192131508807,0.718166441397,0.690590379936,0.0570082480111,0.063811826882,-0.0173491323708,-0.418446167877,0.042959515268,-0.0357911907549,0.00349686118009,-0.545290927376,-7.97644901276,0.670233368874,1.1174145937,-0.333919167519,-3.09024691582,-0.14040197432
2017/07/09/10:09:55.903865,458057,1499566198,709123681,,0.814409649786,0.195058327021,0.192722685404,0.71977652512,0.688883168748,0.0566992656262,0.0643966379558,-0.0189144563274,-0.38391998064,0.0328567895045,-0.00535278761337,0.0222151569923,-0.500220893984,-7.74788570404,0.503604054451,1.47266483307,-0.273749679327,-2.99516320229,-0.120457872748
2017/07/09/10:09:55.914087,458058,1499566198,719125333,,0.814285937533,0.191739193198,0.193080556323,0.721575802466,0.687001101028,0.0569000803915,0.0641890125621,-0.0176160738629,-0.391514002832,0.0328792928455,-0.0276665954754,0.0214622962093,-0.512120069039,-8.95485115051,0.56293618679,1.47108602524,-0.248499795794,-3.46479296684,-0.119075134397
2017/07/09/10:09:55.924216,458059,1499566198,729117991,,0.814434919444,0.187709717835,0.19354998815,0.723511141451,0.684942551486,0.0566234603314,0.0646460602065,-0.00356910918607,-0.380260555845,0.0536757313215,-0.00846870155387,-0.0225263176005,-0.52780177512,-8.80658435822,0.324117839336,1.8801214695,-0.261160314083,-3.38069939613,-0.167021051049
2017/07/09/10:09:55.934000,458060,1499566198,739124527,,0.814033587529,0.1840068443,0.193596473279,0.725132113542,0.683276245707,0.0563404723452,0.0643641292809,-0.00139903476558,-0.387885855732,0.0526385500726,-0.0150663444289,-0.0288757224654,-0.537625632068,-9.27691173553,0.176406264305,1.83333444595,-0.198483943939,-3.51937389374,-0.120497763157
2017/07/09/10:09:55.943922,458061,1499566198,749123126,,0.813851929018,0.180619205282,0.193739613694,0.726766531257,0.681564412285,0.0558215907975,0.064531472565,-0.0211725609272,-0.382089725125,0.0315995236815,0.013209614795,0.0292141654517,-0.535237398784,-9.49802970886,0.371658504009,1.38149929047,-0.145446881652,-3.63430833817,-0.0758335217834
2017/07/09/10:09:55.954235,458062,1499566198,759124374,,0.813610802751,0.177545072651,0.194213944124,0.728252643646,0.679997691774,0.0556497891834,0.0644540702295,-0.0281239710874,-0.391941678948,0.0249071840174,-0.00730834743911,0.042623532563,-0.540688635974,-9.08395671844,0.627021372318,1.17426037788,-0.252423256636,-3.46078205109,-0.119760021567
2017/07/09/10:09:55.967508,458063,1499566198,769124733,,0.814034367385,0.172888633732,0.194779176466,0.730458786956,0.677559418981,0.0556592298766,0.0651555403569,-0.00925081595402,-0.407719935733,0.0497252476446,-0.0112806265878,-0.00761698044998,-0.571619803411,-9.26258945465,0.381082624197,1.29857993126,-0.25476372242,-3.5536634922,-0.117444515228
2017/07/09/10:09:55.973967,458064,1499566198,779124936,,0.813747706275,0.169802855921,0.195350631049,0.732009715437,0.675914254679,0.0556088961454,0.0648794844082,-0.0173144584703,-0.384663286573,0.0231545125443,-0.0117154420956,0.0352536472371,-0.530968311157,-9.36231040955,0.524038255215,1.39829206467,-0.153413042426,-3.61720108986,-0.0657942518592
2017/07/09/10:09:55.983733,458065,1499566198,789121324,,0.813551023107,0.166131030825,0.195841202759,0.733442278918,0.674378539764,0.0551020503991,0.0651135365552,-0.0211502514381,-0.386633212721,0.0410654053304,-0.00731022899835,0.0352124635183,-0.52333066777,-10.15558815,0.590240895748,1.43428909779,-0.151477232575,-3.91159510612,-0.0503639578819
2017/07/09/10:09:55.993839,458066,1499566198,799122596,,0.813171133824,0.162377157811,0.195342103081,0.735380762568,0.67234406048,0.0544506016922,0.0648361809258,-0.0112413114426,-0.379632844958,0.0454718325834,-0.0178314134054,0.0176894667908,-0.511352711585,-10.5709476471,0.7603982687,1.37675392628,-0.277092516422,-4.07678794861,-0.107730425894
2017/07/09/10:09:56.004139,458067,1499566198,809127875,,0.813140162033,0.158610146224,0.196280434571,0.737161133776,0.67036628985,0.0545072297954,0.0650496901071,-0.0147960360581,-0.392712083693,0.0394451783472,-0.00831345002133,0.0188446275828,-0.53378814955,-10.60039711,0.582929253578,1.5100787878,-0.156441748142,-4.10847520828,-0.0484733730555
2017/07/09/10:09:56.014042,458068,1499566198,819125302,,0.813175183361,0.15479208185,0.196824149399,0.738778878269,0.668550847718,0.0541786648966,0.0656521538825,-0.0215792476571,-0.39314954532,0.0375011425996,-0.0245275606335,0.0375347568793,-0.532218638979,-10.9167823792,0.535137951374,1.23397672176,-0.0631257295609,-4.26733970642,-0.0106836259365
2017/07/09/10:09:56.024101,458069,1499566198,829121399,,0.813069651389,0.151466235347,0.197009934255,0.740441469238,0.666748845411,0.053963977087,0.0654239784256,-0.0186065409001,-0.368836854383,0.0305783885517,0.0110066537056,0.04029236021,-0.53397206063,-10.8168897629,0.275588512421,1.06799209118,0.0425216108561,-4.28189229965,0.00616255402565
2017/07/09/10:09:56.034023,458070,1499566198,839124158,,0.812727163584,0.149087399041,0.196889942794,0.741802991115,0.665330587636,0.0537020496965,0.0646499913931,-0.00895706176792,-0.36027801777,0.0359200958435,0.00819753270815,0.0231217833793,-0.497778812085,-11.2754039764,0.323002517223,0.920569717884,0.194255799055,-4.47034740448,0.122304335237
2017/07/09/10:09:56.043772,458071,1499566198,849122416,,0.812727059417,0.144129480286,0.19763221175,0.743626035436,0.66324522298,0.0531332061429,0.0655969208274,-0.00628731325382,-0.355458442227,0.0406566762537,-0.00977718678585,0.0172703148871,-0.491949559767,-11.3948316574,-0.334318131208,0.902597308159,0.307520389557,-4.54656219482,0.11902295053
2017/07/09/10:09:56.053982,458072,1499566198,859118413,,0.812704292634,0.141431545025,0.198466082317,0.745114989967,0.661595840341,0.0530432667536,0.0654294094578,-0.011658405996,-0.348425337618,0.0385611818246,-0.00485775404926,0.036367307782,-0.486941399565,-11.9327144623,0.323747873306,1.07690548897,0.0553573891521,-4.77842569351,0.0684074610472
2017/07/09/10:09:56.063743,458073,1499566198,869124575,,0.81274524468,0.138105441506,0.198327876686,0.746847416003,0.659673201802,0.05270396372,0.0653643346347,-0.00827445011241,-0.358472502971,0.0374705107997,-0.0302940003579,0.044151754716,-0.499508841989,-12.4333200455,0.512378633022,0.766493022442,-0.0861954241991,-4.99169063568,0.00727292895317
2017/07/09/10:09:56.074062,458074,1499566198,879132147,,0.812578030687,0.134934934651,0.198385273574,0.748140081531,0.658274512919,0.0521030396042,0.065164079919,-0.0133589738805,-0.344164205499,0.021059759109,-0.0107370585956,0.0644934460797,-0.490506264083,-12.4953508377,0.594673514366,0.761639893055,-0.132939472795,-5.00410747528,0.0404380112886
2017/07/09/10:09:56.084078,458075,1499566198,889126570,,0.81224950657,0.132024873849,0.198109573417,0.749330030867,0.657009774133,0.0511850736177,0.0649826882552,-0.0259658157189,-0.337783105787,0.0133192838591,-0.0163574882378,0.104749609532,-0.473377209946,-12.474656105,0.80823725462,0.643661022186,-0.0646376535296,-5.05458068848,0.0765960663557
2017/07/09/10:09:56.093955,458076,1499566198,899125748,,0.811996418427,0.128425177949,0.198741158381,0.751070974498,0.655044254219,0.050752364611,0.0650662260169,-0.0237811960101,-0.349983018733,0.021957724395,-0.0534943388441,0.0984342321798,-0.470067837777,-12.3838615417,0.87787938118,0.601814568043,-0.0627482458949,-5.05026721954,0.0254586040974
2017/07/09/10:09:56.104033,458077,1499566198,909134227,,0.811221068587,0.124400799804,0.198599738375,0.752318557237,0.653748159504,0.0489290446209,0.0650851824453,-0.0328733108149,-0.367803425999,0.0139378318308,-0.0820804656399,0.129706658143,-0.460253964904,-12.6058797836,0.606940031052,0.457991451025,0.0699159651995,-5.19179058075,0.107427954674
2017/07/09/10:09:56.113994,458078,1499566198,919126866,,0.811123989624,0.120407599439,0.19826377129,0.754481248481,0.651324755034,0.0481726689265,0.0649115023618,-0.0474949773039,-0.354187973823,0.00212011746866,-0.0582205567783,0.19168649012,-0.468654032458,-12.3195199966,0.711104631424,0.168225944042,0.000713884830475,-5.16494274139,0.0840320289135
2017/07/09/10:09:56.124128,458079,1499566198,929125285,,0.810958315963,0.117573240684,0.199047426681,0.75580886349,0.649832783744,0.0476440316194,0.0648101943631,-0.0313505951056,-0.356057861647,0.00958362945245,-0.060866247062,0.15324630341,-0.472169280623,-11.7111845016,0.633840084076,0.332543700933,-0.023664817214,-5.01880264282,0.0929909944534
2017/07/09/10:09:56.134020,458080,1499566198,939122396,,0.810800817079,0.114533236577,0.198953964493,0.756852224044,0.64870766195,0.0466492520929,0.0646291541542,-0.0375498035097,-0.35886157502,0.00666117519157,-0.0566397528129,0.173515846577,-0.481996017267,-11.8107662201,0.877635002136,0.495773643255,-0.20367628336,-5.11107683182,0.0799346268177
2017/07/09/10:09:56.143946,458081,1499566198,949117755,,0.810576706549,0.111021217859,0.199002008564,0.758265542396,0.64714074945,0.0455242759012,0.0645736627488,-0.0339078041425,-0.334740200769,0.00246829348296,-0.0645239989393,0.190860075604,-0.436244890177,-11.5140705109,0.905680775642,0.130709141493,-0.325243532658,-5.02443981171,0.0123308300972
2017/07/09/10:09:56.153965,458082,1499566198,959123051,,0.810527890312,0.10857818613,0.199470363512,0.759198394594,0.646103518551,0.0446874061752,0.0645838733163,-0.0333518412092,-0.35239163231,0.0164824644765,-0.111248966018,0.190017545772,-0.433067733928,-11.3313951492,1.25916266441,-0.186596080661,-0.448478400707,-4.95952558517,-0.0211465805769
2017/07/09/10:09:56.163992,458083,1499566198,969125529,,0.809813584971,0.104122502158,0.19908632688,0.761114891309,0.643993949423,0.0429856276406,0.0642506898885,-0.0292362446287,-0.35063756623,0.00760804703793,-0.12094901582,0.193901498672,-0.424854801025,-10.770570755,0.4597915411,-0.361407220364,-0.200872048736,-4.64999103546,0.0378663092852
2017/07/09/10:09:56.174062,458084,1499566198,979117640,,0.809923238261,0.100918312285,0.199236849918,0.762265405957,0.642676421722,0.0417691957503,0.0646049698537,-0.0172268140702,-0.362638870305,0.00528280019752,-0.153129164868,0.178122639879,-0.425342847918,-9.47003173828,0.616173744202,-0.291035711765,-0.244311586022,-4.16821861267,-0.0177380591631
2017/07/09/10:09:56.184131,458085,1499566198,989125237,,0.809636200048,0.0976355352754,0.199295600504,0.763378484329,0.641456974819,0.0405147726013,0.0643800615099,-0.0370680639637,-0.392971366989,0.00242722114654,-0.184474943694,0.22297447412,-0.438473602724,-9.91006469727,0.916136264801,-0.460298031569,-0.260259032249,-4.30707550049,0.00334458053112
2017/07/09/10:09:56.194023,458086,1499566198,999122613,,0.809557924358,0.0938563020132,0.199540870734,0.764958002756,0.639625204145,0.0394110295356,0.0645416376692,-0.0256640724426,-0.342725191622,0.00116611405581,-0.147754287991,0.217407898176,-0.38503151888,-9.01596260071,0.603319048882,0.115456223488,-0.211581736803,-3.93962287903,0.0309943854809
2017/07/09/10:09:56.204000,458087,1499566199,9124983,,0.80984341758,0.0918454291253,0.200184169117,0.765147959564,0.639447000428,0.0380862178156,0.0648503942154,-0.0249498250755,-0.351760481914,0.0191830220925,-0.160340782214,0.210755421682,-0.402067305432,-9.04922771454,1.74764072895,0.26809206605,-0.452949762344,-3.97215533257,-0.0284616202116
2017/07/09/10:09:56.213805,458088,1499566199,19127955,,0.809080647547,0.0873366707061,0.199954214949,0.766738729303,0.637652272718,0.0358464196362,0.0650102629093,-0.0195433364171,-0.369156911183,0.0273227608176,-0.232778109763,0.204643312481,-0.377067092651,-9.27228832245,1.22329473495,-0.0163892656565,-0.392327308655,-4.01395511627,0.0194692611694
2017/07/09/10:09:56.223875,458089,1499566199,29120646,,0.808671570317,0.0839809680111,0.19934643325,0.767906037769,0.636383284582,0.0340655457292,0.0646232996433,-0.0246795724457,-0.383072169045,0.00376855245662,-0.237470053289,0.223738793133,-0.40443155172,-9.02100276947,1.25800538063,-0.325268268585,-0.43407702446,-3.90556550026,-0.0166571438313
2017/07/09/10:09:56.234048,458090,1499566199,39124180,,0.8088843815,0.0806363390833,0.200048601641,0.768991566641,0.635059875925,0.0330134588003,0.065276611145,-0.0154990820406,-0.367718794492,0.0149949384876,-0.229534506747,0.198873990085,-0.365926701432,-7.93472766876,0.836839318275,0.126365378499,-0.260100007057,-3.36806726456,0.0076991468668
2017/07/09/10:09:56.243966,458091,1499566199,49129397,,0.80839903672,0.0768116163552,0.200178745408,0.770212327408,0.633658117036,0.0311001420154,0.0654457224641,-0.0165148050443,-0.35473142518,0.0180353887855,-0.208833145624,0.206933737079,-0.378901106393,-7.97334241867,0.576315820217,0.402653992176,-0.249127745628,-3.29107236862,0.0337652415037
2017/07/09/10:09:56.253915,458092,1499566199,59127305,,0.807957872638,0.0730874166506,0.199980600821,0.771361911233,0.632349276153,0.0291144127733,0.0654793541176,-0.0246674032153,-0.364244355828,0.0186431666691,-0.255064540457,0.235221207879,-0.375737058873,-7.03132247925,0.680628120899,0.109538584948,-0.244353145361,-3.00877141953,-0.0145311206579
2017/07/09/10:09:56.266108,458093,1499566199,69118283,,0.80787031597,0.069961126211,0.200466955476,0.771968986537,0.631627616982,0.0269279282846,0.0662217786614,-0.0334808824965,-0.358795659651,0.0131101286562,-0.256091560846,0.27191738684,-0.363746445659,-7.02120304108,0.953676104546,0.0884223952889,-0.312002062798,-3.04011368752,0.0161148905754
2017/07/09/10:09:56.274135,458094,1499566199,79127002,,0.807712653222,0.0658039379867,0.200589199738,0.773321611495,0.630012142575,0.0250910461679,0.0665494162698,-0.0430045774364,-0.365568240481,0.0342311609594,-0.288699758986,0.288613466987,-0.355878435599,-6.61266899109,0.861003398895,-0.383719921112,-0.334968239069,-2.97097730637,0.00365817546844
2017/07/09/10:09:56.284080,458095,1499566199,89119194,,0.807134012035,0.0626269440594,0.200861189421,0.774308961446,0.628887330647,0.0232679601803,0.0663698697072,-0.042281657369,-0.364759493195,0.0206081829135,-0.265128911584,0.285581161632,-0.370322073218,-6.04662847519,0.913595795631,-0.336117714643,-0.461466908455,-2.66934418678,-0.0441839247942
2017/07/09/10:09:56.293979,458096,1499566199,99135480,,0.806909191783,0.0595130316127,0.200947051653,0.775323884139,0.627696388428,0.0215392467138,0.0663790591167,-0.0362077117727,-0.351588498424,0.0246783826884,-0.252812815332,0.268299284915,-0.360306653583,-5.04903554916,1.06458449364,-0.28661519289,-0.466174721718,-2.27597093582,-0.0691085532308
2017/07/09/10:09:56.303853,458097,1499566199,109119354,,0.8064005933,0.0563377611711,0.200990401121,0.776514269954,0.626286826392,0.0195353925773,0.0663985548309,-0.0374730599657,-0.342872706125,0.0188551455502,-0.251696549352,0.274667450337,-0.359001850809,-4.86132049561,0.854703485966,-0.0553513281047,-0.345992028713,-2.2067387104,-0.019719094038
2017/07/09/10:09:56.313877,458098,1499566199,119146710,,0.806126378338,0.0523309224578,0.201242030736,0.777677813051,0.624831925394,0.0172677046852,0.067112669974,-0.0409093185021,-0.328714299462,0.00956288819645,-0.242087605133,0.295082892999,-0.354210973316,-4.47235631943,0.459070026875,0.206956163049,-0.270583301783,-2.00825166702,-0.0262989550829
2017/07/09/10:09:56.323783,458099,1499566199,129118655,,0.804994689511,0.0494170779186,0.201067892152,0.778325781476,0.624158279563,0.0148088820277,0.0664538708836,-0.0606442612878,-0.331910714372,0.00742217091037,-0.253842189779,0.346851321425,-0.338038400682,-4.76323127747,0.130792498589,-0.138923078775,-0.200623810291,-1.95853698254,-0.0136904120445
2017/07/09/10:09:56.334098,458100,1499566199,139121321,,0.804402275925,0.0469653576896,0.200584855773,0.779174565493,0.623213647561,0.0126541480766,0.0658150326198,-0.0688483554954,-0.331225277006,0.00564550384832,-0.235788361103,0.35501591109,-0.353100365787,-3.48710012436,0.784685790539,-0.048632401973,-0.306231319904,-1.56835949421,-0.0584244206548
2017/07/09/10:09:56.344319,458101,1499566199,149119644,,0.804509418694,0.0442379333102,0.20162334042,0.780305866275,0.621782302286,0.0116982504003,0.0661262017511,-0.0507935157426,-0.319371698713,0.0269869754282,-0.212598514794,0.295280534148,-0.373735932088,-2.88212966919,0.795208930969,0.0400646552444,-0.31518432498,-1.2909604311,-0.0841119363904
2017/07/09/10:09:56.354036,458102,1499566199,159117823,,0.803974385926,0.0414119232887,0.201823510865,0.781267369905,0.620625261691,0.00990334811161,0.0659356123037,-0.0356870124285,-0.313641442939,0.0381226482536,-0.194741814721,0.245501282768,-0.374903053512,-0.895460247993,0.655709147453,0.220361590385,-0.21854943037,-0.485046386719,-0.113151177764
2017/07/09/10:09:56.364081,458103,1499566199,169159085,,0.80366574435,0.038419203995,0.20226642701,0.78223093828,0.619427569579,0.00824764527174,0.0660016786927,-0.042957544088,-0.317183010911,0.0200680507554,-0.187185942577,0.268786232939,-0.386269132314,-0.464273869991,0.269326716661,0.360758781433,-0.222286254168,-0.280235350132,-0.187970221043
2017/07/09/10:09:56.374047,458104,1499566199,179133034,,0.803369425101,0.0352395013715,0.202385361057,0.783331251801,0.618049161318,0.00673633140971,0.0660454842167,-0.0438646288073,-0.302027706778,0.0156930751724,-0.181105400819,0.275991861878,-0.365452341739,-0.817101657391,0.193296194077,0.575106322765,-0.141478389502,-0.399564862251,-0.148259684443
2017/07/09/10:09:56.383981,458105,1499566199,189117230,,0.803210837698,0.0320887343146,0.202601003721,0.784507257705,0.616540186322,0.00513728958789,0.0663337735546,-0.0496620329203,-0.308291585813,0.0236609613113,-0.196341427902,0.27218478618,-0.364936829489,-0.594710350037,-0.214096605778,0.841857612133,0.0923249796033,-0.317750006914,-0.113451495767
2017/07/09/10:09:56.393864,458106,1499566199,199119450,,0.802541924909,0.0297583722136,0.20262771386,0.785259939031,0.615645691043,0.00335276944879,0.0658480841861,-0.0417815187449,-0.304523927284,0.0316040688322,-0.197134467482,0.253822872755,-0.364138797566,-0.824730455875,-0.093054831028,0.853403329849,0.0884890854359,-0.324041366577,-0.100169271231
2017/07/09/10:09:56.403657,458107,1499566199,209119556,,0.801972111758,0.0269127561163,0.202821157267,0.786289246317,0.614359245377,0.00146547828395,0.0656489993748,-0.0426474816915,-0.302837530483,0.0353117377112,-0.18329116555,0.244644477967,-0.38016208399,-0.959894061089,-0.225408598781,0.534190833569,0.152542233467,-0.407629191875,-0.0816137194633
2017/07/09/10:09:56.414162,458108,1499566199,219121657,,0.802011756326,0.0244185547319,0.203298559466,0.787414433814,0.612905822885,0.00070353849865,0.0657606776717,-0.0320718287131,-0.292155428728,0.0320210699422,-0.15453380655,0.224324104387,-0.382322916761,-0.108167186379,0.42905330658,0.0767706036568,-0.0727560669184,-0.164069905877,-0.158150479198
2017/07/09/10:09:56.423899,458109,1499566199,229148454,,0.801759662962,0.0216775919362,0.203587401182,0.788866119334,0.611061590401,-0.000698728912077,0.0655247303067,-0.0375619770511,-0.276866085559,0.0232675016279,-0.127615105935,0.236798535259,-0.381232285166,1.18017482758,0.0789065361023,0.432133555412,-0.0926574021578,0.292942047119,-0.21746852994
2017/07/09/10:09:56.433887,458110,1499566199,239123105,,0.801489361438,0.0193153084893,0.203480606693,0.789283280713,0.610554457167,-0.00195403094144,0.0652022958435,-0.0329635037855,-0.266979901219,0.02667416461,-0.117567560282,0.221513514357,-0.376401272257,0.627902269363,0.512305498123,-0.238418504596,-0.274293005466,0.0928881913424,-0.24470756948
2017/07/09/10:09:56.444020,458111,1499566199,249118776,,0.801104527944,0.016479883988,0.203878881213,0.791155161106,0.608146792112,-0.0030124262108,0.0649762694104,-0.0343743779743,-0.254810403183,0.0296546920176,-0.0768164955765,0.203314976379,-0.374551715904,1.77190279961,0.207000225782,0.628976881504,-0.153436049819,0.481307148933,-0.241120934486
2017/07/09/10:09:56.453812,458112,1499566199,259124906,,0.801263884886,0.0154556857276,0.203912774973,0.791418465666,0.607857836145,-0.00359264233668,0.0644418820469,-0.0177446189299,-0.249250779798,0.026609099785,-0.0742805779876,0.162464845515,-0.380524727738,2.04162025452,0.628833711147,0.737708926201,-0.132986992598,0.572779238224,-0.218290477991
2017/07/09/10:09:56.463923,458113,1499566199,269123912,,0.800403092563,0.0119562310447,0.203923303505,0.793064383924,0.605749990342,-0.00496075821339,0.063962669031,-0.01078198427,-0.276161096665,0.0484452815129,-0.0814497146082,0.104107973247,-0.429215457394,0.737036764622,-0.368703126907,0.303656280041,0.167051061988,0.161650925875,-0.140633925796
2017/07/09/10:09:56.473975,458114,1499566199,279124026,,0.800589943505,0.00912202283471,0.20451413828,0.794102349466,0.604334586774,-0.00571726452969,0.0644086848837,-0.0233761539866,-0.276590621158,0.0327979459746,-0.0827634200248,0.131670881137,-0.417102614587,0.770931303501,-0.394939482212,0.361302852631,0.0628785640001,0.198877036572,-0.160494446754
2017/07/09/10:09:56.483711,458115,1499566199,289120486,,0.801071090871,0.0073937722403,0.205113187961,0.795031196692,0.603088712395,-0.00571030869075,0.0646281180535,-0.0180064479764,-0.252771251862,0.022503216937,-0.0725826116901,0.138806129904,-0.388101753483,2.35366749763,0.638672709465,0.471989989281,-0.161299169064,0.785420656204,-0.28109934926
2017/07/09/10:09:56.494221,458116,1499566199,299122114,,0.800525478406,0.00488974589229,0.20487493243,0.796380896846,0.601375300884,-0.00660650102058,0.0638871565296,-0.00271890005135,-0.219558667138,0.0229271331012,-0.0404936348382,0.108892604007,-0.347114544516,2.89560890198,-0.433947205544,0.606662690639,0.161101847887,1.13024330139,-0.248389601707
2017/07/09/10:09:56.503954,458117,1499566199,309120957,,0.800238402577,0.00181988341386,0.205701452169,0.797651034917,0.599648248221,-0.00744818023096,0.0641820030304,-0.00529546718418,-0.239460935659,0.022036521477,-0.0349343892366,0.088327079142,-0.383859307157,2.54912447929,-0.740751028061,0.795084416866,0.192252472043,1.07142710686,-0.291313201189
2017/07/09/10:09:56.513973,458118,1499566199,319126369,,0.80006099862,-0.000454615721268,0.206070089231,0.798702226085,0.598268877057,-0.00794234162921,0.0639220149969,-0.0358972762678,-0.243769320441,0.0299621604827,-0.00980909116086,0.137518590257,-0.418592914374,3.15491700172,-0.815953910351,1.33460748196,0.301084816456,1.17505192757,-0.26509308815
2017/07/09/10:09:56.523998,458119,1499566199,329120916,,0.800436413779,-0.00149809181667,0.206313748197,0.79953008206,0.597193600199,-0.00797006533242,0.0636233433657,-0.0205902426359,-0.260834265685,0.0580210155558,-0.0569616057752,0.0777431100956,-0.414812682478,2.27462553978,0.500649511814,0.868563294411,0.0168435722589,0.698205471039,-0.219139903784
2017/07/09/10:09:56.534811,458120,1499566199,339131336,,0.799920471598,-0.00479659622318,0.206974119831,0.800810382665,0.59544256685,-0.00904819096174,0.0637887987032,-0.00879630238832,-0.224390019862,0.0523103946487,-0.0214643124838,0.0665447469393,-0.401042512699,2.85934615135,-0.659416377544,0.88550901413,0.183885365725,0.934644281864,-0.266627669334
2017/07/09/10:09:56.544089,458121,1499566199,349121597,,0.800415183841,-0.00599715773848,0.20733927765,0.801600251704,0.59439605763,-0.00873447526015,0.0636715955812,-0.00814022524421,-0.222085123971,0.0477178689128,0.00122554534495,0.054510456166,-0.391567952127,3.48846411705,-0.151352927089,0.493361592293,0.123452812433,1.09308838844,-0.267027556896
2017/07/09/10:09:56.553837,458122,1499566199,359126072,,0.79964554976,-0.00855005440987,0.207634789863,0.802965638308,0.592610215217,-0.00937510992822,0.0630192338146,-0.00431546846069,-0.217812786535,0.0312494089809,0.00957246878844,0.0408897180371,-0.380129588791,3.80644822121,-0.793329954147,0.479643672705,0.18393021822,1.26293110847,-0.297583162785
2017/07/09/10:09:56.564009,458123,1499566199,369126663,,0.799777621868,-0.0107861079845,0.207584456391,0.803911186688,0.591316617591,-0.00968641034706,0.0630684955693,-0.0215854232463,-0.245594192804,0.0301670340438,-0.00232718886422,0.0494621070967,-0.421108045496,4.72726392746,-0.770461916924,0.183507651091,0.192575469613,1.57399427891,-0.346096545458
2017/07/09/10:09:56.574038,458124,1499566199,379125030,,0.799518047771,-0.0132517956097,0.208142771445,0.805203305467,0.589566408096,-0.00983279491354,0.0629476246833,-0.0233847665559,-0.228548512005,0.0236019963161,0.0207401941443,0.0588796705617,-0.391334987357,4.49487018585,-1.03929173946,0.828224539757,0.312180995941,1.59368395805,-0.308805376291
2017/07/09/10:09:56.583722,458125,1499566199,389122240,,0.799770268097,-0.0147359108793,0.208753644286,0.806228016247,0.588179346466,-0.00955665512899,0.0628499208536,-0.0223065567078,-0.225642435945,0.0264201467438,0.0180595319583,0.050204500094,-0.38769449754,4.75080871582,-0.303597837687,1.24154174328,0.196639090776,1.66518723965,-0.340115010738
2017/07/09/10:09:56.593970,458126,1499566199,399125058,,0.799053780124,-0.0167886578903,0.208067500215,0.80740108427,0.586642567297,-0.0102257532599,0.0620437049553,-0.0157998115185,-0.218636187586,0.0330073001292,0.00428745477528,0.0270384862477,-0.37693991184,4.67362642288,-0.468206048012,0.641251146793,0.180180102587,1.77144110203,-0.359463334084
2017/07/09/10:09:56.603987,458127,1499566199,409118206,,0.799354228517,-0.0191023336961,0.209493719325,0.80845516241,0.585129871269,-0.0100645827089,0.0626257798122,-0.0126716418974,-0.234070966221,0.0378110442012,-0.00781330917166,-0.00176644909829,-0.398612624977,5.56852388382,-1.04349112511,1.66814029217,0.429041594267,2.12557649612,-0.389391958714
2017/07/09/10:09:56.613730,458128,1499566199,419124751,,0.799393289911,-0.0208624589401,0.209706753811,0.809599850107,0.583585974602,-0.00976019618592,0.0622915044316,-0.0109624845448,-0.23742245177,0.0614444140676,-0.00446975709949,-0.0246032252724,-0.407009406082,6.14121294022,-1.49813556671,1.24789977074,0.651884317398,2.32917761803,-0.414982795715
2017/07/09/10:09:56.624021,458129,1499566199,429127447,,0.799051017898,-0.0237830311065,0.21027716095,0.810862769162,0.58181216569,-0.00994840281452,0.0624275798359,-0.00708787907401,-0.206521467125,0.0357523319337,0.0439697397677,-0.0104139850384,-0.396093881193,6.07685804367,-2.04877066612,1.325776577,0.763107419014,2.26863431931,-0.374006509781
2017/07/09/10:09:56.633798,458130,1499566199,439120538,,0.799037724918,-0.0252794947908,0.210369937271,0.811822715658,0.580513737862,-0.00976246737248,0.0620674852579,-0.0175375542451,-0.207395521255,0.0291134964926,0.0662720217506,0.0036406917174,-0.406876034449,5.14080619812,-1.29759955406,0.640017867088,0.601206541061,1.80350363255,-0.326578706503
2017/07/09/10:09:56.643869,458131,1499566199,449124591,,0.798669417009,-0.0269396437935,0.210358125292,0.813066736761,0.578840030027,-0.00970027932091,0.0614215417644,-0.0253191203129,-0.205142495969,0.0328335768406,0.061381181528,0.0125177869404,-0.384844933438,4.97040700912,-0.884464263916,0.854860067368,0.427664577961,1.67544698715,-0.314293116331
2017/07/09/10:09:56.654043,458132,1499566199,459128209,,0.798596912271,-0.0292044752117,0.211061959928,0.813889133099,0.577673310377,-0.00952900002222,0.0615404229778,-0.0126509986419,-0.219636566131,0.0487875507917,0.0609879358357,-0.0547913148203,-0.394061691822,5.8739938736,-1.21515667439,1.00006496906,0.524990618229,2.06195497513,-0.367505252361
2017/07/09/10:09:56.664325,458133,1499566199,469122760,,0.79910542403,-0.0310651022097,0.211793674525,0.815065355467,0.57600155198,-0.00851340197633,0.0617915885895,-0.00664012632988,-0.202702880455,0.0332354484528,0.0790937095099,-0.0595356434327,-0.368668360015,7.27887439728,-1.78836357594,1.94342148304,0.705431759357,2.56178712845,-0.402270913124
2017/07/09/10:09:56.674025,458134,1499566199,479126476,,0.797920008683,-0.0337317687059,0.21139383934,0.816490655385,0.574045027489,-0.00914488031412,0.0610875375777,-0.0229396145007,-0.211165603695,0.0351353926051,0.0507517967274,-0.0315268577481,-0.386095719188,7.31938266754,-1.59788322449,0.753152191639,0.623657226562,2.64892196655,-0.448616087437
2017/07/09/10:09:56.683847,458135,1499566199,489121285,,0.797919747167,-0.0350171912768,0.211133597088,0.817149647687,0.573150872623,-0.00907812560299,0.0606804592346,-0.0325784822174,-0.201230469465,0.00982959749956,0.0852526692207,-0.00279373327346,-0.393684909299,6.33320903778,-0.935170471668,0.490307450294,0.424553215504,2.22524619102,-0.38824814558
2017/07/09/10:09:56.693961,458136,1499566199,499122790,,0.797577112173,-0.0378074463446,0.211778029928,0.818549065879,0.571124810909,-0.00879752384102,0.0609629451971,-0.024796939568,-0.202262917666,0.0143249362752,0.0729664779306,-0.0250423774271,-0.367164397316,7.0153427124,-1.60357093811,0.899719297886,0.650161981583,2.55459403992,-0.402186989784
2017/07/09/10:09:56.704010,458137,1499566199,509123848,,0.796929128087,-0.0399585469351,0.211818178095,0.819694439248,0.569525975535,-0.00881817831507,0.0605262685755,-0.0130003274968,-0.213187502854,0.0242864622268,0.0589051678201,-0.073955472111,-0.377356268779,6.30512523651,-1.80615627766,1.69694328308,0.661958932877,2.45738816261,-0.41209179163
2017/07/09/10:09:56.713912,458138,1499566199,519125219,,0.796905812115,-0.041627702297,0.211586116301,0.820711012582,0.568099627879,-0.00849280992095,0.0602006545624,-0.0322188547253,-0.228228417404,0.0290602278751,0.0299840162922,-0.0478322634207,-0.397316217415,7.25009202957,-1.73506116867,1.82676136494,0.796843826771,2.73124432564,-0.408030629158
2017/07/09/10:09:56.723851,458139,1499566199,529120482,,0.79644503938,-0.0441989064872,0.212061990702,0.821860313088,0.566438006642,-0.00820669697339,0.0602184400925,-0.0430018848689,-0.226723474527,0.011823470882,0.0570963917716,-0.0188915630358,-0.388142185413,5.93313264847,-1.44389379025,1.5040653944,0.601356863976,2.26010704041,-0.413437724113
2017/07/09/10:09:56.733833,458140,1499566199,539117838,,0.795802354216,-0.0460310599717,0.212168754881,0.822756668778,0.565167508904,-0.00850973651347,0.0598726585787,-0.066017087505,-0.219700996138,0.0069667840475,0.0733007154612,0.0323942835482,-0.382803718817,6.04407501221,-1.30728554726,1.45412456989,0.577488422394,2.2070376873,-0.371322482824
2017/07/09/10:09:56.744126,458141,1499566199,549117131,,0.794958987913,-0.0486819396406,0.211954546156,0.823914607353,0.563492391429,-0.0088256553355,0.0596921468839,-0.0599222419515,-0.231071107304,0.00841955667619,0.0506712039206,0.00380247935216,-0.404524526732,6.14099645615,-1.3093354702,0.872737288475,0.520882666111,2.24439024925,-0.407577723265
2017/07/09/10:09:56.754057,458142,1499566199,559131659,,0.794755823737,-0.0510201312144,0.212464036953,0.824927013016,0.561967489342,-0.00868021320523,0.0601050581711,-0.0732201023059,-0.241714845692,-0.000660011739626,0.0344760030766,0.0263303913075,-0.401058943467,7.27189207077,-1.64511215687,1.55372440815,0.660841524601,2.55965328217,-0.438993215561
2017/07/09/10:09:56.763954,458143,1499566199,569125596,,0.794354053884,-0.0516713988407,0.212280723748,0.825572347144,0.561107947454,-0.00853197717693,0.0592906088794,-0.063335409831,-0.239870434045,0.0174659125632,0.00109127014796,0.00442868194642,-0.370537032158,7.41025447845,-1.05834472179,1.13940656185,0.645381629467,2.58750891685,-0.422437697649
2017/07/09/10:09:56.773863,458144,1499566199,579119465,,0.793418806812,-0.0557239416474,0.213048710087,0.826890634741,0.559075961932,-0.00868795654907,0.06008715652,-0.0721164101301,-0.241759874221,0.0175767989973,0.0269663431466,-5.24145148362e-05,-0.385486274974,6.88109302521,-2.64161515236,1.84905767441,0.95520234108,2.45268535614,-0.37096118927
2017/07/09/10:09:56.785848,458145,1499566199,589124690,,0.792630703644,-0.0578962810382,0.212569836363,0.828246158771,0.557145985411,-0.00851066176164,0.0593651417755,-0.0636594583418,-0.235075337257,0.00735447545236,0.0325636829935,-0.0167214442727,-0.38502115508,6.54014778137,-2.53868341446,1.20849847794,0.866470217705,2.40430927277,-0.363125145435
2017/07/09/10:09:56.793851,458146,1499566199,599123445,,0.791608968233,-0.0607518871476,0.21236487332,0.829209267756,0.555691180201,-0.00916224552936,0.0594588578047,-0.0763473153016,-0.246424607132,8.33479898336e-05,0.0265068552959,0.00149489780607,-0.40872258427,5.38304519653,-2.38702273369,0.817612826824,0.77355158329,2.02731752396,-0.34464687109
2017/07/09/10:09:56.803978,458147,1499566199,609140916,,0.791042994167,-0.0627121611174,0.212125064017,0.83022136287,0.554228959207,-0.00880143678756,0.0590362949477,-0.081702127674,-0.248661298906,-0.000441363844008,0.029089714856,0.00453457762716,-0.371333063165,4.66918325424,-1.42872786522,0.719971001148,0.505758523941,1.74188005924,-0.28833258152
2017/07/09/10:09:56.814204,458148,1499566199,619125309,,0.790362459975,-0.0655373289901,0.212553374767,0.830925425839,0.553092192543,-0.00919817523652,0.0597273539897,-0.0917115469254,-0.271975527044,0.0019882626791,-0.0284427734776,0.0200151944851,-0.3767091829,6.04927062988,-1.58385908604,1.38742411137,0.59654289484,2.32204651833,-0.387147843838
2017/07/09/10:09:56.823871,458149,1499566199,629125965,,0.788829910653,-0.068352062042,0.212159766375,0.832200627715,0.551207378378,-0.0100459187217,0.059258929863,-0.0820769265236,-0.253239590431,0.00235450980891,-0.0327095917003,0.0098315109863,-0.36446116718,5.51416349411,-1.75891602039,0.847519814968,0.517262578011,2.21661114693,-0.40204846859
2017/07/09/10:09:56.834000,458150,1499566199,639124780,,0.788078342237,-0.0703082787892,0.212106670774,0.833008182017,0.549995585072,-0.010283637226,0.0591309724238,-0.0982222781226,-0.249326476665,-0.00998562046355,-0.0210812448776,0.0486371100464,-0.373497852674,5.1249628067,-1.48822021484,0.487713336945,0.462031304836,1.98527729511,-0.42096722126
2017/07/09/10:09:56.844437,458151,1499566199,649124192,,0.786858167839,-0.0724114521496,0.211847516582,0.833691505688,0.548996808892,-0.0108029231355,0.058687937617,-0.118997258108,-0.265462555249,-0.0100915618864,-0.0346417115604,0.0831678885894,-0.384569653322,3.81815648079,-0.483785361052,-0.0301670879126,0.199645802379,1.38561451435,-0.412863910198
2017/07/09/10:09:56.854080,458152,1499566199,659124909,,0.786545410362,-0.0751002542968,0.212374637711,0.834714092213,0.547351372671,-0.0105300700149,0.0595648950448,-0.112605839777,-0.272795544919,0.00118729526313,-0.0290448568868,0.0431099031825,-0.371089453271,3.23888969421,-0.532140493393,0.518050968647,0.291904449463,1.05853581429,-0.341381669044
2017/07/09/10:09:56.864081,458153,1499566199,669124984,,0.785076325625,-0.0776036481312,0.212046679685,0.835938776879,0.545529585451,-0.0110003730044,0.059015459845,-0.0963815428329,-0.248376060097,-0.00993478858993,0.00732551706349,0.0139950058574,-0.363756896892,3.24666547775,-0.901135206223,0.559323310852,0.333112686872,1.10943830013,-0.374007582664
2017/07/09/10:09:56.873926,458154,1499566199,679121113,,0.784583650523,-0.0793503951173,0.211568056823,0.836637516109,0.544527434634,-0.0103872134197,0.0584777339386,-0.105331917462,-0.2583355054,-0.0250140308291,0.0310995263271,0.0191535738803,-0.383021931578,2.15615749359,0.167137682438,0.523497104645,-0.0340043455362,0.615314483643,-0.314764618874
2017/07/09/10:09:56.884011,458155,1499566199,689119689,,0.783413577857,-0.0822827182842,0.210896857256,0.837850312731,0.542657006444,-0.0108576649297,0.0584152199923,-0.104095101322,-0.265477865167,-0.0380679812311,0.0522672554514,0.000628620319737,-0.39909616219,1.63813364506,-0.487810343504,-0.0235095620155,0.00121146440506,0.604763150215,-0.317745506763
2017/07/09/10:09:56.893931,458156,1499566199,699133519,,0.782079957785,-0.084544766467,0.21047777918,0.83875518133,0.541284301761,-0.0114857412964,0.0580441918392,-0.0908815972199,-0.238096018494,-0.0445770342679,0.0421737248002,-0.00126822617069,-0.352036658706,1.26061892509,-0.19979262352,0.169871911407,-0.0756867676973,0.503179728985,-0.285949647427
2017/07/09/10:09:56.903719,458157,1499566199,709119938,,0.782046273982,-0.087260795324,0.210779954692,0.839762402469,0.539636025221,-0.0105726337276,0.0589939581605,-0.0933306501706,-0.247921653401,-0.0388360323122,0.0134791741173,-0.00484397969662,-0.35126514371,0.600151896477,0.170290887356,0.377654254436,-0.176012217999,0.238568723202,-0.25610679388
2017/07/09/10:09:56.913938,458158,1499566199,719123971,,0.780669189642,-0.0896807789983,0.210344509629,0.840742927853,0.538173371321,-0.01056096524,0.0583885064039,-0.0738107931908,-0.227375539895,-0.0215803506817,0.00961901302704,-0.0463452097193,-0.312661891501,1.27635848522,-0.295567005873,-0.02884362638,-0.0567954704165,0.563788056374,-0.309774011374
2017/07/09/10:09:56.923707,458159,1499566199,729117960,,0.780248480817,-0.0918853388706,0.209888026247,0.841451467122,0.537019752348,-0.010575609717,0.0587994094078,-0.0902662928824,-0.242924130732,-0.0417554834755,0.0301868570742,-0.0246212771758,-0.343184428358,1.86173963547,-0.169435918331,0.0974267870188,0.0576943308115,0.716982722282,-0.316295921803
2017/07/09/10:09:56.933908,458160,1499566199,739124855,,0.778739341555,-0.0940273532813,0.208785951095,0.841991467548,0.536238938744,-0.0112989620604,0.0580560298884,-0.107203073997,-0.24588607546,-0.0647217336234,0.0274621079668,0.0296497414497,-0.339932978237,1.04868102074,-0.174773752689,-0.42129868269,-0.0175449997187,0.475495278835,-0.331604361534
2017/07/09/10:09:56.943930,458161,1499566199,749122996,,0.778052425318,-0.0956427297224,0.208659013414,0.842705368865,0.53514033885,-0.0111546077406,0.0578623690135,-0.101935953595,-0.217363563453,-0.0537243265572,0.0297913078639,0.0358659424887,-0.291799433667,0.896854877472,0.525713324547,-0.337565481663,-0.208397254348,0.344951450825,-0.343204826117
2017/07/09/10:09:56.954004,458162,1499566199,759125064,,0.77627010255,-0.0985597456026,0.208210118512,0.843692280927,0.533595714025,-0.0119776802878,0.0575802418544,-0.108102714506,-0.22823957751,-0.0517323581328,0.0165868195263,0.0395269227261,-0.275142949639,-1.18230390549,0.647008121014,-0.183864921331,-0.350309610367,-0.339956879616,-0.271645456553
2017/07/09/10:09:56.964049,458163,1499566199,769124961,,0.775698110054,-0.100172756193,0.20701870827,0.84406075979,0.533067319362,-0.0117474180802,0.0571197424732,-0.106423465184,-0.235505198825,-0.0528236136507,0.0136871434977,0.0294341770124,-0.257849943668,-0.424523174763,0.802911996841,-0.761198580265,-0.410959124565,-0.0739099532366,-0.327719479799
2017/07/09/10:09:56.974033,458164,1499566199,779124102,,0.774473852766,-0.102733717768,0.206919836298,0.84484969454,0.531829323248,-0.0117042444502,0.0570050456697,-0.110409196901,-0.224076886007,-0.0633296328782,0.0457255490576,0.0392893952913,-0.257212028003,-1.21019589901,0.133395373821,-0.554596066475,-0.201961144805,-0.312696456909,-0.211186915636
2017/07/09/10:09:56.984049,458165,1499566199,789139951,,0.773759603727,-0.104431684099,0.206123858917,0.845211628953,0.531280751024,-0.0117894171449,0.0567368973242,-0.129491875807,-0.248185597326,-0.0677808290301,0.0592926646617,0.0476782775346,-0.255036599599,-0.956078529358,0.95555973053,-0.523964762688,-0.391991019249,-0.259078145027,-0.231281355023
2017/07/09/10:09:56.993998,458166,1499566199,799122645,,0.772354943696,-0.107119879093,0.205532771147,0.845834889448,0.530303315603,-0.0121024917175,0.0565266569638,-0.125137726309,-0.212588781709,-0.0729988537958,0.0519560990423,0.0924307048989,-0.173006034474,-0.654259085655,0.59020614624,-0.507228851318,-0.310030221939,-0.107053741813,-0.243487253785
2017/07/09/10:09:57.004040,458167,1499566199,809118030,,0.771627302804,-0.108236072342,0.204789679226,0.845840667305,0.53036156207,-0.0121686150978,0.0558757891932,-0.130912673226,-0.222889929375,-0.0718613779146,0.0578831465585,0.0893985495646,-0.153393168729,-1.10355997086,1.49762570858,-0.902568340302,-0.567119121552,-0.424762040377,-0.204682901502
2017/07/09/10:09:57.013736,458168,1499566199,819124081,,0.769900835111,-0.110957813629,0.203935741883,0.846149750381,0.529902690394,-0.0127557292061,0.0554168748353,-0.126228292713,-0.19033030853,-0.0819931140304,0.0551202095522,0.127129650159,-0.0779142636733,-1.68582928181,0.871430039406,-0.824099421501,-0.44902330637,-0.587913453579,-0.130661442876
2017/07/09/10:09:57.024295,458169,1499566199,829119270,,0.768700693019,-0.112438368095,0.203235408704,0.846207472425,0.52987257298,-0.0132385087243,0.0547056843722,-0.128224324364,-0.197054709314,-0.0715521432896,0.0379727100755,0.117400706495,-0.0571911954053,-2.53766393661,1.60891294479,-1.16546654701,-0.683422029018,-0.915912866592,-0.101878173649
2017/07/09/10:09:57.034037,458170,1499566199,839124562,,0.767444539986,-0.113907429104,0.202548752218,0.846346741581,0.529716426502,-0.0136033207918,0.0539689741698,-0.122071624917,-0.179665106754,-0.0781339499355,0.0552704641792,0.123775750076,-0.0150958061521,-1.93885529041,1.4719042778,-0.668175458908,-0.579951763153,-0.705908298492,-0.0955030545592
2017/07/09/10:09:57.043817,458171,1499566199,849128825,,0.766384474643,-0.116375966801,0.201756235527,0.846429322076,0.529592797565,-0.0136747741228,0.0538690268152,-0.12597422466,-0.202183581711,-0.0665941568452,0.0296730022258,0.107320442538,-0.0333616534818,-2.59937787056,1.26759958267,-0.775992035866,-0.489668130875,-0.950858652592,-0.0338615551591
2017/07/09/10:09:57.053974,458172,1499566199,859139561,,0.764910308711,-0.117774003332,0.201296167434,0.846389323817,0.52969654627,-0.0146080091321,0.0532286339009,-0.135816712881,-0.200481900487,-0.0682490193306,0.0224298172259,0.135642801447,-0.0344770203215,-3.33404660225,1.7229475975,-0.773006141186,-0.622030556202,-1.28497874737,0.00546745955944
2017/07/09/10:09:57.063800,458173,1499566199,869118908,,0.763342719361,-0.119733893262,0.200322681179,0.846753376692,0.52918801997,-0.0151667851445,0.0523328501922,-0.122828081344,-0.175044334958,-0.0672128370935,0.0453251562387,0.122851128232,-0.0236102900802,-4.15372848511,1.6607196331,-1.07469201088,-0.679728746414,-1.53905797005,0.0388834401965
2017/07/09/10:09:57.073987,458174,1499566199,879128898,,0.762345539931,-0.121341476632,0.199511439947,0.847192958429,0.528496732796,-0.0155398241289,0.0520942269244,-0.132759442262,-0.192030365268,-0.0828504954881,0.0842733673299,0.104660183659,-0.162228836363,-3.41121006012,1.44193422794,-0.955832064152,-0.510273635387,-1.28863132,0.0066053122282
2017/07/09/10:09:57.083963,458175,1499566199,889119107,,0.76153015656,-0.122919717184,0.198989988209,0.84780932831,0.527554910573,-0.0153365810327,0.0516715438403,-0.116005817682,-0.182049922189,-0.0792598132439,0.0680581339666,0.0733946447764,-0.215492432107,-3.35614514351,1.53488385677,-0.361494839191,-0.594468593597,-1.22920203209,0.0231484025717
2017/07/09/10:09:57.093735,458176,1499566199,899122326,,0.760523030987,-0.124844496711,0.197744434557,0.848498128873,0.526490629106,-0.0154574853903,0.0511821151216,-0.122869366564,-0.191266799092,-0.0777179114325,0.0374403370169,0.0903759881036,-0.234279669535,-3.69428944588,1.52891409397,-0.9692735672,-0.701693892479,-1.34954750538,0.00114192813635
2017/07/09/10:09:57.103809,458177,1499566199,909119033,,0.759131794586,-0.126513918463,0.197639825865,0.848982026637,0.525748938734,-0.0157529661598,0.0506894064317,-0.116747816542,-0.177386764343,-0.0749937704275,0.0524886701187,0.0819750852522,-0.197273568151,-4.28984594345,2.01645493507,-0.569826602936,-0.794922709465,-1.61155486107,0.0377181470394
2017/07/09/10:09:57.113864,458178,1499566199,919120385,,0.757677503523,-0.12865227946,0.196773490948,0.849102965511,0.525576872006,-0.0164016949398,0.0502403222033,-0.116187651519,-0.168216501583,-0.0669866433422,0.0387876632214,0.0998018270056,-0.137203380724,-5.55665397644,1.80708217621,-0.719062209129,-0.837360501289,-2.0361366272,0.0791175886989
2017/07/09/10:09:57.124023,458179,1499566199,929133081,,0.756977076369,-0.129707825953,0.195922232458,0.849363496321,0.525192496908,-0.0165640103623,0.0498008621381,-0.124515044582,-0.181969617686,-0.0740141401263,0.0587552011321,0.100315242884,-0.111416921913,-4.93043899536,2.68280267715,-1.3267531395,-0.983092427254,-1.92987656593,0.0595531240106
2017/07/09/10:09:57.133995,458180,1499566199,939125990,,0.755625836588,-0.131716612752,0.195124134933,0.849466077734,0.525037866688,-0.0172273818809,0.0494554207026,-0.107922040305,-0.16144614837,-0.0745428716243,0.051642199485,0.0886215619807,-0.0981821483772,-4.13686847687,1.78858578205,-0.799219727516,-0.75406908989,-1.50769472122,0.0840393230319
2017/07/09/10:09:57.143895,458181,1499566199,949141668,,0.754669975877,-0.13295205511,0.193776400296,0.849416143296,0.525187087495,-0.0174658055845,0.0486383004672,-0.119619507737,-0.172950019179,-0.0769135156145,0.0383376728883,0.115405561693,-0.0586744318034,-4.38141822815,2.40980672836,-1.36399018764,-0.897888362408,-1.67352628708,0.103704869747
2017/07/09/10:09:57.153973,458182,1499566199,959126018,,0.754029736394,-0.134418134893,0.194317237177,0.849783721611,0.524599280819,-0.0170539682483,0.0487071166957,-0.107582835393,-0.149086908389,-0.0665060950281,0.0539707934276,0.105747168467,0.000991981419919,-5.08391618729,2.3316988945,-1.0958327055,-0.968821227551,-1.94065058231,0.152070447803
2017/07/09/10:09:57.163830,458183,1499566199,969121837,,0.75295877917,-0.136572553387,0.193660806396,0.850021858637,0.524196910933,-0.0175960551119,0.0486910387346,-0.123093079559,-0.175831880983,-0.0733514386647,0.0430534042396,0.11364317469,-0.0637931436396,-5.83819580078,2.486951828,-1.06413424015,-1.04000890255,-2.27346134186,0.171660840511
2017/07/09/10:09:57.173954,458184,1499566199,979130729,,0.751948567247,-0.137641911474,0.192957267873,0.84993748211,0.524367035803,-0.017969567984,0.0481931830649,-0.101291175328,-0.160483171349,-0.0613648457343,0.0226932229281,0.0777475989982,-0.0470706791865,-6.67205524445,3.1973657608,-1.28649890423,-1.18062102795,-2.56060767174,0.244831234217
2017/07/09/10:09:57.183866,458185,1499566199,989131248,,0.750492831334,-0.139683807129,0.191750185168,0.85062552967,0.523317717619,-0.018191467405,0.0473692433247,-0.0964567740763,-0.158446095408,-0.0672057984641,0.0388331335759,0.0594795623244,-0.0713458858837,-7.07572793961,3.23609924316,-1.68965530396,-1.19951272011,-2.66468048096,0.232694774866
2017/07/09/10:09:57.193904,458186,1499566199,999129641,,0.750355425744,-0.140204498178,0.191738498311,0.850370389429,0.523711526686,-0.0182718074352,0.0475665707413,-0.09267003578,-0.132255567713,-0.078933713041,0.0584357673665,0.0799833580864,-0.0756217864564,-5.81823158264,3.48858094215,-1.09955072403,-1.19108259678,-2.2578253746,0.177268266678
2017/07/09/10:09:57.204040,458187,1499566200,9119603,,0.749152598405,-0.141669419489,0.190659885072,0.850727698565,0.523194147411,-0.0185123726048,0.0467713488254,-0.106895803395,-0.14152200447,-0.076012562069,0.0385641964197,0.108801489397,-0.0902174753719,-6.35034799576,3.11208319664,-1.64190077782,-1.14426016808,-2.42260861397,0.210518375039
2017/07/09/10:09:57.214042,458188,1499566200,19131366,,0.74800319078,-0.142890916616,0.189955660387,0.85113073812,0.522562581534,-0.0191909992199,0.0462225113545,-0.121644868773,-0.169391119299,-0.0706418346504,0.0235527768729,0.107830796797,-0.181430545156,-7.5183339119,3.99143624306,-1.97287547588,-1.462053895,-2.87391090393,0.228634789586
2017/07/09/10:09:57.223891,458189,1499566200,29130074,,0.746912097652,-0.144560330597,0.189329874048,0.85183480943,0.521403144862,-0.0196984041067,0.0461323188908,-0.100636175511,-0.140048473717,-0.0716617430799,0.0214747246579,0.10208327431,-0.134369553566,-7.46635913849,3.78920125961,-1.56262373924,-1.44093585014,-2.86011624336,0.218583837152
2017/07/09/10:09:57.234010,458190,1499566200,39131557,,0.745568714534,-0.145293361961,0.187893236636,0.852211406296,0.520911799686,-0.0199010734861,0.044615728186,-0.10717114735,-0.130755288654,-0.0787221818604,0.0636911784703,0.09613208997,-0.207882581139,-5.74037122726,3.39607405663,-1.65565574169,-1.19783580303,-2.22406768799,0.13620826602
2017/07/09/10:09:57.243861,458191,1499566200,49134589,,0.744033786117,-0.147301237713,0.187331534688,0.852972677828,0.519672408386,-0.0205145091676,0.0442419908567,-0.105935878668,-0.130025951732,-0.0843374886761,0.0532279009455,0.103756327962,-0.197289446121,-6.81633710861,3.00840950012,-1.74267780781,-1.22774076462,-2.49166703224,0.142443835735
2017/07/09/10:09:57.253912,458192,1499566200,59121212,,0.743899095839,-0.148696883723,0.187143204763,0.853241489127,0.519189305497,-0.0203451583261,0.0448051428094,-0.102145527536,-0.138417027195,-0.0818775687718,0.0321931564455,0.0913410213772,-0.199376136649,-6.3243355751,3.57352161407,-1.17281341553,-1.2686727047,-2.45281481743,0.151851803064
2017/07/09/10:09:57.263978,458193,1499566200,69119885,,0.742948582612,-0.149539309448,0.186311191909,0.853853025846,0.518229161184,-0.0206869326812,0.0441089284516,-0.080551671704,-0.118641077863,-0.0682066464663,0.0495175106246,0.048042001047,-0.177259031597,-7.08272075653,4.16839981079,-1.48283052444,-1.52019202709,-2.64764332771,0.107153587043
2017/07/09/10:09:57.273915,458194,1499566200,79124242,,0.741957776403,-0.150988073869,0.185612029309,0.854038949513,0.517939777186,-0.0210205945091,0.0437492231915,-0.09578855109,-0.120571506983,-0.0606563773796,0.0521811327494,0.0769357827153,-0.184819681436,-8.90007209778,4.35399580002,-1.88854825497,-1.74420619011,-3.43277049065,0.218122422695
2017/07/09/10:09:57.284232,458195,1499566200,89121247,,0.741409387614,-0.15113994939,0.184628563986,0.854419455128,0.517371276809,-0.0211825226227,0.0429611145975,-0.104298134625,-0.113765958627,-0.0660015365314,0.0689002738887,0.105425005163,-0.172785952659,-7.76032447815,4.27839183807,-1.69173669815,-1.55455255508,-3.07414484024,0.184303313494
2017/07/09/10:09:57.293841,458196,1499566200,99118599,,0.740584735411,-0.152210650263,0.184124655993,0.854712637033,0.516931070851,-0.0211005165826,0.0424658013551,-0.0983812688608,-0.108555141481,-0.0708750710755,0.0614126747069,0.102427608008,-0.161003017548,-6.456615448,3.8421087265,-1.75398516655,-1.38188004494,-2.58634138107,0.16143386066
2017/07/09/10:09:57.303993,458197,1499566200,109126385,,0.738657509463,-0.153947049996,0.183521843805,0.855642170523,0.515411368815,-0.0221502612847,0.0416768862099,-0.0982389642095,-0.10913690627,-0.0745087173106,0.0782690644304,0.083301828492,-0.207317105334,-6.58051300049,3.23226308823,-1.40049493313,-1.23959112167,-2.53206110001,0.139787778258
2017/07/09/10:09:57.313920,458198,1499566200,119150768,,0.738671311398,-0.154163273056,0.182994519944,0.855482030004,0.515708927377,-0.0218166283474,0.0414588144043,-0.0907548280056,-0.0919602562575,-0.075629792081,0.0618945639422,0.105940663808,-0.158138525511,-6.03463077545,3.66431117058,-0.998999714851,-1.38645327091,-2.43652796745,0.0978323817253
2017/07/09/10:09:57.324023,458199,1499566200,129118323,,0.737153975616,-0.155213234173,0.181890881638,0.856296963537,0.514407504952,-0.0225970504618,0.0403708112092,-0.0900250972404,-0.0866480851034,-0.0679697949569,0.0654973158282,0.105089385208,-0.16642307419,-7.57961273193,3.85857510567,-1.55770432949,-1.47027170658,-3.01239871979,0.189010292292
2017/07/09/10:09:57.333996,458200,1499566200,139125714,,0.736306897698,-0.156388701366,0.181191923477,0.85657857632,0.513952500446,-0.0229003130834,0.0400193145451,-0.0865456251373,-0.0904927981496,-0.0724074655733,0.0815820279685,0.086575262349,-0.159841792386,-7.47140312195,3.8662314415,-1.48696374893,-1.47993075848,-3.05370593071,0.188526123762
2017/07/09/10:09:57.343905,458201,1499566200,149119995,,0.73575449499,-0.157508490694,0.18093319591,0.85722610371,0.512878579375,-0.0228528217732,0.0399589598664,-0.0924821827015,-0.0986889279655,-0.0674742474502,0.0491256244648,0.109832196139,-0.164614216168,-7.23955059052,3.26946377754,-1.56712388992,-1.426217556,-2.98813176155,0.165046915412
2017/07/09/10:09:57.353823,458202,1499566200,159125439,,0.735543921396,-0.157781590407,0.180697365458,0.857385551451,0.512663057466,-0.0224765080685,0.0395147093898,-0.0849018534042,-0.0955654481646,-0.0664539414859,0.0702885309217,0.0782617040959,-0.181035817252,-6.62926673889,4.08648109436,-1.13593685627,-1.53632676601,-2.90136647224,0.149410516024
2017/07/09/10:09:57.363835,458203,1499566200,169117821,,0.7343450863,-0.158748447,0.179866558659,0.857644746426,0.512234226646,-0.0233968182162,0.0389124000508,-0.0523943855933,-0.0758377085879,-0.0478956894398,0.0612069128773,0.0239893328651,-0.136451949849,-6.54244661331,3.51671671867,-1.78757619858,-1.37762284279,-2.79680490494,0.168076574802
2017/07/09/10:09:57.373779,458204,1499566200,179154997,,0.733774051975,-0.159314408323,0.17944477582,0.857980378557,0.511707913321,-0.0234048610997,0.0384303777468,-0.0683978644952,-0.0987941960953,-0.0527743039011,0.0334038788273,0.052200862181,-0.147233383214,-6.04933738708,3.75172495842,-1.99868857861,-1.40672588348,-2.67572236061,0.160554274917
2017/07/09/10:09:57.384011,458205,1499566200,189125585,,0.733385003892,-0.160769600378,0.179200004703,0.858556508032,0.510691429606,-0.0236038498327,0.038959524067,-0.0771859000307,-0.108206695906,-0.0546012178975,0.0309981976538,0.0590202340737,-0.165114514473,-5.79258489609,3.57197594643,-1.81146395206,-1.47901141644,-2.55529332161,0.126144662499
2017/07/09/10:09:57.393921,458206,1499566200,199116320,,0.732710348555,-0.161195537742,0.178781865782,0.858752545584,0.510431152003,-0.0234330031537,0.0381444475904,-0.0625877497627,-0.0890379955127,-0.0443360063098,0.026731446379,0.0516758116473,-0.141170991513,-6.06083059311,3.84627532959,-1.73761487007,-1.60001802444,-2.72154641151,0.131599634886
2017/07/09/10:09:57.403937,458207,1499566200,209123280,,0.732380075605,-0.161779224912,0.178383769239,0.859235681205,0.50963460567,-0.0234463845114,0.0379061987206,-0.055912134547,-0.0857645324571,-0.0350916286308,0.0547179581435,0.0136633681006,-0.170161057046,-5.42213439941,3.61906170845,-1.39374864101,-1.49740469456,-2.51524329185,0.102759368718
2017/07/09/10:09:57.413889,458208,1499566200,219123188,,0.731710716834,-0.16299505412,0.178236660074,0.859652471712,0.508882181583,-0.0240340737829,0.0381957647418,-0.0553459693434,-0.080038656569,-0.0422355672628,0.0242357805181,0.0500448129579,-0.142777836695,-5.29759931564,3.15215563774,-1.44020164013,-1.33211445808,-2.51184606552,0.128269225359
2017/07/09/10:09:57.423724,458209,1499566200,229117237,,0.731428764396,-0.163825778094,0.177870038735,0.860094239677,0.508201515237,-0.0233457545092,0.0377371770452,-0.056613239017,-0.0949554919479,-0.0259593618631,0.0236104602756,0.0187688097539,-0.178236795645,-5.97155475616,2.82644438744,-1.45645546913,-1.30501019955,-2.74844360352,0.15319891274
2017/07/09/10:09:57.434147,458210,1499566200,239126551,,0.730710829316,-0.16526549903,0.177968695338,0.860680990046,0.50719798667,-0.023376883383,0.0378412078949,-0.0474098395387,-0.0919089379822,-0.0380773097293,0.0434616367794,0.00154403758987,-0.142938964481,-5.5588722229,2.05614233017,-1.43541252613,-1.09996056557,-2.62042617798,0.164323866367
2017/07/09/10:09:57.444152,458211,1499566200,249137175,,0.73079816339,-0.165174528842,0.177066627686,0.860761417432,0.50711276342,-0.0231427364527,0.037293983237,-0.0465215056082,-0.0784982046419,-0.0289133371035,0.0350421112521,0.0188840640656,-0.156919806273,-4.9161272049,2.87961339951,-1.83880448341,-1.38807177544,-2.4589715004,0.118302613497
2017/07/09/10:09:57.454045,458212,1499566200,259126336,,0.729698943321,-0.165837887019,0.176497992394,0.861141848874,0.506524984128,-0.0234459302513,0.036296624179,-0.0417854606023,-0.0774781088094,-0.0291147089271,0.0589742215185,-0.00737533428107,-0.197607962402,-4.61732769012,2.66441392899,-1.6810798645,-1.33555448055,-2.27920842171,0.112848341465
2017/07/09/10:09:57.464200,458213,1499566200,269126166,,0.729697991638,-0.166751280973,0.176787426362,0.861783841674,0.505390591768,-0.0233972501036,0.0368988979429,-0.0397570801942,-0.0563629029098,-0.0332251918556,0.063945107201,0.0244164424593,-0.152434904487,-4.63750314713,2.87750601768,-1.62903857231,-1.3699477911,-2.29504537582,0.127190008759
2017/07/09/10:09:57.474037,458214,1499566200,279123227,,0.72937023366,-0.167439327932,0.176939019822,0.862038492752,0.50496410476,-0.0233678665906,0.0368080524931,-0.0486427767144,-0.0840069643726,-0.0177696447664,0.0170273682154,0.0245507027418,-0.146798506627,-3.00455188751,1.80228662491,-0.97633010149,-0.93025547266,-1.66499185562,0.0728731229901
2017/07/09/10:09:57.483826,458215,1499566200,289119272,,0.728375603748,-0.168309752694,0.176062803958,0.862410076978,0.504361736628,-0.023818342471,0.0360663875842,-0.0371637280431,-0.0604726189168,-0.0114257222887,0.0423520465573,0.0187154787017,-0.113170854848,-3.71122169495,2.09006643295,-1.60916662216,-1.02421617508,-1.92632687092,0.11282543838
2017/07/09/10:09:57.493918,458216,1499566200,299124174,,0.727574574211,-0.169376118526,0.175821168956,0.862823174349,0.503647738645,-0.0242809443114,0.035854719461,-0.0541369290723,-0.0594186599246,-0.0234915819989,0.0553545379643,0.0655867351162,-0.117393432797,-4.1817483902,1.36252486706,-1.68666636944,-0.897874951363,-2.01351475716,0.105320945382
2017/07/09/10:09:57.504008,458217,1499566200,309119399,,0.727440292929,-0.169781034183,0.176142287343,0.862863010751,0.503583680305,-0.0242685678957,0.035804164843,-0.0814893866684,-0.0808841715258,-0.0156506805539,0.0565804752078,0.0909615762858,-0.192626033622,-4.51416778564,2.32132291794,-1.20668411255,-1.13195252419,-2.31426405907,0.159020900726
2017/07/09/10:09:57.513860,458218,1499566200,319123876,,0.726531393594,-0.169864023018,0.175216168869,0.863458105905,0.502643189156,-0.0245464721806,0.0344585903014,-0.0572084073508,-0.0579701132885,-0.00865806655907,0.0504054712742,0.0735563742309,-0.144986348242,-4.05190896988,2.00523090363,-1.45102322102,-1.03206849098,-2.04924249649,0.113993912935
2017/07/09/10:09:57.523939,458219,1499566200,329118449,,0.726338980674,-0.170474080581,0.175906636292,0.863921901326,0.501819566906,-0.0247263501017,0.0347084757751,-0.0734265143744,-0.0636478446952,-0.0203619757348,0.044623005799,0.118427638336,-0.160369174863,-2.98202133179,1.97576665878,-1.09605371952,-0.963021755219,-1.68436491489,0.0882123410702
2017/07/09/10:09:57.533775,458220,1499566200,339120057,,0.72574061158,-0.170286668448,0.175601678,0.864173928536,0.501454728328,-0.0248456270071,0.0336046350141,-0.0417490674357,-0.0503390341752,-0.00372348125444,0.0356701411979,0.0554921742462,-0.13117758472,-3.65879845619,2.48208332062,-1.25336503983,-1.10492753983,-1.85338425636,0.107157066464
2017/07/09/10:09:57.543909,458221,1499566200,349125773,,0.724775215059,-0.17127465503,0.174948655133,0.864331541451,0.501191072174,-0.0254705872266,0.0330112831132,-0.0549785434388,-0.0422058711759,-0.00960901560557,0.0880577274479,0.0705091740633,-0.115240542592,-3.69131946564,2.43614459038,-1.48099315166,-1.07909214497,-1.78594684601,0.0976633727551
2017/07/09/10:09:57.554024,458222,1499566200,359125338,,0.724662638335,-0.171239589244,0.175405646781,0.864591465194,0.500774873647,-0.0252622953077,0.0326793615782,-0.0541065415101,-0.0319753322635,-0.0117372915185,0.0852046194512,0.0902187822118,-0.117464222171,-2.5860748291,1.56446146965,-0.679675221443,-0.750495135784,-1.38087356091,0.0840722993016
2017/07/09/10:09:57.564658,458223,1499566200,369118456,,0.723749166577,-0.172595652203,0.174961379244,0.864766276726,0.500452022649,-0.0259654336771,0.0324477413394,-0.0611470776244,-0.0468687757019,-0.0151691639916,0.074855071365,0.0952541925992,-0.154609001876,-3.6815905571,1.63112545013,-0.80128377676,-0.884248435497,-1.71420097351,0.102356940508
2017/07/09/10:09:57.573733,458224,1499566200,379122152,,0.723442695097,-0.17200742498,0.174839404428,0.865184106233,0.499775511481,-0.0262229893381,0.0315159527133,-0.0720138024887,-0.0541841982548,-0.00635036352759,0.0569087032371,0.121870458345,-0.145989039112,-2.87885451317,2.20562887192,-0.736976146698,-1.0011125803,-1.38977229595,0.0667719617486
2017/07/09/10:09:57.583807,458225,1499566200,389137720,,0.722844772355,-0.172808264772,0.175272561575,0.865602423864,0.499048883927,-0.0264532130582,0.0313509612317,-0.0611915711976,-0.0222288338797,-0.0104570916561,0.0806191412718,0.13195437581,-0.110296387922,-3.7071557045,1.79242169857,-0.599151015282,-0.871622800827,-1.73782324791,0.109374158084
2017/07/09/10:09:57.594135,458226,1499566200,399126294,,0.722304842128,-0.172401325098,0.174785748581,0.86585392429,0.498677986654,-0.0267379850349,0.0300387678698,-0.0616069968231,-0.0244809842505,-0.00733172463152,0.0859165823982,0.125571179198,-0.130738632974,-2.79657506943,2.20539331436,-0.832825422287,-0.822615921497,-1.44822013378,0.0849445015192
2017/07/09/10:09:57.603659,458227,1499566200,409119462,,0.721661773777,-0.173158739624,0.174998153734,0.866168956834,0.498142651938,-0.0269150835538,0.0296785244674,-0.0554858436842,-0.0264300664806,0.000490258456786,0.0681716731695,0.119586602731,-0.125624326561,-2.77613806725,1.3175495863,-0.802915155888,-0.624145507812,-1.40612328053,0.0701013207436
2017/07/09/10:09:57.614099,458228,1499566200,419124776,,0.721559123331,-0.172758592333,0.175160141208,0.866448026221,0.49769117398,-0.0269825892153,0.0290388202103,-0.0500264531899,-0.0109397557,-0.00145093324766,0.098423573056,0.113160852016,-0.0968402306364,-1.68987154961,1.41439020634,-0.733829319477,-0.581992924213,-1.05906319618,0.038669064641
2017/07/09/10:09:57.624142,458229,1499566200,429126062,,0.720827077821,-0.172793065627,0.175001668188,0.866578569063,0.497480849344,-0.027568188249,0.0281848039236,-0.0512837382947,-0.018710644743,-0.00142223212302,0.0970282985687,0.102501771065,-0.119366368052,-0.710583508015,0.450305223465,-0.722451210022,-0.172605514526,-0.643391013145,0.00910633057356
2017/07/09/10:09:57.633898,458230,1499566200,439125383,,0.720300390051,-0.173125835374,0.175012441167,0.866933695608,0.496885721523,-0.0277736813875,0.0275530359291,-0.0502838717583,-0.0198413658225,0.00151518635316,0.0766422811344,0.107556944495,-0.126436941997,-0.392686337233,0.321615338326,-0.117814987898,-0.265786796808,-0.475736498833,-0.0342960357666
2017/07/09/10:09:57.644242,458231,1499566200,449125620,,0.720056061817,-0.173497381131,0.175193115992,0.86719972039,0.496431962499,-0.0278153750632,0.0273176952524,-0.0572389505862,-0.0305247066567,0.00650732455901,0.0757629785666,0.105619910755,-0.124594219296,-0.0302815400064,-0.0589850470424,0.186466947198,-0.0609989985824,-0.325980961323,-0.023265607655
2017/07/09/10:09:57.654010,458232,1499566200,459125436,,0.719629614144,-0.173275028011,0.174610109395,0.867304284716,0.496256862585,-0.0284714957409,0.0264910924797,-0.0306030319657,-0.0121838028648,0.00240456861356,0.0758046885894,0.0747663192193,-0.100249037561,0.24728795886,0.431209981441,-0.28108549118,-0.159555733204,-0.28853303194,-0.0336853712797
2017/07/09/10:09:57.663880,458233,1499566200,469127589,,0.719211214706,-0.174080192107,0.17507607172,0.867379909795,0.496114792588,-0.0286218829723,0.0265140052591,-0.0316189750883,-0.0250177094045,0.0219856230182,0.0406504871694,0.0674035152619,-0.0862906727157,0.0541708245873,-0.476499468088,-0.483180433512,0.0729165077209,-0.25990024209,-0.030266020447
2017/07/09/10:09:57.674544,458234,1499566200,479126970,,0.718923451755,-0.173587100412,0.174777492206,0.867787195814,0.49543442705,-0.0289579866198,0.0255254047102,-0.0312596294536,-0.0195053716858,0.00718955258855,0.038567088396,0.0861456912339,-0.0845675672995,0.32051217556,0.0951076820493,-0.498771160841,-0.00720946118236,-0.214169546962,-0.0379774086177
2017/07/09/10:09:57.683995,458235,1499566200,489119307,,0.718583532466,-0.173777248011,0.17508130203,0.868091905581,0.494927445204,-0.0289415098091,0.025013125733,-0.0326424215316,-0.0204826462737,0.00341642826464,0.0585980194551,0.0772741033231,-0.116594641941,1.08576357365,-0.387346744537,-0.62877625227,0.161611378193,0.114768512547,-0.0794319361448
2017/07/09/10:09:57.694063,458236,1499566200,499131806,,0.718475495362,-0.174934567376,0.175354599058,0.868660687217,0.493921436072,-0.0287055723357,0.0254207708263,-0.0379149618475,5.89966374914e-05,0.00121203723342,0.0983189462128,0.0935567279563,-0.129665101887,0.827093958855,-1.07169950008,0.121707163751,0.294011712074,0.0458717793226,-0.0571462959051
2017/07/09/10:09:57.703611,458237,1499566200,509122393,,0.718091834535,-0.174317092876,0.175816170947,0.868522775655,0.494191196224,-0.0290393167704,0.0244942406407,-0.033520677363,-0.0267472219868,0.0283129698799,0.0600302894828,0.0444593315626,-0.11354184128,1.78710377216,-0.682671844959,0.0548925735056,0.340691000223,0.345180600882,-0.0916155949235
2017/07/09/10:09:57.713868,458238,1499566200,519124127,,0.718208935138,-0.174480689233,0.175840465797,0.868671631231,0.493928624594,-0.0290855601192,0.0244569232446,-0.0329413171392,0.0058797365283,0.00965335769913,0.0936277908009,0.0925689506147,-0.0912603848946,2.48187708855,-1.37518179417,-0.132583633065,0.480988323689,0.631293058395,-0.109459169209
2017/07/09/10:09:57.723882,458239,1499566200,529124616,,0.717385453379,-0.174717774809,0.175918050345,0.869413831912,0.492641700636,-0.0294007134513,0.0236504063849,-0.0257477670176,-0.00904644154551,0.0172011465716,0.0696870280943,0.0597665313901,-0.0767889068595,1.56591212749,-1.11555743217,-0.271399021149,0.408930599689,0.315365165472,-0.0690939873457
2017/07/09/10:09:57.733934,458240,1499566200,539120778,,0.717469505328,-0.174904241582,0.176079158209,0.869312000252,0.492820832531,-0.0294617788731,0.0235855215665,-0.0194648935329,-0.00943822229246,0.0106085458459,0.0576991819837,0.046203230291,-0.0921008943051,1.91079759598,-1.03234839439,0.108082428575,0.388593435287,0.419284254313,-0.0958910807967
2017/07/09/10:09:57.743868,458241,1499566200,549126318,,0.717471713786,-0.174899710166,0.175989478351,0.869463161356,0.492588413468,-0.0291875613271,0.0232067280091,-0.0031160242435,0.00220956637191,0.0166958153148,0.0546786803698,0.0204545372843,-0.0757510559207,1.71965563297,-1.06091725826,0.0640526562929,0.348682612181,0.380590617657,-0.0833365470171
2017/07/09/10:09:57.753815,458242,1499566200,559123674,,0.717458714827,-0.174978697018,0.176396714044,0.869683500916,0.492221645053,-0.0289738000917,0.0229995496295,-0.0153034671642,-0.0205692148466,0.00950372698047,0.0478695993059,0.0218227929575,-0.0869391258762,3.04983973503,-1.68610179424,0.818683981895,0.639364004135,0.825385093689,-0.153123453259
2017/07/09/10:09:57.764165,458243,1499566200,569118024,,0.717345436379,-0.174974735624,0.175973548987,0.869694508102,0.492205810881,-0.0292124420563,0.0226171514947,-0.0114718515195,-0.0178982087462,0.0139971437201,0.0477522919339,0.0137373224866,-0.0739367240931,3.81467103958,-1.81298005581,0.485972583294,0.698487102985,1.09202289581,-0.15308611095
2017/07/09/10:09:57.773969,458244,1499566200,579129585,,0.717784193018,-0.174553361874,0.176406676448,0.869846688187,0.491990836543,-0.028461821789,0.0223982255437,-0.007561887825,-0.0163977871491,0.0167221212842,0.038185288846,0.00735374131914,-0.0748786370527,4.01247692108,-1.5998237133,0.831121683121,0.545816898346,1.20599091053,-0.197222232819
2017/07/09/10:09:57.783838,458245,1499566200,589142943,,0.717180514809,-0.175539792549,0.176629576133,0.870178021053,0.491378361922,-0.0288603722941,0.0224632148718,0.012435438028,0.000147977065664,0.0263090288371,0.0711542938025,-0.0494412722716,-0.0865675488862,2.7206056118,-1.89853966236,0.481362640858,0.641311049461,0.818410813808,-0.139588221908
2017/07/09/10:09:57.794020,458246,1499566200,599124885,,0.717976129667,-0.174562933518,0.176683468991,0.870120082719,0.491538292369,-0.0281585680787,0.0220962401302,0.012450783041,-0.0200844083193,0.0266002255964,0.00628637101153,-0.0409884968499,-0.0639583148816,3.06753659248,-1.36955535412,0.783425152302,0.55667001009,0.921570599079,-0.158651530743
2017/07/09/10:09:57.803951,458247,1499566200,609128882,,0.718251349629,-0.175182255718,0.177427184443,0.870318801175,0.491151593104,-0.0280850747067,0.0229461432569,0.0225227251533,-0.00723667320524,0.016033740844,0.00358760373393,-0.0398125264458,-0.0385145176422,3.76078128815,-1.86448812485,1.24808692932,0.739489614964,1.20709431171,-0.159098520875
2017/07/09/10:09:57.814069,458248,1499566200,619134708,,0.717884079197,-0.175643222526,0.17723634189,0.870376426676,0.491066298637,-0.0280932809042,0.0225728553159,0.029625418717,-0.031340053347,0.0352509704686,-0.0206105017518,-0.0951598166253,-0.0436081716421,3.69568324089,-2.11798429489,0.699821412563,0.819441914558,1.21900820732,-0.167495548725
2017/07/09/10:09:57.824010,458249,1499566200,629121839,,0.71857366051,-0.176304510899,0.178207579432,0.870765896556,0.490365538359,-0.027374955668,0.0236432651434,0.0249201487319,-0.0390942018301,0.0266042066205,-0.00812462751019,-0.0974591343083,-0.0702251804756,4.12802124023,-2.22857379913,1.23255336285,0.829042136669,1.36757230759,-0.196160376072
2017/07/09/10:09:57.833976,458250,1499566200,639144741,,0.718923414095,-0.176324871412,0.178128647627,0.870722465423,0.490458109484,-0.0270572781597,0.0236882828972,0.0208689825343,-0.0217968299387,0.0207787071917,-0.0240974875978,-0.0552852771681,-0.0465274608006,3.03418016434,-1.52860975266,0.870692431927,0.524833083153,0.938947558403,-0.157432973385
2017/07/09/10:09:57.844274,458251,1499566200,649124150,,0.718741899151,-0.176515473643,0.178225798365,0.870705725012,0.490504985278,-0.026896488539,0.0235155002619,0.018218156042,-0.00365912930522,0.0278607621177,-0.00106278688727,-0.0421680069095,-0.0355016921607,2.45411014557,-1.65524315834,0.496823608875,0.502865374088,0.744263231754,-0.150059789419
2017/07/09/10:09:57.854007,458252,1499566200,659116636,,0.718954019266,-0.177012514125,0.178665260171,0.870939542114,0.490017510023,-0.0273651592449,0.0244602108167,0.00810510498408,-0.0208363533678,0.0238005351925,-0.0084346892886,-0.0434228031277,-0.0501650357595,3.21440887451,-1.65239500999,0.585140883923,0.61963391304,0.934717357159,-0.139557689428
2017/07/09/10:09:57.864299,458253,1499566200,669122574,,0.719631961685,-0.176466155855,0.178794124175,0.871108505208,0.489807187051,-0.0260286922386,0.024112213653,0.0182115557562,-0.00889390434437,0.0128232391128,0.000665840424618,-0.0522501188911,-0.033694999947,3.82636427879,-1.77252614498,0.259838193655,0.653239130974,1.1741707325,-0.160051763058
2017/07/09/10:09:57.874304,458254,1499566200,679130966,,0.71929507642,-0.176961931904,0.179070448155,0.871037510809,0.489896239641,-0.0265105792682,0.0243416995405,0.00826344494844,-0.0341623924188,0.0227437957244,-0.0206106545362,-0.0624764514579,-0.0493321406537,3.93952965736,-2.08109593391,0.683742344379,0.742504656315,1.21382308006,-0.181237906218
2017/07/09/10:09:57.884058,458255,1499566200,689134096,,0.719225453323,-0.177307060871,0.179210453457,0.871065971388,0.48984357665,-0.0264180700855,0.0244832489247,0.0112253808238,-0.0348649653419,0.0230717284804,-0.0466361169955,-0.0568047050562,-0.0219986933732,3.54962491989,-1.69045937061,0.648309528828,0.607919514179,1.10104072094,-0.182611137629
2017/07/09/10:09:57.893892,458256,1499566200,699131876,,0.719480489232,-0.177603502399,0.178953092263,0.871241279262,0.489514761315,-0.0263376201875,0.024905050253,0.00856571004246,-0.0188014035367,0.0150427887892,-0.0264584011669,-0.037839899107,-0.0236569421227,2.64928340912,-1.41043698788,0.0763310194016,0.441468000412,0.861526668072,-0.140695005655
2017/07/09/10:09:57.903750,458257,1499566200,709119636,,0.719848903693,-0.177386754615,0.17949245067,0.871113670682,0.489748699377,-0.0260028319013,0.0251204486931,0.0217658064983,-0.0139768925717,0.0191975036004,-0.047178592684,-0.0569243443557,-0.0218300300916,2.41129231453,-1.07666146755,0.541176319122,0.459411084652,0.706604063511,-0.104600712657
2017/07/09/10:09:57.913848,458258,1499566200,719137690,,0.720069348523,-0.177878250437,0.180046958686,0.871293393849,0.489412010441,-0.0256528865568,0.0257999085554,0.0253454575093,-0.00057023475032,0.0160408706747,-0.0136266770497,-0.0621652728985,0.00779979192032,2.09259200096,-1.29213476181,0.779042780399,0.524348855019,0.63476473093,-0.129608049989
2017/07/09/10:09:57.923978,458259,1499566200,729117783,,0.719858378713,-0.177485466373,0.179736807658,0.871253856167,0.489496976154,-0.0259122776111,0.0252583119047,0.0126633847644,-0.0167274845694,0.0246080495636,-0.0353973651393,-0.051902224513,-0.00507032613676,2.53611826897,-1.1901088953,0.0767635628581,0.611089527607,0.814772486687,-0.133806675673
2017/07/09/10:09:57.933913,458260,1499566200,739133864,,0.720008963318,-0.177461931744,0.179904175496,0.871175993152,0.489626690291,-0.0258516964554,0.0254908395416,0.00911133636397,-0.000447938354969,0.0129988050332,-0.0128152465706,-0.0228627883225,-0.00243287637788,3.16734576225,-1.40136051178,0.313676029444,0.638237655163,1.0472433567,-0.171324059367
2017/07/09/10:09:57.944001,458261,1499566200,749123343,,0.7198071364,-0.177386824728,0.179510482895,0.870911708932,0.490115214567,-0.0258960298764,0.0250852014351,0.000274789467048,0.00750129122587,0.0086617352085,-0.0168677734782,0.0103089015857,0.00947994349047,3.06933808327,-1.81894850731,0.263148963451,0.775627017021,1.03985571861,-0.171693265438
2017/07/09/10:09:57.954679,458262,1499566200,759117842,,0.719763647469,-0.177448813137,0.179805545522,0.870981191949,0.489965149031,-0.0262108822768,0.0252765831634,-0.00054599989158,0.00622249713463,-0.00159367857151,0.00987334364818,0.00544242094428,0.0119516271162,2.77630162239,-1.77816867828,0.39260289073,0.802446126938,0.894898533821,-0.137236908078
2017/07/09/10:09:57.964034,458263,1499566200,769124193,,0.720470241522,-0.177637503458,0.18044970292,0.871226323361,0.489536867706,-0.0253126016579,0.0260311512825,0.00186856374909,0.000822929388717,-0.00556044313311,0.0108029706334,-0.00425725358336,0.00552828915397,3.61870217323,-1.65965473652,0.533838689327,0.760627508163,1.17835247517,-0.180313050747
2017/07/09/10:09:57.974056,458264,1499566200,779125318,,0.720593938137,-0.176961566413,0.179809591593,0.871010071584,0.489943061742,-0.0254195119659,0.0255166585075,0.00266303311877,-0.000351321497467,-0.0021631199446,-0.010776284627,0.00387037585471,-0.00377669450124,3.26535391808,-1.70229399204,0.222729951143,0.763573050499,1.07522332668,-0.136780232191
2017/07/09/10:09:57.983924,458265,1499566200,789119202,,0.720200856848,-0.177157154676,0.179523989372,0.871063417857,0.489832138253,-0.0259045852897,0.0253367493446,-0.00280361152461,0.00587681662305,-0.0116375029488,0.0205281185725,0.0096269512051,0.00734354197207,3.29405999184,-1.33048665524,0.587712466717,0.629978954792,1.0805670023,-0.160355269909
2017/07/09/10:09:57.993932,458266,1499566200,799123081,,0.720417658437,-0.177395140322,0.180095686942,0.871012474335,0.489919577937,-0.0255174159419,0.0257863954679,4.59799821544e-05,-0.00116216553949,0.00127613106435,-0.00904495462276,0.00238595568439,-0.0163443219667,2.60745239258,-1.85778415203,0.750593841076,0.782152473927,0.805740118027,-0.128054469824
2017/07/09/10:09:58.003936,458267,1499566200,809118235,,0.719832132847,-0.177614259799,0.179660657181,0.871317442208,0.489377306754,-0.0259368756983,0.0253583323003,0.0006233692693,-0.00996184930102,0.00279575008223,-0.020450371114,-0.00637172468926,-0.00681001939215,2.84977149963,-1.90539515018,0.530450284481,0.786261498928,1.01064789295,-0.145888701081
2017/07/09/10:09:58.013901,458268,1499566200,819125485,,0.719872903306,-0.177545726434,0.179640482445,0.871364838127,0.489282006675,-0.0260763854769,0.0254255568517,-0.00952551742828,-0.001696491453,-0.00605141188217,0.0112885159307,0.017297773054,-0.00501059923002,3.23446154594,-2.03520727158,0.404484003782,0.847993373871,1.07915985584,-0.160213649273
2017/07/09/10:09:58.023897,458269,1499566200,829120483,,0.719976673975,-0.177245375767,0.179365202264,0.871082544039,0.489789669113,-0.0261547487138,0.0252430311252,0.0017221984571,-0.00248776400914,0.00137565093116,4.47121959229e-05,-0.00881680604794,0.00139442750207,3.53238916397,-2.17720174789,0.295375645161,0.857161641121,1.26018297672,-0.170508861542
2017/07/09/10:09:58.033875,458270,1499566200,839125666,,0.719574964428,-0.177725742764,0.179639061661,0.87127562742,0.489443823075,-0.0261922960759,0.0252485394346,-0.00485265684098,0.000407332576131,0.00169097219206,-0.00394112907082,0.016738276269,0.0287243376754,3.4083943367,-2.0824406147,0.659351050854,0.815380454063,1.20769715309,-0.170049279928
2017/07/09/10:09:58.043888,458271,1499566200,849119430,,0.720069168768,-0.177775420582,0.179773107525,0.871062052254,0.489790345324,-0.0261937228902,0.0258883686337,-0.00100438443388,0.00613506753738,-0.0127600302823,0.0140442614514,0.0124885674483,0.00406065596346,3.97377538681,-1.88281071186,0.426129728556,0.89655071497,1.29743075371,-0.15254804492
2017/07/09/10:09:58.053986,458272,1499566200,859126214,,0.719923913618,-0.17786328908,0.179538733003,0.87124836402,0.489486218767,-0.0259729621099,0.0255916992277,0.00884783036601,0.00593356014368,-0.00792652301247,0.00147489959427,-0.00844917843871,0.00537624505596,3.07221722603,-2.5080807209,0.812771558762,0.971123337746,1.04311859608,-0.157419353724
2017/07/09/10:09:58.064117,458273,1499566200,869121262,,0.720140020208,-0.177292746642,0.179230253799,0.871045014009,0.489852905594,-0.0260523839521,0.0254162889144,0.00592059023096,-0.0083107109947,0.00596017743003,-0.00581521219398,-0.0278831904984,-0.00365162054921,3.43242549896,-1.71160244942,0.542656779289,0.818845391273,1.11772334576,-0.160370379686
2017/07/09/10:09:58.073960,458274,1499566200,879124839,,0.720049133786,-0.177112281233,0.179354429768,0.870892873298,0.490140674175,-0.0260028997931,0.025131095471,0.0132777418266,0.0194570509718,-0.0163621449525,0.0221018728223,-0.00311139160724,0.0207631835372,3.76753377914,-1.72383165359,0.855249226093,0.832803726196,1.3090287447,-0.178131654859
2017/07/09/10:09:58.083927,458275,1499566200,889122492,,0.720021043535,-0.177251753989,0.179072328029,0.871167674511,0.489668149426,-0.0258071270971,0.0250195626687,0.00750486801272,0.00316255961833,-0.00549035902127,0.0135363019538,-0.0155969186922,0.00388218787207,3.09131169319,-1.68015229702,0.941357433796,0.752711653709,1.10059607029,-0.159495785832
2017/07/09/10:09:58.093801,458276,1499566200,899123088,,0.719876982791,-0.177586334433,0.179095928654,0.871419373845,0.489195854497,-0.0260925579909,0.0251966118183,-0.00194643738038,-0.0117926613648,-0.01124825167,-0.014017928836,-0.00134484304448,-0.0142825832442,2.13979029655,-1.73285079002,0.749740421772,0.743352770805,0.796975851059,-0.0939021632075
2017/07/09/10:09:58.104236,458277,1499566200,909117561,,0.720209457493,-0.177526632708,0.179087584944,0.871160235581,0.489661624194,-0.0257649429696,0.0254461283566,-0.019512083595,-0.023277213826,-0.00746340647225,-0.0234414117958,0.0302857855815,-0.0343847133697,2.12818813324,-1.18407893181,0.648898303509,0.612745404243,0.752775371075,-0.114753678441
2017/07/09/10:09:58.113831,458278,1499566200,919137480,,0.72020568273,-0.177273176715,0.179104702866,0.871117427457,0.489751621212,-0.0257179920045,0.025226216298,-0.000762774793675,0.00770071534697,-0.0178261010848,0.0291195496086,0.00871072395439,0.00349281858439,2.62036061287,-1.22086179256,0.999765336514,0.625349938869,0.884343504906,-0.11939753592
2017/07/09/10:09:58.124053,458279,1499566200,929122425,,0.719708621899,-0.177528428069,0.178418524938,0.870950609152,0.490022474612,-0.0264465863138,0.0249717613386,-0.00466097081905,0.0124573785139,-0.00497884312058,0.0284639519565,0.0145899902469,0.00649896444931,1.89408707619,-1.19756674767,0.507595360279,0.571109652519,0.62861174345,-0.112547025084
2017/07/09/10:09:58.133809,458280,1499566200,939131170,,0.720149752544,-0.1771787134,0.178947158813,0.871103152993,0.489771987266,-0.0259359284409,0.0251002978419,0.000295012937256,-0.000187710171546,0.000932943428729,-0.0119930920726,0.00806227546771,-0.00345700748114,2.08072805405,-1.43533217907,0.868910312653,0.721288323402,0.739644467831,-0.103335916996
2017/07/09/10:09:58.143703,458281,1499566200,949127030,,0.720070452465,-0.17739782374,0.178694324595,0.871040698776,0.489854274574,-0.0262578988803,0.0253261426754,-0.0124950269979,-0.00685192324462,-0.0088199170132,0.0062745127135,0.0218637315175,-0.0326314565678,2.67209386826,-1.67058181763,0.90991294384,0.693121552467,0.973876655102,-0.148321256042
