time,.header.seq,.header.stamp.secs,.header.stamp.nsecs,.header.frame_id,.pose.position.x,.pose.position.y,.pose.position.z,.pose.orientation.x,.pose.orientation.y,.pose.orientation.z,.pose.orientation.w,.twist.linear.x,.twist.linear.y,.twist.linear.z,.twist.angular.x,.twist.angular.y,.twist.angular.z,.wrench.force.x,.wrench.force.y,.wrench.force.z,.wrench.torque.x,.wrench.torque.y,.wrench.torque.z
2017/07/09/10:04:36.435312,426110,1499565879,239198677,,0.782904816145,0.391424875682,0.164803588847,0.626223214739,0.77715457968,0.0535753723043,0.0317005376392,0.0130523765788,-0.104235425063,-0.0101634942864,-0.0385553026719,0.00200833461372,-0.130551742184,3.64087963104,1.85596549511,0.94840747118,-0.77820700407,1.38465380669,-0.178494855762
2017/07/09/10:04:36.445030,426111,1499565879,249201711,,0.783036136986,0.390364241208,0.164581733548,0.626473122688,0.776977886977,0.0531566256141,0.0317987869524,0.00966406299352,-0.118155071135,-0.0188540923692,-0.0504199094533,0.0204444215472,-0.156185618958,3.95588159561,1.838083148,1.07212817669,-0.659340858459,1.54718983173,-0.0921456962824
2017/07/09/10:04:36.454928,426112,1499565879,259203306,,0.78356366801,0.388615599114,0.16499844894,0.626998204122,0.776534602276,0.0528706940406,0.0327406965032,0.0117399280265,-0.142234473403,-0.0177606124127,-0.0677275435789,0.0306850106615,-0.170454804731,3.89098405838,1.85143744946,0.883614778519,-0.550692975521,1.49781417847,-0.0526831075549
2017/07/09/10:04:36.465311,426113,1499565879,269192494,,0.783149749192,0.387467072987,0.164395105883,0.627835347878,0.775920117759,0.0522049500434,0.0323324914503,0.000718031293062,-0.142962405421,-0.0198183852315,-0.0781356885708,0.0430957161838,-0.160942085181,3.950340271,2.05288290977,1.05345916748,-0.521872699261,1.49926066399,-0.013578094542
2017/07/09/10:04:36.475093,426114,1499565879,279196656,,0.783365279549,0.385969609528,0.164663187135,0.628373708762,0.775476943722,0.052156491705,0.0325836195836,-0.00415295909132,-0.129538522738,-0.0174155920203,-0.0830779887512,0.0520674391971,-0.133145172223,3.83433580399,1.95302796364,0.795244216919,-0.389590680599,1.4306538105,-0.0109217166901
2017/07/09/10:04:36.485215,426115,1499565879,289192446,,0.783325044431,0.385056308522,0.164101637519,0.629274547125,0.77478003378,0.0518506746277,0.0322637743743,0.0174308377907,-0.152458399115,-0.00971028414147,-0.0743076942636,0.012522062257,-0.168041101159,3.95200681686,1.79657065868,0.735330939293,-0.487867832184,1.43571305275,-0.0731708407402
2017/07/09/10:04:36.494962,426116,1499565879,299206685,,0.783493491975,0.383792696476,0.164294047263,0.629492262582,0.774607877548,0.0515775178508,0.0325866083262,0.0148612462217,-0.14094334307,-0.00368733575781,-0.0356753442848,0.0166915030691,-0.185777700102,4.07995319366,1.93003082275,0.617274641991,-0.616350293159,1.46967113018,-0.136066183448
2017/07/09/10:04:36.504743,426117,1499565879,309197955,,0.78379577009,0.381682131826,0.16405427614,0.631155694551,0.773262140985,0.0513030388461,0.0328047063689,0.0202607968609,-0.168325699831,-0.020611023705,-0.0493773023275,0.0247630749313,-0.240372051432,4.17965698242,1.9580527544,0.586415231228,-0.680742442608,1.48889374733,-0.121827431023
2017/07/09/10:04:36.515017,426118,1499565879,319196883,,0.784615895741,0.380529059439,0.16458875754,0.631105894034,0.773247293167,0.0516296755115,0.0335909323082,0.0181696089945,-0.157850079407,-0.0160901465058,-0.0379243682305,0.0153713760752,-0.237934514822,4.27168130875,1.8594815731,0.746141076088,-0.62095451355,1.58000528812,-0.0784674286842
2017/07/09/10:04:36.525066,426119,1499565879,329198324,,0.784878551731,0.378123517628,0.16414221658,0.632510142037,0.772118845926,0.0513062497645,0.0336314840944,0.0217608615998,-0.15013252854,-0.00393422768462,-0.0414981340481,-0.0070886012233,-0.189361090394,4.44851779938,1.91745722294,0.629837989807,-0.626056730747,1.62691879272,-0.123703286052
2017/07/09/10:04:36.535090,426120,1499565879,339198509,,0.784929870024,0.377547948447,0.164032966032,0.632846002106,0.771857965643,0.0511735295814,0.0335035574562,0.0419669258876,-0.14767797652,0.0111678873258,-0.0270079189628,-0.0431999966633,-0.213079129716,4.32709026337,1.83867132664,0.578203201294,-0.571375906467,1.58150804043,-0.100282073021
2017/07/09/10:04:36.544844,426121,1499565879,349192543,,0.785262609664,0.374931290014,0.164096304576,0.634068815941,0.77085742104,0.0508907928805,0.033848194614,0.0328254560426,-0.142872916081,0.0113247009135,0.00912266347155,-0.0244127547939,-0.21567920044,4.03560876846,1.25965845585,0.417681604624,-0.313951671124,1.45871865749,-0.0457511432469
2017/07/09/10:04:36.554923,426122,1499565879,359199730,,0.78466878306,0.374592432651,0.163530380549,0.634726437655,0.770374133201,0.0505330669395,0.0330522825617,0.0241695126031,-0.177938797362,0.00619424141344,-0.0269824655183,0.0045761685847,-0.230499555396,4.11670780182,0.89522922039,0.486781746149,-0.141068011522,1.51355814934,-0.00592879205942
2017/07/09/10:04:36.564860,426123,1499565879,369201013,,0.78534211017,0.372705193426,0.163804122335,0.635478825508,0.769727028194,0.0506857873524,0.0334352412816,0.0333404359247,-0.169354618773,0.0129460577982,-0.0249941379349,-0.0187316321125,-0.234537890676,4.38150978088,0.992974221706,0.376101911068,-0.273317813873,1.61170446873,-0.0419540628791
2017/07/09/10:04:36.575093,426124,1499565879,379199019,,0.785770576985,0.370788889819,0.164166545754,0.636460815214,0.768886388115,0.050872949084,0.0338126591743,0.0383959496552,-0.175062153097,0.00252252752863,-0.00284486438932,-0.0260557014589,-0.250349331607,4.30821657181,1.19398903847,0.134992778301,-0.31173813343,1.57446575165,-0.0411155596375
2017/07/09/10:04:36.584970,426125,1499565879,389194857,,0.786378477142,0.368562257463,0.164459384859,0.637450665035,0.76805139475,0.0507604580459,0.0343086077846,0.0430717146268,-0.178330172255,0.0153393597295,0.0176477060097,-0.0402120948221,-0.2521080892,4.35732793808,1.44255554676,0.119099631906,-0.4414729774,1.60764169693,-0.0604529194534
2017/07/09/10:04:36.594889,426126,1499565879,399240769,,0.786216367958,0.36750395408,0.163893345285,0.637970349822,0.767651468534,0.0504015999297,0.0341282043173,0.0394131033003,-0.190313926196,0.0115771691941,-0.0105950911869,-0.0383918319874,-0.263013236267,4.26049280167,1.88992023468,-0.047504208982,-0.683772206306,1.55479705334,-0.158811688423
2017/07/09/10:04:36.605305,426127,1499565879,409197315,,0.787244777004,0.365602923562,0.164960980569,0.639241943625,0.76650402179,0.0513378995684,0.0347237981493,0.0289603785954,-0.168284959192,0.00387260882235,-0.00833406175533,-0.0123834490073,-0.224124509038,4.26819992065,1.59535062313,-0.130934745073,-0.494657486677,1.58511030674,-0.0624499060214
2017/07/09/10:04:36.615101,426128,1499565879,419200247,,0.787328742363,0.364320982978,0.164644570153,0.640157047517,0.765765865883,0.0510820704177,0.0345284700585,0.0296107285714,-0.175588922984,0.0116834065643,0.00180060046149,-0.0133007540626,-0.255408382077,4.16855859756,1.73459684849,-0.266544729471,-0.607088923454,1.52895307541,-0.128706306219
2017/07/09/10:04:36.625150,426129,1499565879,429195347,,0.78798101732,0.362312308363,0.164934236256,0.641203882258,0.764843539624,0.0515522744955,0.034846868826,0.0448575017774,-0.182562623816,0.0171831580098,0.00238330688206,-0.0418476889585,-0.256924996813,3.97938156128,1.55265116692,-0.371906012297,-0.496121436357,1.50003409386,-0.0808310806751
2017/07/09/10:04:36.635057,426130,1499565879,439197000,,0.788023662313,0.360621777449,0.164674146524,0.64186365965,0.764320021478,0.0510469729702,0.0349306990976,0.0462315229388,-0.180061917379,0.0179566429775,0.0134567414989,-0.0540181246819,-0.265401336918,3.44991064072,1.24033224583,-0.4106310606,-0.380879670382,1.2933177948,-0.0835809856653
2017/07/09/10:04:36.644799,426131,1499565879,449193725,,0.788597075575,0.359472803543,0.165606276121,0.64270469308,0.763550324911,0.0517835853927,0.0352141889771,0.0389653375341,-0.1971635308,0.0116561119291,0.0153626884622,-0.0261850360551,-0.287210975532,3.32863497734,1.10832715034,-0.493577569723,-0.250592321157,1.25464296341,-0.0111260190606
2017/07/09/10:04:36.655128,426132,1499565879,459197800,,0.788966140492,0.357343864749,0.165010309894,0.643746327258,0.762688005302,0.0516162077367,0.035120361746,0.0157478327893,-0.173080816974,-0.000316026497702,0.0144690327739,0.0139016495788,-0.238826883647,2.3390352726,0.772370934486,-0.195243835449,-0.16860242188,0.878705978394,-0.0170219652355
2017/07/09/10:04:36.664974,426133,1499565879,469193278,,0.788733010476,0.355349656263,0.165141742235,0.644797961359,0.761816269628,0.0513174025634,0.0351864256696,0.0275983675366,-0.199939346891,0.00572411359431,-0.000274097262566,-0.00625188998831,-0.28162476798,1.67199671268,0.80031812191,0.164422541857,-0.247448250651,0.646566271782,-0.0765483751893
2017/07/09/10:04:36.675158,426134,1499565879,479205370,,0.788850237208,0.353457716911,0.165151900418,0.645558277097,0.761202779076,0.0508824859545,0.0351541266824,0.0256996535869,-0.168599329375,0.0132324247314,0.0136821746669,-0.0230864354878,-0.240794453319,1.04391586781,0.77182251215,0.701241612434,-0.262189418077,0.473992526531,-0.0630153864622
2017/07/09/10:04:36.684423,426135,1499565879,489192360,,0.789538490822,0.351346419761,0.165515745933,0.646776005966,0.760110276474,0.0512879054625,0.0358150311736,0.0252889181364,-0.191324940088,0.0153415761706,-0.00630179107436,-0.023728451277,-0.261512455482,1.54923248291,0.874008119106,0.665601015091,-0.318320006132,0.650216698647,-0.0954858511686
2017/07/09/10:04:36.695069,426136,1499565879,499201096,,0.789609071259,0.3502306603,0.165844108703,0.647672120773,0.759356570136,0.0513737635524,0.0354846415178,0.0312977673949,-0.201442126294,0.0121995265588,-0.0185404574924,-0.0283086010905,-0.27041762769,1.79873931408,1.02436161041,0.6305103302,-0.348508328199,0.728439569473,-0.0809505581856
2017/07/09/10:04:36.705380,426137,1499565879,509201242,,0.789666768557,0.347391510941,0.165394769445,0.649065236094,0.75818335995,0.0511883557917,0.0353845195134,0.0201068797499,-0.218397273283,0.00050513735379,-0.0127829726929,0.0118469564573,-0.303068185719,2.22182273865,0.957948863506,0.499591678381,-0.345421433449,0.886852145195,-0.100733689964
2017/07/09/10:04:36.714968,426138,1499565879,519204948,,0.790522916896,0.345644410028,0.165631925114,0.649812198744,0.757495743058,0.0515225526813,0.0359128414098,0.0211206812248,-0.236066359346,-0.00127106325966,-0.0107854822297,0.0140473429658,-0.314522881269,2.23400259018,1.1505061388,0.358690023422,-0.385146737099,0.864882230759,-0.104556128383
2017/07/09/10:04:36.724996,426139,1499565879,529205394,,0.79071511464,0.342830217507,0.165922669914,0.650964041445,0.756510816022,0.0510755123394,0.0364485119987,0.0391222173945,-0.229590668725,0.0156415059643,-0.0186771144225,-0.0336280386835,-0.294018326924,1.93377709389,0.791940808296,0.276130855083,-0.225661590695,0.767823934555,-0.0758546441793
2017/07/09/10:04:36.735075,426140,1499565879,539197604,,0.791233006838,0.340917611619,0.166101824055,0.65222660137,0.755390520034,0.0515354971675,0.0364652607178,0.0415792712524,-0.208396696455,0.0151535705095,-0.00315983272497,-0.0521947809967,-0.280292449169,2.13684487343,0.868015348911,0.232047170401,-0.246507644653,0.847732722759,-0.0570606440306
2017/07/09/10:04:36.744833,426141,1499565879,549191813,,0.791295320123,0.338828194449,0.165954624434,0.653318667504,0.754461595304,0.0512449158134,0.0365565111109,0.0373843224637,-0.221445009425,0.0114801573997,0.00588060853089,-0.0370313258913,-0.316697547593,1.6562693119,0.652163267136,0.179527029395,-0.173392623663,0.686831176281,-0.0424079559743
2017/07/09/10:04:36.754888,426142,1499565879,559236668,,0.791527558652,0.336374066696,0.166262827083,0.654772543162,0.753194432282,0.0512277751215,0.0366984871325,0.0274636147808,-0.224655605863,0.00279272696275,0.0243772359819,-0.00481197788779,-0.336933075349,1.60546410084,0.751337826252,0.0969986096025,-0.232635140419,0.652114391327,-0.07648576051
2017/07/09/10:04:36.765093,426143,1499565879,569218212,,0.791728948224,0.333943722742,0.16606230158,0.655697333657,0.752395112893,0.0509862520368,0.0369188682522,0.0273362257041,-0.225516429624,0.0071829489469,0.00475947264122,-0.00688055864787,-0.320971364187,0.981830656528,0.699055373669,-0.00757989147678,-0.133658125997,0.398811817169,-0.0177318584174
2017/07/09/10:04:36.774979,426144,1499565879,579193473,,0.791934511811,0.332237959033,0.165901716504,0.656895677266,0.751359994532,0.0511655410846,0.0364460589468,0.0226351492942,-0.242835576913,-0.00392656882902,-0.00294338447285,0.007341327408,-0.33416555928,0.769760131836,0.751227378845,-0.10004735738,-0.248535960913,0.297767668962,-0.0623042024672
2017/07/09/10:04:36.785106,426145,1499565879,589201905,,0.792408958663,0.330254006543,0.166344209244,0.65779703343,0.750536673023,0.0514507342007,0.0367503361755,0.0251056462844,-0.251025910109,-0.00218389401615,-0.00861746550607,0.003683454162,-0.341396166001,1.16941523552,0.796697616577,-0.00761843286455,-0.200427651405,0.458781540394,-0.0618744455278
2017/07/09/10:04:36.795018,426146,1499565879,599202061,,0.792108355036,0.326708754203,0.165237669808,0.659601506621,0.749033442859,0.0505831961854,0.0362780127015,0.0184489768497,-0.261891880147,-0.00943926392123,0.00134795653423,0.0197004837714,-0.348350419959,0.644571065903,0.711721360683,-0.0298601612449,-0.197232782841,0.237407773733,-0.0780753269792
2017/07/09/10:04:36.804805,426147,1499565879,609193258,,0.792624120948,0.325352263133,0.166095803678,0.660446640379,0.748236250015,0.0511795209296,0.0365158323558,0.0222922706002,-0.272954282532,0.000639173712183,-0.00596572213898,-0.00163219437208,-0.361580725963,0.849425315857,0.524648606777,0.0880010277033,-0.102567955852,0.344182789326,-0.0424687191844
2017/07/09/10:04:36.815073,426148,1499565879,619226822,,0.792727522142,0.321666364759,0.16574525224,0.662446383741,0.746487854791,0.0506871985568,0.0367624702689,0.0146678898659,-0.261825149302,-0.0098575189936,0.00154140245125,0.0203020856157,-0.36364186113,1.0640925169,0.564687132835,0.0318530909717,-0.138136163354,0.384055823088,-0.0514194369316
2017/07/09/10:04:36.825072,426149,1499565879,629231113,,0.792831316038,0.319446712572,0.165506546063,0.6634585966,0.745602951385,0.0505227399697,0.0366930814986,0.0319100588405,-0.272959748673,0.0149241820563,-0.0104483230039,-0.0279439826286,-0.364847487392,0.770505189896,0.652303040028,0.0648990795016,-0.165587186813,0.28144967556,-0.0757414102554
2017/07/09/10:04:36.835022,426150,1499565879,639193425,,0.793389389502,0.316682829775,0.165687155951,0.664756214862,0.744413921377,0.05074568761,0.0370400276974,0.0235582711478,-0.272955250868,0.00042570408491,-0.00330795545367,-0.00139652521883,-0.388408057626,0.489429533482,-0.280864715576,0.18387389183,0.00732988491654,0.143163904548,-0.0663596391678
2017/07/09/10:04:36.845335,426151,1499565879,649200338,,0.793340742441,0.313777330372,0.166132040088,0.666183623092,0.743154589197,0.0504251103257,0.03712068331,0.0176559184857,-0.279294059909,-0.00182836541253,-0.00970054257325,0.0065823861165,-0.376812215641,0.252662241459,-0.34515401721,0.247751310468,-0.026250211522,0.0476593114436,-0.0803884491324
2017/07/09/10:04:36.855181,426152,1499565879,659206402,,0.793611099643,0.311468083037,0.165573165178,0.667608324048,0.741887964477,0.0502626027959,0.0370815936359,0.0245452082519,-0.258674290932,0.0125619547375,0.00848377551613,-0.0156122935367,-0.342871000716,0.393766313791,0.18600922823,0.253488749266,-0.153302654624,0.0827366784215,-0.0731366425753
2017/07/09/10:04:36.865079,426153,1499565879,669209718,,0.793267483842,0.308773833429,0.165294782605,0.6689273002,0.740742504774,0.0499500768235,0.0366305677565,0.0111639160829,-0.274189548678,-0.00814835302416,-0.00554516546266,0.026744926793,-0.357458305337,0.28912204504,0.0354016460478,0.0709304213524,-0.217384144664,0.00896092131734,-0.102639481425
2017/07/09/10:04:36.875140,426154,1499565879,679192697,,0.794330594203,0.305578520688,0.166139340693,0.670445327679,0.739274213111,0.0505618870974,0.0376854878716,0.0132890523676,-0.312003617318,-0.00341749786488,-0.0127480011056,0.017966076811,-0.437234245372,0.245009377599,0.0189409777522,0.415779829025,-0.146419793367,0.0404653027654,-0.0951639860868
2017/07/09/10:04:36.885108,426155,1499565879,689194048,,0.79430727454,0.302854654499,0.166355921772,0.671680755194,0.738168915518,0.0501873431712,0.0378529503516,0.0255605996363,-0.303099289728,0.000405941363332,-0.00551836969847,-0.0194171301845,-0.423492860049,-0.174407050014,0.027582321316,0.751313865185,-0.0350577309728,-0.080171123147,-0.0335983633995
2017/07/09/10:04:36.894960,426156,1499565879,699192898,,0.794113850573,0.300095084943,0.165719940897,0.673097108719,0.73692343805,0.0497732260469,0.0375067281497,0.0165711309341,-0.288573199982,-0.000784103330063,-0.00737518664197,-0.00947068473598,-0.357555062273,-0.412924915552,0.0510624609888,0.384930849075,-0.140126317739,-0.145136550069,-0.118735209107
2017/07/09/10:04:36.905353,426157,1499565879,709196674,,0.794427866453,0.297718857849,0.16593192913,0.67427876003,0.735803402478,0.0502607793016,0.0376212803995,0.0102799248707,-0.282438147697,-0.0103878300866,0.00881134770776,0.00877755385474,-0.376623169298,-0.338752359152,-0.273456424475,0.516000628471,-0.0514685884118,-0.133543103933,-0.0943734869361
2017/07/09/10:04:36.914915,426158,1499565879,719205656,,0.794990206961,0.294185667974,0.165814023868,0.676351265955,0.733871278249,0.050348778369,0.0380383033267,0.0358488465466,-0.316348887503,0.0171922998009,-0.0208247658707,-0.049833367277,-0.43296617862,-0.777738332748,-0.298080027103,0.363312602043,-0.02356486395,-0.272170722485,-0.0760730206966
2017/07/09/10:04:36.925043,426159,1499565879,729205318,,0.795201776982,0.291096158464,0.165920447286,0.677247761932,0.733047292324,0.0499337639392,0.0385195456061,0.0157427700853,-0.328038724265,0.0014828948385,-0.0174026180074,-0.00330419490778,-0.442342314566,-0.760003626347,-0.463780462742,0.485057473183,0.0873007848859,-0.274434357882,-0.0784763768315
2017/07/09/10:04:36.934941,426160,1499565879,739205206,,0.794687614885,0.288706246217,0.165394620285,0.678703445534,0.731759770181,0.0495473037212,0.0378726346965,0.0213092425095,-0.306859574865,0.0067813453902,-0.0141036379911,-0.0222880106917,-0.397182690723,-1.44541847706,-0.354974389076,0.308975487947,0.0589661486447,-0.514905810356,-0.0823106467724
2017/07/09/10:04:36.944955,426161,1499565879,749191301,,0.795426529001,0.284916244166,0.166278875899,0.680711291333,0.729816215896,0.0498619521745,0.0389129103552,0.0113601818847,-0.32376675763,0.00709793494742,-0.00841771789972,-0.00783278792945,-0.440892370512,-1.65860211849,-0.514884412289,0.405859977007,0.131730049849,-0.628309190273,-0.0626528263092
2017/07/09/10:04:36.954835,426162,1499565879,759200116,,0.795793841048,0.281520245346,0.166638718912,0.682128685,0.728481957291,0.0496985051959,0.0393008089326,0.016991949839,-0.332506415631,0.0163335400612,-0.0224380432771,-0.0192710307388,-0.449215911891,-1.14352071285,0.744714200497,0.43725579977,-0.580524265766,-0.443479448557,-0.236363559961
2017/07/09/10:04:36.965075,426163,1499565879,769205054,,0.79574957881,0.278501750024,0.166329572618,0.683706552121,0.727022937236,0.0495483937946,0.0390890776466,0.0114620917266,-0.312270736831,0.00231404227639,-0.00588021852208,0.000535289675743,-0.456343202914,-1.30497777462,1.92713046074,0.364481002092,-1.17968440056,-0.526034533978,-0.37404948473
2017/07/09/10:04:36.974947,426164,1499565879,779200143,,0.795577033794,0.275663999055,0.16635067509,0.685156686914,0.725666290318,0.0492766476723,0.0392499868557,0.0122775634238,-0.332323009798,0.000739186310368,-0.0349824935753,-0.00811815690869,-0.439032664186,-1.32937061787,2.29345989227,0.375228226185,-1.27326750755,-0.525683939457,-0.405366659164
2017/07/09/10:04:36.984959,426165,1499565879,789199622,,0.796292544505,0.27264302257,0.166631545289,0.68651315291,0.724322846554,0.0495868508491,0.0399655985062,0.0129505945205,-0.352580701685,-0.000735662293616,-0.059411473503,-0.0147764525615,-0.445277588134,-2.41490411758,1.63184916973,0.499905318022,-0.858633041382,-0.924503982067,-0.265339553356
2017/07/09/10:04:36.995123,426166,1499565879,799194265,,0.796238644002,0.268762047931,0.166663611154,0.688231326358,0.722696872021,0.0492542616786,0.0402602818775,0.00968635004407,-0.335417428208,0.00453607647021,-0.0378677885493,-0.0174822684884,-0.442097821692,-3.46787571907,0.371845006943,0.409872323275,-0.272217482328,-1.26330816746,-0.150190830231
2017/07/09/10:04:37.004978,426167,1499565879,809196719,,0.796410170051,0.265142693517,0.166545626988,0.689808549699,0.721192977328,0.0488876037092,0.0406799264735,0.0168018167065,-0.348061848693,0.0121366482778,-0.0410499004017,-0.0363252618432,-0.453160695487,-4.17444324493,-0.234928190708,0.640195786953,0.108110174537,-1.49356460571,-0.0760901644826
2017/07/09/10:04:37.014748,426168,1499565879,819193039,,0.796694001289,0.262058601349,0.166820869134,0.691221508194,0.719804596121,0.0488406809786,0.0413371248926,0.0279982259869,-0.3475688794,0.0132581202023,-0.0540469918026,-0.0637999782553,-0.435999249428,-4.15418624878,-0.393739521503,0.774923861027,0.191022157669,-1.45335912704,-0.075320571661
2017/07/09/10:04:37.024841,426169,1499565879,829200476,,0.796448058904,0.258588726981,0.166431937919,0.693100418948,0.718027235549,0.0484160257103,0.0412866409115,0.00990890379588,-0.357171837112,0.00299276911629,-0.0384381159751,-0.027374925868,-0.473593904378,-4.69039726257,-0.290321916342,0.60251057148,0.0335671305656,-1.64361166954,-0.126116216183
2017/07/09/10:04:37.035169,426170,1499565879,839192300,,0.796760823956,0.25562152505,0.166650325494,0.694555670384,0.716582590707,0.0488184590261,0.0414556328181,-0.00137905911401,-0.338681437369,0.00225275758243,-0.0119827604766,-0.00337334134559,-0.470285710395,-4.55027103424,0.390446394682,0.664590895176,-0.23650225997,-1.617639184,-0.169450029731
2017/07/09/10:04:37.045214,426171,1499565879,849197709,,0.796701749451,0.252454188032,0.166649784615,0.696524176933,0.714682804639,0.0486945714584,0.0413690513791,-0.0116749184631,-0.326370968799,-0.014358907845,0.0159116394074,0.0256999415962,-0.4448744008,-5.2372508049,0.140352606773,0.680900633335,-0.217941850424,-1.88371920586,-0.162826836109
2017/07/09/10:04:37.055075,426172,1499565879,859196729,,0.796556075176,0.24846335406,0.166716130468,0.698280267978,0.712976437782,0.048401716524,0.041551658915,-0.00672208344649,-0.332824017914,-0.0028365633383,-0.000372656718437,0.00760639027503,-0.469926425326,-5.81918525696,-0.199926316738,0.911830842495,-0.0334558226168,-2.06775736809,-0.0958939194679
2017/07/09/10:04:37.065074,426173,1499565879,869192734,,0.796293750049,0.245599235141,0.166400863927,0.699121051989,0.71217061359,0.0479683590905,0.0417349773086,-0.00502984571961,-0.359172229053,-0.00196633432022,-0.0141920530338,-0.000345473514288,-0.488728722246,-6.73712491989,-0.154906839132,1.02539968491,0.031054712832,-2.45801711082,-0.10138412565
2017/07/09/10:04:37.075061,426174,1499565879,879195156,,0.796159594481,0.242080084341,0.166300260382,0.701247195452,0.710093432386,0.0478945364424,0.0415427674967,-0.00759833699981,-0.373968902282,-0.00246730357697,-0.0372843402916,0.00385299873917,-0.495583908391,-6.67812490463,-0.588303625584,0.946084618568,0.19406940043,-2.38377141953,-0.0596236474812
2017/07/09/10:04:37.085041,426175,1499565879,889199567,,0.79617906948,0.239019119765,0.16618078223,0.702609910057,0.708747077885,0.0477516963464,0.0416733652937,-0.0130936876639,-0.339812650375,-0.0155481960618,0.0128630319086,0.017792437647,-0.474975962907,-6.48273992538,-0.0204722285271,1.09708786011,0.0461971797049,-2.31982707977,-0.0762533247471
2017/07/09/10:04:37.095053,426176,1499565879,899217922,,0.795938669282,0.236016893149,0.166244251904,0.704478727541,0.706900082202,0.0478387050968,0.04139389472,-0.00479117681231,-0.319268401799,0.00214725357621,0.00202740170051,-0.0113061531393,-0.432483428028,-6.5833272934,0.105976887047,0.878347575665,-0.0926559492946,-2.36876988411,-0.100635915995
2017/07/09/10:04:37.105042,426177,1499565879,909205365,,0.795797118598,0.232770428886,0.165609602652,0.705708097114,0.705689551331,0.047389773905,0.0416238890397,-0.0215018931165,-0.31816426916,-0.0087011837936,0.0162391866688,0.0300136804313,-0.448074704239,-7.19566297531,-0.0555307418108,1.29433846474,-0.0945855379105,-2.59924507141,-0.133500501513
2017/07/09/10:04:37.114918,426178,1499565879,919205471,,0.795968246738,0.229518593141,0.166131744069,0.70734044556,0.704003342753,0.0477516053544,0.0420543892426,-0.0198613636321,-0.324216211203,-0.0200403739607,0.0154661555072,0.0284522362172,-0.423662929422,-8.37744903564,-0.435617625713,1.78678607941,0.07776927948,-2.98967695236,-0.0852508246899
2017/07/09/10:04:37.125025,426179,1499565879,929198704,,0.795465945392,0.226411986739,0.165893987053,0.708744298648,0.702637017956,0.0473654326487,0.0417043873238,-0.0153173128964,-0.344256201209,-0.0104522161911,-0.00379878173153,-0.00266133840806,-0.462141921717,-9.52946472168,-0.404093265533,2.06239461899,0.0589112117887,-3.40630888939,-0.104366794229
2017/07/09/10:04:37.134879,426180,1499565879,939195633,,0.795536631294,0.222315390686,0.165434223872,0.710597276534,0.700746223614,0.0474011046187,0.0419449157109,-0.0178215311045,-0.361600245165,-0.00668427265359,0.000249101199782,-0.00204204326383,-0.497930051707,-9.17228126526,-0.752004206181,1.82734441757,0.15984505415,-3.26043629646,-0.111314371228
2017/07/09/10:04:37.145024,426181,1499565879,949197596,,0.795413379751,0.219340154605,0.165881577808,0.711990936309,0.699316965548,0.0471623324869,0.0424311525335,-0.00367477004241,-0.345622306065,-0.0126318121871,-0.00224641082801,-0.0224056866466,-0.464734226353,-8.82368087769,-0.412800133228,1.93565046787,0.0909784436226,-3.07503080368,-0.0756085813046
2017/07/09/10:04:37.154991,426182,1499565879,959205154,,0.795176219435,0.216528898107,0.165778711493,0.713719743347,0.697569424945,0.0472180281919,0.0420889908682,-0.00321789891287,-0.326008394724,0.00197949167808,0.0129871825137,-0.031237923738,-0.460267532724,-9.03765773773,-0.308212846518,1.61471247673,-0.0193255580962,-3.21459054947,-0.117730110884
2017/07/09/10:04:37.164857,426183,1499565879,969196220,,0.795175373841,0.2137585686,0.165466745403,0.715220767585,0.696028193283,0.0472434115552,0.0420959360795,-0.0179711271487,-0.344842461548,-0.00318848724333,-0.0082349262258,0.00146109680849,-0.476522586979,-9.71171951294,0.532859504223,1.04428231716,-0.359448522329,-3.47342538834,-0.202846050262
2017/07/09/10:04:37.175140,426184,1499565879,979192581,,0.795073919675,0.210135320305,0.165348694457,0.716339522011,0.694877976087,0.046836852116,0.0425276009004,-0.0158516398917,-0.315464036171,-0.0120006256054,0.00392223126459,0.0151148908788,-0.440163821969,-10.1873626709,0.559868752956,0.862024903297,-0.306116312742,-3.68252706528,-0.171242207289
2017/07/09/10:04:37.185221,426185,1499565879,989192767,,0.79506574071,0.207306482874,0.165511137419,0.717820808048,0.69332998306,0.0469011034593,0.0427446911047,-0.0098091268393,-0.3231481824,-0.011706486401,-0.0295554539796,-0.0082907799651,-0.409501625879,-10.8821439743,0.234282955527,1.28859305382,-0.171225488186,-3.91796898842,-0.131716102362
2017/07/09/10:04:37.195091,426186,1499565879,999205408,,0.794959448196,0.204655715664,0.165328135619,0.71913572325,0.691960920435,0.0468665074538,0.042865214526,-0.011937626173,-0.301845189204,-0.00060536494732,-0.00438573535707,-0.00588885250592,-0.418740431058,-11.5120925903,0.153185650706,1.53108584881,0.0350233465433,-4.15108442307,-0.0544988177717
2017/07/09/10:04:37.205106,426187,1499565880,9209139,,0.794460810684,0.201287615766,0.165059607845,0.7207840181,0.690297741209,0.0463290662993,0.0425798702391,-0.0212422139504,-0.301205640451,-0.0185785283329,0.0146450596503,0.0199822680458,-0.421416543101,-11.6934690475,-0.396036237478,1.60805594921,0.18957939744,-4.18625545502,-0.0370650440454
2017/07/09/10:04:37.215051,426188,1499565880,19205225,,0.794603166427,0.198159202429,0.16480686598,0.721648877625,0.689361884312,0.0460271885003,0.0434118393845,-0.0251475847972,-0.336133389595,-0.0115074609655,-0.0423577910203,0.0194601263805,-0.430906598432,-11.9417829514,-0.137546941638,1.7871658802,0.305252015591,-4.34224128723,0.00543097406626
2017/07/09/10:04:37.224909,426189,1499565880,29195044,,0.794218429562,0.19495430569,0.164458220689,0.723240436081,0.687724381166,0.045635163788,0.043311418753,-0.00394303011514,-0.324126486448,-0.0082238839631,-0.0635771636798,-0.0144487422175,-0.398535770552,-12.0328006744,-0.0489287376404,1.47433722019,0.21465203166,-4.38564300537,-0.0256111100316
2017/07/09/10:04:37.235081,426190,1499565880,39197435,,0.794453697193,0.192645352008,0.164678147709,0.724572158294,0.686286776151,0.0461112470911,0.0433520610532,-0.0193307488477,-0.307650133548,-0.0268314254252,-0.0231016530074,0.0241284857641,-0.410569887601,-11.8909978867,-0.0914290100336,1.42898213863,0.147711977363,-4.40197992325,-0.0429689995944
2017/07/09/10:04:37.245073,426191,1499565880,49194716,,0.7939884479,0.189009325165,0.16452338969,0.726004403542,0.684806203224,0.0452094607607,0.0437512825078,-0.0163912852894,-0.330627119783,-0.0145682853571,-0.0315884333237,0.010426834644,-0.429465013258,-12.2211961746,0.456067413092,1.39447021484,-0.125258490443,-4.46167182922,-0.0911189317703
2017/07/09/10:04:37.254996,426192,1499565880,59196836,,0.794033174835,0.185982251894,0.164194186954,0.727097389382,0.683627645521,0.0450218788861,0.04422283409,-0.02637672749,-0.298151240733,-0.0277287391315,-0.0437659848322,0.0422898229885,-0.380202457904,-11.9393482208,0.380317419767,1.54511749744,-0.213920608163,-4.42165279388,-0.0814673304558
2017/07/09/10:04:37.265283,426193,1499565880,69194609,,0.793865390358,0.183102670217,0.163696578714,0.728380952533,0.682280474236,0.0446231407927,0.0443093417849,-0.00229820253901,-0.339987362716,-0.0193756869335,-0.0692355236105,-0.0167204249795,-0.414328668427,-12.3462839127,0.620463371277,1.38821184635,-0.2591406703,-4.57204914093,-0.0962695032358
2017/07/09/10:04:37.274932,426194,1499565880,79193063,,0.793709858162,0.179793318971,0.163673775756,0.72946984824,0.681124935682,0.0439662376765,0.044827808833,-0.0103360354841,-0.331641132323,-0.028000727938,-0.0996429778494,0.0105195420192,-0.376524559974,-12.5180931091,0.00641243159771,1.60164630413,0.0283802375197,-4.64197778702,-0.023302949965
2017/07/09/10:04:37.284960,426195,1499565880,89198291,,0.794008280802,0.176640500945,0.163769015221,0.730544165097,0.679934758915,0.0436538838568,0.0456977558008,-0.00944245064171,-0.332252593053,-0.0189435589672,-0.110374193609,0.0107506900394,-0.373820498822,-12.7475128174,0.058713786304,1.3897485733,0.113316960633,-4.80473995209,-0.00596448034048
2017/07/09/10:04:37.295164,426196,1499565880,99199762,,0.793133223364,0.1731096077,0.162723084132,0.732089379875,0.678376208687,0.0425081105046,0.0452097323859,-0.0206411072241,-0.341351622399,-0.0318850600722,-0.144356539062,0.0416619801416,-0.348669595339,-12.9539222717,-0.401378571987,1.04745399952,0.322204828262,-4.92115449905,0.0248741284013
2017/07/09/10:04:37.304937,426197,1499565880,109194717,,0.793430396041,0.170719145451,0.162644442598,0.733016856961,0.677339315388,0.0422548563324,0.0459593990044,-0.0206613961987,-0.338524997474,-0.0305395444577,-0.142053316384,0.0441966321838,-0.368758094722,-12.4678936005,0.26169487834,1.08100652695,0.199138760567,-4.82310628891,0.0398435145617
2017/07/09/10:04:37.314883,426198,1499565880,119200630,,0.793635718566,0.167222607859,0.162229532765,0.733898839374,0.676361561403,0.0416542699521,0.0468236437724,-0.0170204865291,-0.344975904951,-0.046306976403,-0.170196914471,0.0410488851266,-0.378930045312,-12.7297964096,0.234198778868,0.72479224205,0.203758254647,-5.01226329803,0.0671798214316
2017/07/09/10:04:37.325208,426199,1499565880,129194119,,0.79354768367,0.163459739884,0.162425793904,0.735528705467,0.674583670837,0.0410360020936,0.0474388132832,-0.00650221898224,-0.334469928665,-0.0390976047526,-0.182546562436,0.0342890179317,-0.336628667674,-12.38530159,-0.015985801816,1.09583246708,0.0320333912969,-4.9226474762,0.0119817554951
2017/07/09/10:04:37.335079,426200,1499565880,139200963,,0.793046714263,0.160189870254,0.161521368261,0.736360046757,0.673739298613,0.039584121373,0.0477738043241,-0.00665664599406,-0.36549566402,-0.0270935541357,-0.187460606126,0.0259383444541,-0.372982146816,-13.2749156952,0.5107640028,0.624920964241,-0.0293419361115,-5.38302850723,0.0597485378385
2017/07/09/10:04:37.345469,426201,1499565880,149195227,,0.793070027427,0.157051241021,0.161356418117,0.737101019105,0.672916116295,0.0387776129061,0.0486033414747,-0.0013326740395,-0.33816839327,-0.0276930082524,-0.191277273597,0.0254294402181,-0.340121212681,-13.084154129,0.527086257935,0.567645311356,-0.0806193351746,-5.27442646027,0.0579378083348
2017/07/09/10:04:37.354730,426202,1499565880,159193571,,0.793438130725,0.153386451661,0.160819777295,0.738477176918,0.671379969275,0.0379500755885,0.0496002801384,0.00345525944428,-0.366385039467,-0.0335309490339,-0.237664621872,0.0158428886475,-0.34796583276,-12.4275846481,0.387298226357,0.0489989221096,-0.0983136668801,-5.2010102272,0.0422151014209
2017/07/09/10:04:37.365376,426203,1499565880,169194329,,0.792586987284,0.149746705125,0.159555413047,0.739407273471,0.670442185726,0.0362364893298,0.0497099223341,0.00251848088105,-0.348561501633,-0.0514212680817,-0.228720646814,0.03894912173,-0.322362054083,-12.7942399979,0.201869308949,-0.625413656235,-0.028521053493,-5.34109640121,0.0949632525444
2017/07/09/10:04:37.375012,426204,1499565880,179199794,,0.79375948113,0.146697528826,0.160009865683,0.740323325422,0.669312499866,0.0360729305426,0.0513896394317,-0.00611668035237,-0.333346161437,-0.058086573273,-0.22774361573,0.0705610971609,-0.300718968457,-11.7115163803,0.448477506638,-0.214606463909,-0.00720870867372,-5.10148859024,0.114371776581
2017/07/09/10:04:37.384984,426205,1499565880,189193362,,0.793787089645,0.143847263613,0.159501130201,0.74096747894,0.66859800681,0.0352133366674,0.0519992438739,0.0115689019522,-0.325061779618,-0.0479679955148,-0.249599037411,0.0340060894395,-0.276931573816,-12.3455295563,0.372987449169,-0.0517735928297,-0.0363157838583,-5.38542556763,0.11165753752
2017/07/09/10:04:37.394974,426206,1499565880,199193281,,0.793524856402,0.140298885519,0.159246809168,0.742163577962,0.667283485349,0.0337357630225,0.052800303216,0.00404834897425,-0.352127476396,-0.0523253863451,-0.284018742073,0.0546815376257,-0.287918176936,-12.910443306,0.345889985561,0.0187725238502,-0.0143931880593,-5.61308956146,0.14334794879
2017/07/09/10:04:37.405139,426207,1499565880,209190636,,0.793210275223,0.136627632985,0.158111197015,0.742923275894,0.666466975625,0.0321365779166,0.053422999695,-0.00866443335877,-0.35412156458,-0.0494938827274,-0.295458656809,0.0804809913768,-0.292884126995,-13.629365921,0.276515007019,-0.310960501432,-0.0613228864968,-5.87726163864,0.159695520997
2017/07/09/10:04:37.414983,426208,1499565880,219205445,,0.793386827543,0.133369449258,0.157888341824,0.74369366483,0.665591754555,0.0309263617987,0.05432227265,-0.00324614712853,-0.360998455976,-0.0484669584805,-0.322386721305,0.0768938744066,-0.273356544633,-13.1745100021,0.0278475508094,-0.237810060382,-0.0154609978199,-5.73854351044,0.167411878705
2017/07/09/10:04:37.425074,426209,1499565880,229209465,,0.792866190496,0.129742197727,0.156937081605,0.744558332247,0.664664117782,0.0288952107426,0.0549505888065,-0.00444364615857,-0.367539195964,-0.054208119502,-0.345558218252,0.0945540671135,-0.263917973225,-12.6763048172,0.608733654022,-0.436064511538,-0.15642246604,-5.47319841385,0.175348490477
2017/07/09/10:04:37.434947,426210,1499565880,239191866,,0.792855856507,0.126415697662,0.156609888466,0.74520694747,0.663924604742,0.027110558196,0.055997699021,-0.0206372436116,-0.358862741141,-0.0610311649652,-0.353575817648,0.148434776364,-0.257048809829,-12.4888601303,0.755270957947,-0.412128210068,-0.19221547246,-5.40824890137,0.193125292659
2017/07/09/10:04:37.444782,426211,1499565880,249191392,,0.792749793631,0.122201020029,0.156438744903,0.74605453024,0.662940362884,0.0250314148139,0.0573248762765,-0.0258888264257,-0.368831069339,-0.0646096528238,-0.368197097508,0.176227060022,-0.261366960595,-11.5124864578,0.657321155071,-0.487825125456,-0.208948507905,-5.11935758591,0.185700044036
2017/07/09/10:04:37.455193,426212,1499565880,259200270,,0.79171952926,0.119153083066,0.154758205402,0.746805515823,0.662218954209,0.022449832722,0.0569524646715,-0.0478976897216,-0.370831248588,-0.0687071633804,-0.387124271451,0.250208560393,-0.256841908571,-10.7050905228,0.843529760838,-1.29409432411,-0.310931384563,-4.91325187683,0.171224474907
2017/07/09/10:04:37.464914,426213,1499565880,269193885,,0.79114018426,0.11545054694,0.153947199616,0.747348953495,0.661634375243,0.0201334808379,0.057481633203,-0.0628056386669,-0.388590252219,-0.0827174036582,-0.408133220266,0.297022166006,-0.241655089616,-10.61769104,0.733680188656,-1.50717198849,-0.353139579296,-4.88133525848,0.162590160966
2017/07/09/10:04:37.475035,426214,1499565880,279211744,,0.790501776698,0.11202363203,0.153671220687,0.747832032978,0.661115760174,0.0175962661114,0.0579963233349,-0.060252377326,-0.386164509493,-0.0819621019625,-0.400109324002,0.299355256305,-0.268624169213,-9.96164703369,0.806563258171,-0.830467045307,-0.377749443054,-4.55622291565,0.185753762722
2017/07/09/10:04:37.485087,426215,1499565880,289231428,,0.789483419828,0.108307263121,0.15260669708,0.749108203105,0.659744674865,0.014842197052,0.0579100441585,-0.079119804558,-0.399473809925,-0.068191266029,-0.436930614209,0.345070017887,-0.273826550645,-10.3623771667,0.67219555378,-0.561544001102,-0.404337972403,-4.63873243332,0.18076634407
2017/07/09/10:04:37.495114,426216,1499565880,299197586,,0.788864344434,0.105530043068,0.152474143623,0.749215564338,0.659635177007,0.0120437014377,0.0584159281643,-0.0851244193346,-0.361353359486,-0.0552884555123,-0.373476711733,0.371960058491,-0.27782013454,-9.94864845276,1.285110116,-0.166819363832,-0.461718827486,-4.46451473236,0.181685715914
2017/07/09/10:04:37.504888,426217,1499565880,309199083,,0.787980118199,0.101255021299,0.151857670122,0.750282841369,0.658448831205,0.00919901927318,0.0586188764596,-0.081263702766,-0.351701057121,-0.0350104444906,-0.393575844316,0.376441353462,-0.24441237111,-9.82929992676,0.860477268696,-0.620223879814,-0.499946177006,-4.40144872665,0.163375422359
2017/07/09/10:04:37.515189,426218,1499565880,319193762,,0.787100132237,0.0974318732684,0.151459038027,0.751071106067,0.657558109396,0.00653847821446,0.0588793232183,-0.0959855652969,-0.368679548797,-0.0544112125221,-0.404918307025,0.413265569436,-0.256129067011,-9.43850803375,0.601147413254,-0.430450856686,-0.394861698151,-4.13549470901,0.170299142599
2017/07/09/10:04:37.524811,426219,1499565880,329208622,,0.786107501337,0.0940684283367,0.151254742429,0.751773991511,0.656763877465,0.00358397243806,0.0590273672622,-0.0961942957213,-0.372110793079,-0.0569571635429,-0.407042774772,0.423446320034,-0.243810373898,-8.43933391571,0.7907756567,-1.0780826807,-0.429146647453,-3.70147943497,0.139334946871
2017/07/09/10:04:37.535050,426220,1499565880,339196503,,0.785138766364,0.0913114528069,0.150295057802,0.752585072376,0.655913275007,0.00102921605657,0.0582445295315,-0.115255959883,-0.335283737562,-0.0670968641993,-0.366556601169,0.487945949162,-0.221834501151,-8.17838954926,0.625103235245,-1.29321193695,-0.405379980803,-3.61372280121,0.121950961649
2017/07/09/10:04:37.544829,426221,1499565880,349197274,,0.783876597402,0.0877677309926,0.149575387242,0.753267280425,0.655139656398,-0.00223450194988,0.0580985529748,-0.104213040191,-0.34491825973,-0.0459373423065,-0.357333337555,0.45286225686,-0.27791660616,-7.68507814407,0.820303201675,-0.931481003761,-0.408512681723,-3.32653665543,0.172564536333
2017/07/09/10:04:37.554828,426222,1499565880,359199267,,0.783314972571,0.0844331223362,0.149777281151,0.754138288228,0.654105311507,-0.00457433287541,0.0583160283698,-0.110766985515,-0.346775411584,-0.0446368281772,-0.360420099567,0.475642021935,-0.302276089986,-6.90819263458,1.02929353714,-0.556018590927,-0.44000479579,-3.0532515049,0.134876787663
2017/07/09/10:04:37.565086,426223,1499565880,369193704,,0.782418577058,0.0815936289623,0.149384394852,0.754417879708,0.653759899917,-0.00761666037562,0.0582549785184,-0.104077514176,-0.324790430026,-0.0329924971904,-0.363947304534,0.470544367813,-0.23298677728,-7.20833206177,1.21143460274,0.273283809423,-0.582731306553,-3.20255112648,0.13952434063
2017/07/09/10:04:37.574971,426224,1499565880,379192969,,0.781206410609,0.0793900281174,0.149033265799,0.754879682134,0.65325183231,-0.0105871458733,0.0575032297061,-0.11302188234,-0.341044776788,-0.0170403425323,-0.380094042302,0.478939117012,-0.263069602156,-7.45394992828,2.00078058243,-0.506794333458,-0.872585237026,-3.21676778793,0.0989364758134
2017/07/09/10:04:37.584824,426225,1499565880,389196509,,0.779944270635,0.0754048223358,0.148575163993,0.755726798806,0.652213586219,-0.0138795970472,0.0574612939662,-0.118767294804,-0.32528311766,-0.0304980183278,-0.361236683746,0.505218574191,-0.248780089068,-5.22944259644,1.1755297184,-0.815236926079,-0.66905605793,-2.30779647827,0.0241305157542
2017/07/09/10:04:37.595005,426226,1499565880,399197542,,0.778709507799,0.0720165418838,0.14786889485,0.756468575415,0.651319183745,-0.0170295164751,0.0569965864232,-0.109095235567,-0.334200619476,-0.0337025590522,-0.355256638743,0.485629562856,-0.271248186989,-4.49913406372,0.741454422474,-1.25757789612,-0.665266096592,-2.0124270916,-0.0370054617524
2017/07/09/10:04:37.604973,426227,1499565880,409193909,,0.778061317255,0.0690163726517,0.147936108149,0.757344689306,0.650240389648,-0.0194837023132,0.0568932561503,-0.10947360771,-0.326385780096,-0.0240196913055,-0.336866275307,0.482313375906,-0.288750989931,-4.17123126984,0.588948905468,-0.758680045605,-0.492669522762,-1.88137865067,0.00508010387421
2017/07/09/10:04:37.614941,426228,1499565880,419195944,,0.777095076619,0.0663842802501,0.148165693766,0.757971583548,0.649462821285,-0.0220155484298,0.0565016630605,-0.102142871609,-0.313113663936,-0.00808714088381,-0.314975738922,0.459298525943,-0.283245230713,-3.38909721375,0.926294207573,-0.153409734368,-0.421808451414,-1.60657799244,0.0313854143023
2017/07/09/10:04:37.624847,426229,1499565880,429192699,,0.775675262421,0.0634051671568,0.14770841147,0.758534403686,0.648749441875,-0.0252334268004,0.0557942135372,-0.10422764708,-0.290432756612,-0.0107758356741,-0.294588412207,0.483172267023,-0.258392629024,-3.88880896568,0.625364303589,-0.0802558660507,-0.415866434574,-1.74590301514,-0.00186230242252
2017/07/09/10:04:37.635005,426230,1499565880,439200171,,0.775789691886,0.0614243674682,0.148249815515,0.759004625123,0.648123739539,-0.0269545935662,0.0558663331,-0.0818697126674,-0.293081770115,0.00816877330628,-0.286158131952,0.424687135391,-0.266906799885,-3.74417519569,1.49401843548,-0.548028230667,-0.577509343624,-1.72784399986,-0.000229552388191
2017/07/09/10:04:37.644881,426231,1499565880,449193802,,0.775478188738,0.0585507038923,0.148948434419,0.760401186868,0.646430947677,-0.0285785153959,0.0556806371512,-0.0625102160335,-0.293727008487,0.0297224513333,-0.266693828134,0.368165203116,-0.3125809224,-3.52922868729,0.881890177727,-0.314917564392,-0.515553832054,-1.66117978096,0.0218222215772
2017/07/09/10:04:37.655043,426232,1499565880,459199382,,0.773900619876,0.056671195057,0.148472701808,0.760976865134,0.645764211074,-0.031307201186,0.0540615721228,-0.0657535108509,-0.276010691142,0.0310410742546,-0.233893337281,0.369173396223,-0.315870722755,-3.54237937927,1.77042734623,-0.826785206795,-0.806320846081,-1.57301080227,-0.0141418799758
2017/07/09/10:04:37.665087,426233,1499565880,469191542,,0.774128696945,0.0536136339273,0.149212263854,0.762058074288,0.644388008575,-0.0325413554645,0.054521977237,-0.0610752269206,-0.24543689509,0.0326563956294,-0.190263979179,0.357962418449,-0.290122562895,-1.71052765846,0.725618839264,-0.963527977467,-0.482399046421,-0.949470579624,-0.062578484416
2017/07/09/10:04:37.675083,426234,1499565880,479191414,,0.77343612177,0.0512242173907,0.149783820799,0.762926340658,0.643287624362,-0.034695629956,0.0540429860035,-0.0595675255012,-0.246729617586,0.0209259159596,-0.165640403831,0.356101559795,-0.333317503623,-0.571937084198,0.397386878729,-0.779982686043,-0.400044083595,-0.502671897411,-0.107475452125
2017/07/09/10:04:37.684883,426235,1499565880,489192131,,0.773172235286,0.0488892310817,0.15039447565,0.763884508975,0.642100414598,-0.0360878745435,0.0537138700159,-0.057811177078,-0.235557190002,0.0354049571515,-0.153308424209,0.343551822666,-0.329407594308,-0.67879730463,0.407642155886,-0.71237963438,-0.375087410212,-0.547078073025,-0.0661888569593
2017/07/09/10:04:37.695101,426236,1499565880,499198957,,0.772336669695,0.0464010968458,0.150387828817,0.764823182252,0.640932314309,-0.0380374227395,0.0529568016093,-0.0557988453716,-0.212371550865,0.0373756790412,-0.115347719283,0.332879896666,-0.316660169048,-1.05825686455,-0.0939452946186,-1.06367087364,-0.282217442989,-0.715073525906,-0.0525814965367
2017/07/09/10:04:37.705238,426237,1499565880,509193237,,0.772138851602,0.0450960860979,0.150918489959,0.76542656515,0.640189193566,-0.0394039290413,0.0522235596319,-0.0498231755295,-0.224032935272,0.0404947452538,-0.119443812769,0.31337187262,-0.314206863157,-1.15099573135,0.27532055974,-0.710832238197,-0.413474261761,-0.804723739624,-0.0654542893171
2017/07/09/10:04:37.715097,426238,1499565880,519200804,,0.771393132456,0.0437051492423,0.150892628993,0.766363830485,0.639058569445,-0.0410591074182,0.0510369850366,-0.0392718070691,-0.231717968521,0.0591900691421,-0.104531941073,0.279883212416,-0.345301970494,-0.866914749146,1.02858173847,-0.93802177906,-0.522220551968,-0.650236487389,-0.0875219479203
2017/07/09/10:04:37.724759,426239,1499565880,529199857,,0.771007018783,0.0403845865328,0.151612550839,0.768007024404,0.637014931922,-0.0424260877975,0.0507662688177,-0.0495356909227,-0.219694579122,0.0658102024589,-0.0959019367405,0.294880787589,-0.381161234973,-1.24414992332,0.561303257942,-0.309295505285,-0.419262439013,-0.791592419147,-0.057045917958
2017/07/09/10:04:37.734765,426240,1499565880,539202073,,0.771107007087,0.0384254095943,0.152346074263,0.768638862783,0.636209375672,-0.0432059767273,0.0506475320444,-0.0469071077395,-0.213136337171,0.0654269244818,-0.0894820696821,0.283931839364,-0.364539681727,-0.237363234162,0.476175546646,-0.412015199661,-0.394812405109,-0.402122378349,-0.105326063931
2017/07/09/10:04:37.745038,426241,1499565880,549191479,,0.770737470324,0.0366629958175,0.153154145896,0.769699871572,0.634871107346,-0.0446930721361,0.0500331296434,-0.0362112493546,-0.2193715151,0.0599016932135,-0.0799272779845,0.240595267728,-0.381590722358,-0.0573747232556,0.56330293417,0.0999212712049,-0.383699297905,-0.35608908534,-0.136199504137
2017/07/09/10:04:37.755083,426242,1499565880,559199712,,0.769828977826,0.0349160974417,0.153112148167,0.770755038219,0.633593693079,-0.0460069003644,0.0487756934187,-0.0268950701767,-0.21138311728,0.0657494050315,-0.0626723752219,0.21224408247,-0.37044837538,-1.00137734413,0.98425757885,-0.671346127987,-0.459367632866,-0.647161722183,-0.0810195729136
2017/07/09/10:04:37.765263,426243,1499565880,569199254,,0.770087735489,0.0328827953347,0.154318053123,0.771864052119,0.632212940529,-0.0464202372132,0.0487631464348,-0.0325933998296,-0.194581274301,0.0624088590003,-0.0443841832373,0.22725064187,-0.357228722497,-0.708136856556,0.720240116119,-0.547850072384,-0.3910176754,-0.620420634747,-0.0846969857812
2017/07/09/10:04:37.775014,426244,1499565880,579202482,,0.768893982555,0.0301383200088,0.154460352746,0.773108573147,0.630604372919,-0.0485123987211,0.0478310166297,-0.051141978736,-0.206785630656,0.0642003853671,-0.0536422710651,0.252713142071,-0.391575212312,-0.519906103611,0.0923828631639,-0.889801442623,-0.192955940962,-0.52148348093,-0.0822436287999
2017/07/09/10:04:37.784649,426245,1499565880,589197456,,0.769429881824,0.0293637637338,0.155600657951,0.773949034556,0.629603891501,-0.0484862939337,0.0474437669063,-0.0381469045183,-0.198278335634,0.0726276003582,-0.0293828806797,0.219560633225,-0.383908871652,-0.567717373371,0.752530574799,-0.305119156837,-0.297659188509,-0.664231479168,-0.0272969231009
2017/07/09/10:04:37.795446,426246,1499565880,599209399,,0.768469360058,0.0276355109293,0.155559602318,0.775122581129,0.628151638322,-0.0497815994982,0.0461767890657,-0.0433890395537,-0.203133890945,0.0738443567758,-0.0176912389048,0.214688607076,-0.398168312987,0.097896784544,1.03421413898,-0.936912596226,-0.525400519371,-0.362808287144,-0.149957180023
2017/07/09/10:04:37.805053,426247,1499565880,609191365,,0.768511133569,0.0256670860867,0.156821783849,0.776220336207,0.62676072221,-0.050445568987,0.0459154802091,-0.0486756927561,-0.19890726958,0.0682352951931,-0.00541771221626,0.22281077723,-0.399056747893,0.565302431583,1.05400407314,-0.363898009062,-0.51491355896,-0.280901551247,-0.0982565283775
2017/07/09/10:04:37.815223,426248,1499565880,619200102,,0.767829663049,0.0234560816021,0.157018653943,0.777439007541,0.625243044442,-0.0513743368433,0.0449488870231,-0.0540192873207,-0.197836847484,0.0540201703035,0.000669329335665,0.229977193546,-0.397150549475,1.17402100563,0.543390631676,-0.351383686066,-0.439312875271,0.0122637301683,-0.151656001806
2017/07/09/10:04:37.824947,426249,1499565880,629222841,,0.767398304081,0.0216384250644,0.157567877525,0.778650412826,0.623738460797,-0.051958097776,0.0442065968431,-0.0541212665355,-0.19935136732,0.064128285239,-0.00190841123241,0.216600871059,-0.402257443669,1.02825701237,0.652934253216,-0.75527715683,-0.418213039637,-0.0252900011837,-0.123216874897
2017/07/09/10:04:37.834785,426250,1499565880,639191624,,0.766415066236,0.0195327656053,0.158559863378,0.780121451839,0.621847869205,-0.0532519659476,0.0433586908116,-0.0486463669259,-0.195039829821,0.0651752666251,0.0198402436313,0.191166479018,-0.410289072433,1.17139446735,0.625152230263,-0.467435449362,-0.481782495975,0.0607151538134,-0.171706438065
2017/07/09/10:04:37.845018,426251,1499565880,649194541,,0.76609376292,0.0181185222654,0.15908559795,0.780724425584,0.621097720249,-0.0538558432548,0.0425034274503,-0.0503630233628,-0.189302961316,0.0693748480683,0.0407217244736,0.182753026403,-0.417587979403,1.65506517887,0.81296980381,-0.147904872894,-0.378959625959,0.201572313905,-0.19168895483
2017/07/09/10:04:37.855139,426252,1499565880,659192699,,0.765660731177,0.0161000641355,0.159834955663,0.781776943189,0.619709490949,-0.0548502451861,0.0421474617216,-0.0406213241617,-0.179243532641,0.0789656009286,0.00900757842158,0.165552430092,-0.38088663361,2.39905977249,0.142048090696,-0.702699959278,-0.211462900043,0.607552528381,-0.236494660378
2017/07/09/10:04:37.865045,426253,1499565880,669198109,,0.765013947275,0.0138163119498,0.160225085504,0.782985974317,0.618151364535,-0.0556912704415,0.0414769447154,-0.0520741240353,-0.202174048197,0.0706756633553,-0.0150575451332,0.184863650123,-0.375382122228,2.35403394699,-0.266112804413,-0.515524148941,0.00907595455647,0.566895902157,-0.20948253572
2017/07/09/10:04:37.875177,426254,1499565880,679200440,,0.765067304469,0.0122533799715,0.161322640734,0.784003882798,0.616837755402,-0.0560574828305,0.0413116676844,-0.0648826710344,-0.20195512642,0.0683045953163,-0.0031186323831,0.20711720952,-0.382906296357,2.48552322388,-0.113942220807,-0.408665806055,-0.0110515244305,0.501510798931,-0.181525528431
2017/07/09/10:04:37.884667,426255,1499565880,689194836,,0.763935267414,0.010710313223,0.161401046066,0.785084649818,0.615462720116,-0.0571094544766,0.039827665976,-0.0659861620091,-0.210803151305,0.0793632601396,-0.0139085007189,0.189333236268,-0.44339736093,2.03263020515,0.455068320036,-0.663815617561,-0.180539354682,0.344801902771,-0.220340549946
2017/07/09/10:04:37.895472,426256,1499565880,699198607,,0.763033425066,0.00808085917594,0.162134670641,0.786755101162,0.613275546783,-0.0580930014203,0.0391754731885,-0.0724157099637,-0.199841792401,0.0801839419881,0.000256555942506,0.205333926091,-0.412407638054,2.18026447296,-0.00753617286682,-1.08177542686,-0.0939233452082,0.423702955246,-0.187674194574
2017/07/09/10:04:37.904829,426257,1499565880,709201069,,0.762185583269,0.0065064895051,0.162330345339,0.787815714084,0.611897673641,-0.0590056418757,0.0380259366997,-0.0909633172201,-0.201038310452,0.0531477532403,0.036928348321,0.241194876274,-0.438421599944,2.60910272598,0.194077685475,-1.02496862411,-0.180422961712,0.579005599022,-0.213047325611
2017/07/09/10:04:37.915068,426258,1499565880,719193052,,0.761431647465,0.00392006537649,0.163953033499,0.78918509305,0.610103008035,-0.0595126841965,0.0376755745151,-0.0803709686624,-0.203305443682,0.0686363533077,0.0252971951286,0.204544383518,-0.430624350476,2.20213413239,-0.248546853662,-0.0654099434614,-0.098021902144,0.375099271536,-0.171513453126
2017/07/09/10:04:37.924880,426259,1499565880,729199649,,0.760671027265,0.00254114868005,0.164806053554,0.790186689676,0.608778388269,-0.0603748361987,0.0367253126554,-0.0982960175493,-0.198169158317,0.0701605670407,0.0524686159825,0.230334913697,-0.441320421786,2.59495425224,-0.282006323338,-0.3275821805,-0.0653657987714,0.438966095448,-0.16669651866
2017/07/09/10:04:37.934808,426260,1499565880,739197301,,0.758883161593,0.000843184281523,0.164589063984,0.791396411395,0.607183446793,-0.061765752986,0.0347127315257,-0.136269917388,-0.198585601872,0.056594220924,0.0536028680935,0.3205574171,-0.453183892474,1.87845802307,-0.0447903126478,-1.20038104057,-0.232462197542,0.1562615484,-0.151066511869
2017/07/09/10:04:37.945308,426261,1499565880,749199900,,0.758581312148,-0.000787740530762,0.165585090842,0.792364936826,0.605896649736,-0.0621539145109,0.0344085402094,-0.13359121872,-0.192351806182,0.0677416679139,0.0395895101736,0.313132536596,-0.428595283915,3.15224504471,-0.11461506784,-0.946896970272,-0.164979472756,0.514770150185,-0.179505854845
2017/07/09/10:04:37.955078,426262,1499565880,759199296,,0.757036125593,-0.00201039555797,0.165790538036,0.793552311067,0.60434163092,-0.0631764814027,0.0324754512722,-0.124928648077,-0.192734937152,0.0501613915791,0.0620576600706,0.281203103237,-0.4203743016,3.80716967583,-0.101400256157,-0.903336942196,-0.120576255023,0.851979315281,-0.246667206287
2017/07/09/10:04:37.965188,426263,1499565880,769199702,,0.755799388311,-0.00504638951853,0.166291716811,0.794932727623,0.602430475563,-0.0643176861449,0.0319799299007,-0.115625839224,-0.184660689895,0.0512625142203,0.0571876313364,0.257694039306,-0.427184542516,4.50078105927,-0.804704487324,-0.817998290062,0.111983336508,1.23171412945,-0.304355323315
2017/07/09/10:04:37.974988,426264,1499565880,779197771,,0.755010848217,-0.00687252390769,0.166984126922,0.795914687135,0.601102780644,-0.0649325700242,0.0312892834021,-0.113110641982,-0.173941864311,0.0422803987892,0.0753664746934,0.252764112444,-0.403040735056,4.20237255096,-1.17016494274,-0.875061690807,0.226548403502,1.1334092617,-0.283922046423
2017/07/09/10:04:37.985179,426265,1499565880,789194887,,0.754251091142,-0.00832347633989,0.167554529446,0.797105061742,0.59952955923,-0.0653599405399,0.030263944345,-0.104191197754,-0.179575879404,0.0512630748436,0.0834016377566,0.212721822456,-0.41145442119,2.80793046951,-0.407019913197,-0.59043443203,-0.0431880801916,0.619188725948,-0.230172753334
2017/07/09/10:04:37.995264,426266,1499565880,799201094,,0.75299177884,-0.0098371775445,0.167364532744,0.798216771101,0.598091757351,-0.0657176394819,0.0285906974863,-0.109352805662,-0.202740354254,0.0560800331482,0.0610501108413,0.193259042481,-0.437603308311,2.79034876823,0.728986024857,-0.86389040947,-0.360941469669,0.616544783115,-0.213741391897
2017/07/09/10:04:38.004915,426267,1499565880,809201217,,0.751448151161,-0.0118368363641,0.167852499806,0.799231656151,0.596602498952,-0.067254360721,0.027768129467,-0.11316764229,-0.167656125519,0.041441090099,0.0968029236188,0.213912733179,-0.403084561389,1.65291309357,0.0210678726435,-0.518069803715,-0.228123769164,0.332370847464,-0.187063038349
2017/07/09/10:04:38.015217,426268,1499565880,819193990,,0.750723347086,-0.0140858968809,0.168389426436,0.800557656922,0.59484219893,-0.0673304419695,0.0271442056262,-0.108575623644,-0.176114346129,0.0290912906578,0.0739872449069,0.2028442074,-0.386791135336,3.16795253754,-0.679426193237,0.147437036037,0.0622739642859,0.905949652195,-0.245092302561
2017/07/09/10:04:38.024646,426269,1499565880,829207393,,0.749803080783,-0.0144265109354,0.1687461393,0.801094008309,0.594121827542,-0.0678734529109,0.0257067749826,-0.103130824106,-0.190961658774,0.046378281067,0.0496308271338,0.171382792282,-0.396014238678,3.26582837105,0.494760364294,0.105133607984,-0.0944729745388,0.934983670712,-0.253014951944
2017/07/09/10:04:38.034874,426270,1499565880,839194198,,0.748805486546,-0.0177699760083,0.169630511532,0.80269840585,0.591904695276,-0.0682897576305,0.0257023336992,-0.135556393117,-0.20549807286,0.0278033986366,0.0531290888636,0.233214974205,-0.422103390073,3.07872819901,-0.404859960079,0.261519104242,0.109336771071,0.845233619213,-0.253551244736
2017/07/09/10:04:38.045213,426271,1499565880,849191607,,0.747523912477,-0.0193323892285,0.169666495692,0.803624827007,0.59060304888,-0.0690927124684,0.024522910808,-0.108979132488,-0.183774937608,0.0547580606391,0.0509015959148,0.18070728659,-0.352227613722,1.22147035599,-0.666873991489,0.0137108415365,0.125638961792,0.21569417417,-0.183914735913
2017/07/09/10:04:38.054923,426272,1499565880,859195806,,0.746559994304,-0.0208819803774,0.170325377136,0.804620635721,0.589236949632,-0.0694553837157,0.0236938690955,-0.116334848408,-0.19332754232,0.0514028743306,0.0531141862361,0.180430137283,-0.390788157,2.25456190109,0.190969184041,-0.0674014762044,-0.109719634056,0.631710231304,-0.271834313869
2017/07/09/10:04:38.065067,426273,1499565880,869191249,,0.745036176264,-0.0227571676647,0.170303437169,0.80545444653,0.587992100218,-0.0706592589333,0.022708891958,-0.105317392328,-0.181046670581,0.0473876903966,0.085581249023,0.144048105053,-0.395520095661,1.94166111946,0.105453670025,-0.407161772251,-0.0620016157627,0.568875193596,-0.263225466013
2017/07/09/10:04:38.075114,426274,1499565880,879198407,,0.744199554999,-0.024362182886,0.171094765724,0.806482979147,0.586578381428,-0.0708970863869,0.0220138576638,-0.111547547922,-0.175845222679,0.0334642269142,0.0618481756795,0.170498464479,-0.361641277818,2.54976725578,-0.308526277542,0.141197293997,0.0942137986422,0.830509841442,-0.318002521992
2017/07/09/10:04:38.084611,426275,1499565880,889193133,,0.742805929251,-0.0260082945911,0.170323250245,0.807362342724,0.585299706595,-0.0718485031061,0.0206904232086,-0.124271732441,-0.204913713544,0.0418101934651,0.0338362744622,0.172524635708,-0.393909315483,1.83161962032,-0.1309941113,-0.375833421946,-0.0116522759199,0.624143004417,-0.313884139061
2017/07/09/10:04:38.094997,426276,1499565880,899192080,,0.741760465543,-0.0280318572504,0.170673632836,0.808451118621,0.583756341141,-0.0723326045747,0.0200827611296,-0.119153330504,-0.192649457419,0.00799808601712,0.0403137888052,0.191672173461,-0.36344043376,1.48651385307,-0.0424842238426,0.00744412839413,0.00206077098846,0.422701209784,-0.312365651131
2017/07/09/10:04:38.104897,426277,1499565880,909192176,,0.740304200709,-0.0298905892558,0.17048360454,0.809524868108,0.582224832733,-0.0729786652866,0.0189168305057,-0.106088611543,-0.20169730441,0.0134957526854,0.0415627018365,0.140020207124,-0.375820170221,0.892196893692,0.14151352644,-0.571364164352,-0.10200638324,0.280048877001,-0.27490311861
2017/07/09/10:04:38.114868,426278,1499565880,919207737,,0.740163590505,-0.031997650132,0.171811207931,0.810475652531,0.580928088808,-0.0726591326123,0.019298257356,-0.0910412216978,-0.19614797082,0.0342113943446,0.0281444558576,0.10297429364,-0.369075600226,0.41845458746,0.681374371052,-0.00372897088528,-0.287546992302,0.00848699361086,-0.246570050716
2017/07/09/10:04:38.124904,426279,1499565880,929193770,,0.739589445526,-0.034417692479,0.171932582932,0.811570831277,0.579374122301,-0.0728489731882,0.0192727614512,-0.0949001556971,-0.212795277941,0.0448009337064,0.0251886595468,0.0880718534278,-0.366759199358,-0.375018656254,0.828197002411,-0.14259211719,-0.41509360075,-0.38116133213,-0.222024708986
2017/07/09/10:04:38.134724,426280,1499565880,939193497,,0.738389196682,-0.0359385208088,0.171726095549,0.812467454358,0.57812458439,-0.073093283557,0.0180547066549,-0.0819269473153,-0.197461305691,0.0317064875305,0.0412635826564,0.0655028641117,-0.345877797775,-0.236715629697,0.437405943871,-0.609152674675,-0.269653618336,-0.217317461967,-0.213290929794
2017/07/09/10:04:38.145293,426281,1499565880,949198098,,0.737770307528,-0.0378423929397,0.172324683873,0.813263369227,0.5769701281,-0.0733627224205,0.0180575334413,-0.096141666964,-0.209818004492,0.024110416827,0.0369880619747,0.0773769954215,-0.358007575032,0.228553086519,1.48543071747,-0.481392651796,-0.455856561661,-0.187123835087,-0.203028619289
2017/07/09/10:04:38.154887,426282,1499565880,959199602,,0.736981536963,-0.0400684573039,0.172309409406,0.814456685922,0.575305271663,-0.0732914697046,0.0176779982463,-0.0775508650177,-0.197197449911,0.0218764147783,0.0364581297513,0.0373528737456,-0.345538808255,-0.0216433703899,0.394356876612,-0.433570861816,-0.179987058043,-0.192157045007,-0.175620839
2017/07/09/10:04:38.164947,426283,1499565880,969200041,,0.736077034459,-0.041827593927,0.172648383624,0.815173014908,0.574233991072,-0.0737942139299,0.0173980818877,-0.0771424965992,-0.211644053022,0.0169275956943,0.0116591606954,0.0345272330864,-0.342972195071,0.114109203219,0.93917298317,-0.682515978813,-0.298491060734,-0.216609627008,-0.17236186564
2017/07/09/10:04:38.174941,426284,1499565880,979199024,,0.73519280901,-0.0440708172472,0.173062793192,0.816224566929,0.572790452152,-0.0735025393849,0.0169094934752,-0.0861356478139,-0.197920730362,0.0115349588555,0.0521397060196,0.0539799058624,-0.314715913424,-0.709660828114,0.434147119522,-0.255236268044,-0.249555841088,-0.55463129282,-0.104163713753
2017/07/09/10:04:38.185148,426285,1499565880,989199653,,0.734675821886,-0.045416711916,0.172104631182,0.816535402944,0.572284546339,-0.0740829052648,0.0164941477046,-0.0870806236937,-0.210484247868,0.00724763620829,0.0497442353682,0.0388640113858,-0.323998373126,-1.21215331554,1.2766752243,-0.7588352561,-0.543074190617,-0.852620363235,-0.0562670007348
2017/07/09/10:04:38.195221,426286,1499565880,999197345,,0.734219809736,-0.0472362803391,0.17263686335,0.817485854355,0.571014741948,-0.0734387687655,0.0163030564394,-0.0694929955974,-0.200350868812,0.0176363299622,-0.00207477332138,0.0231176703893,-0.287065430772,-2.052318573,1.14684939384,-0.758532941341,-0.553068339825,-1.23321962357,0.000502616167068
2017/07/09/10:04:38.205079,426287,1499565881,9194198,,0.733259873047,-0.0494723926092,0.17300106126,0.818335986129,0.569746882313,-0.0738379800363,0.0162066839421,-0.0641249255355,-0.193729003759,0.0159904136447,0.0302997184331,-0.00478555614978,-0.280441904048,-1.68835425377,0.50699108839,-0.95556139946,-0.390143275261,-1.08748209476,-0.0150291770697
2017/07/09/10:04:38.214814,426288,1499565881,19202174,,0.732357763693,-0.0516567314435,0.172605519426,0.818849347582,0.569002229143,-0.0739872130494,0.0157512380545,-0.0703234603611,-0.19223145342,0.00183758045415,0.0373837338899,0.0132048421733,-0.25894037761,-2.04141044617,1.12886190414,-1.42448055744,-0.54805123806,-1.25883853436,0.0356866568327
2017/07/09/10:04:38.224769,426289,1499565881,29193407,,0.732426881568,-0.0531256878803,0.173170045841,0.819701871743,0.567859008651,-0.0732506673433,0.0161036483327,-0.0810802121734,-0.211156207957,-0.00242971073116,0.0342033824887,0.0149505663061,-0.287378231467,-2.4759042263,0.581783354282,-0.943380713463,-0.438593089581,-1.43291509151,0.0839569717646
2017/07/09/10:04:38.234854,426290,1499565881,39200168,,0.731329995601,-0.0555406682003,0.172873561344,0.820702743793,0.566362641357,-0.0736900923588,0.0158156597579,-0.0544764443925,-0.183665720355,0.00947272790735,0.0223707896962,-0.0359657372616,-0.282838061314,-1.75721240044,0.429419279099,-1.35283529758,-0.402454823256,-1.13679528236,0.041245855391
2017/07/09/10:04:38.245034,426291,1499565881,49197346,,0.731213882334,-0.056954507225,0.173259609376,0.821438147362,0.565355740205,-0.0731834109654,0.0160139138117,-0.063186993769,-0.203982770496,-0.00887487926566,0.000351908598953,-0.0183992156884,-0.313926637978,-1.34056580067,0.778347074986,-0.862388908863,-0.454066812992,-1.01031839848,0.0308528542519
2017/07/09/10:04:38.255068,426292,1499565881,59205888,,0.730030739838,-0.0587248183976,0.172263333958,0.821818475827,0.564755897579,-0.0736938122206,0.0153098327702,-0.0561261082898,-0.188333447117,-0.00162574407611,-0.004031764969,-0.0325810835618,-0.284301255482,-3.02118706703,1.24449205399,-1.63866376877,-0.575642585754,-1.59452188015,0.0920579880476
2017/07/09/10:04:38.265031,426293,1499565881,69200354,,0.729721716851,-0.0603368390596,0.172519074136,0.822861559336,0.563270291625,-0.0734020271498,0.0154134729918,-0.0665912057003,-0.179130861701,-0.0044966587082,0.0101554324517,-0.00720947778195,-0.289015302622,-2.00538730621,1.22624576092,-0.967266142368,-0.570993244648,-1.26846551895,0.0273145437241
2017/07/09/10:04:38.274816,426294,1499565881,79197928,,0.728550111347,-0.0629303423061,0.172665768983,0.823895368666,0.561742683274,-0.0735382721891,0.0152873085623,-0.0869847900004,-0.196281709414,-0.00965522470519,0.0139936199908,0.0266540096488,-0.295193608946,-3.16992640495,0.876734018326,-1.37636113167,-0.554997503757,-1.69374513626,0.0808009952307
2017/07/09/10:04:38.284760,426295,1499565881,89201720,,0.72779602777,-0.0638145248339,0.172099455681,0.824219813643,0.561235404207,-0.0739189148099,0.0145778563569,-0.0896268935979,-0.195364323632,-0.00511548811407,0.00965869253025,0.0382780256142,-0.256674566866,-2.82780814171,1.70151758194,-2.27676343918,-0.783502697945,-1.64146304131,0.107238285244
2017/07/09/10:04:38.295222,426296,1499565881,99200750,,0.727195684259,-0.0656469433179,0.171948586012,0.824773467551,0.560446648646,-0.0737580073505,0.014423508487,-0.0794694228197,-0.191925641038,-0.00578640745972,0.00774604880017,0.0185654091086,-0.223443359483,-3.07132220268,1.32182717323,-2.34555101395,-0.765627503395,-1.77765548229,0.148077398539
2017/07/09/10:04:38.304788,426297,1499565881,109193009,,0.726944260934,-0.0666792823862,0.172165986314,0.825248833421,0.559855738464,-0.0729707964882,0.0141837197404,-0.0753362729571,-0.179991806571,-0.0125192932499,0.0383399730652,0.00766192845627,-0.211436323682,-2.01923060417,1.3646364212,-1.8202316761,-0.654689610004,-1.35522627831,0.0838953852654
2017/07/09/10:04:38.315027,426298,1499565881,119194465,,0.725814151377,-0.0692336275624,0.172461461606,0.825991772486,0.558661426833,-0.0736677703969,0.0144243391491,-0.0767337514584,-0.170061473138,-0.0114050512805,0.0267044524177,0.0150164645871,-0.239913582901,-2.22975707054,0.959216713905,-1.42553508282,-0.544279873371,-1.38170206547,0.113496974111
2017/07/09/10:04:38.324957,426299,1499565881,129200355,,0.725320780866,-0.0713568595646,0.172518340953,0.82668694083,0.557577403161,-0.0739683331236,0.0149942335688,-0.0868814106824,-0.193161692738,-0.00793782780919,-0.0165000267425,0.0261659752614,-0.278211828677,-2.88167452812,1.01424479485,-1.3398720026,-0.629076361656,-1.56454908848,0.0834515690804
2017/07/09/10:04:38.335037,426300,1499565881,139199623,,0.724420068302,-0.0725408507751,0.172348608185,0.826930368554,0.557205662204,-0.074171398364,0.014374256007,-0.0836794507409,-0.189673681007,-0.00904694281491,-0.0344032491141,0.033393169343,-0.252082322405,-2.445987463,0.966998696327,-1.25672006607,-0.406237334013,-1.39482820034,0.0877425372601
2017/07/09/10:04:38.345712,426301,1499565881,149196517,,0.723123301191,-0.0746589184471,0.171738907756,0.827468692904,0.556301655141,-0.0750049361272,0.0140815591421,-0.0882887928719,-0.179113983155,-0.0194878159908,-0.0318407231513,0.0764854577508,-0.170514243196,-3.48034834862,0.730786442757,-1.6736317873,-0.509893000126,-1.658156991,0.112169332802
2017/07/09/10:04:38.355172,426302,1499565881,159193102,,0.722250283717,-0.0764160743154,0.171675238922,0.827810562054,0.555786258168,-0.0751100203634,0.0137765534726,-0.0979100663801,-0.196401460401,-0.0224857227794,-0.0265481355509,0.0833424221288,-0.149491950892,-3.10682439804,1.00950169563,-1.49266254902,-0.440245628357,-1.56358528137,0.0893276706338
2017/07/09/10:04:38.364993,426303,1499565881,169194308,,0.721324351673,-0.0783279994758,0.171896913618,0.82806968926,0.555349803403,-0.0755080306981,0.0136280185435,-0.114160060959,-0.196706400174,-0.0173345476355,-0.0114007749638,0.114119344854,-0.109251310298,-3.4323143959,1.26898288727,-1.07586860657,-0.483966976404,-1.84215247631,0.133558928967
2017/07/09/10:04:38.374883,426304,1499565881,179195393,,0.720121410918,-0.0796578226964,0.171411619894,0.828157681075,0.555180060793,-0.075931025906,0.0128232085963,-0.11392284263,-0.170759282351,-0.0144832692442,0.00821188382698,0.137937930606,-0.0630453361636,-3.7553062439,1.97519898415,-1.21355235577,-0.871487677097,-1.97399413586,0.113012582064
2017/07/09/10:04:38.384945,426305,1499565881,189195473,,0.718711376262,-0.0814871004926,0.171220193329,0.828532968927,0.554493240582,-0.0769217019191,0.0123861747339,-0.0930976997009,-0.147742300634,-0.00968763690314,0.0151504825289,0.10118880518,-0.0868409960231,-4.49196195602,1.55780804157,-1.54702830315,-0.914066553116,-2.28251194954,0.143947377801
2017/07/09/10:04:38.395131,426306,1499565881,199194531,,0.717683413531,-0.0828437515248,0.170773115463,0.829226921352,0.5534430952,-0.0770961206826,0.0118169985795,-0.106200053387,-0.155455509291,-0.00809051768548,0.0446630876644,0.0920175588359,-0.208037042944,-5.11709117889,2.13575339317,-1.68586587906,-1.12568712234,-2.52286171913,0.187612995505
2017/07/09/10:04:38.405005,426307,1499565881,209206516,,0.717217763255,-0.0837235610024,0.170825841325,0.829723719183,0.552713493295,-0.0770354068523,0.0114843478481,-0.0954888306343,-0.15799350756,-0.0125498993357,0.0227444212262,0.0639962971698,-0.259539330467,-4.82673931122,2.21936821938,-1.88268005848,-0.985294938087,-2.42133235931,0.189487293363
2017/07/09/10:04:38.415021,426308,1499565881,219198032,,0.716271267562,-0.0848966345219,0.170442114555,0.830676817212,0.551302266142,-0.0769960723578,0.0106508936274,-0.102681250641,-0.156045429935,-0.0200296596872,0.0332335141483,0.0816104732237,-0.283034078466,-4.65649652481,1.88500452042,-1.56646537781,-0.98472070694,-2.27627038956,0.168754056096
2017/07/09/10:04:38.425081,426309,1499565881,229200019,,0.714935164914,-0.0865556514304,0.170279712779,0.831241505171,0.550359602045,-0.0777138351838,0.0101206886712,-0.0718799572112,-0.128655197125,0.00730818822289,0.032378413992,0.025631898585,-0.232166607542,-5.54598236084,1.69741225243,-2.01098442078,-0.956586122513,-2.53720903397,0.208775997162
2017/07/09/10:04:38.434886,426310,1499565881,239200257,,0.714164145818,-0.0875771214663,0.170430418627,0.831963181893,0.549295781722,-0.0776045179909,0.00943116877192,-0.0991710836942,-0.115832730898,-0.0202376189887,0.0619091732007,0.106257461411,-0.233766086147,-4.48535776138,1.48243188858,-1.64467048645,-0.830023825169,-2.21824359894,0.182111337781
2017/07/09/10:04:38.445135,426311,1499565881,249192510,,0.713645272027,-0.0893191916139,0.170047513705,0.832515312371,0.548444543983,-0.0776861683104,0.00957580786595,-0.105044837139,-0.1229454236,-0.0225457158827,0.0600569253837,0.119417434166,-0.250662880608,-4.79736948013,1.74868655205,-2.00506973267,-0.993716716766,-2.29480075836,0.159833580256
2017/07/09/10:04:38.454975,426312,1499565881,259191900,,0.712695197005,-0.089805704136,0.169798864981,0.832883986239,0.547744394136,-0.078742194885,0.00894488141879,-0.092220313955,-0.0979583008271,-0.0252847393416,0.0717089898198,0.115496007419,-0.225939415494,-4.71974563599,2.21179223061,-1.9251909256,-1.04596376419,-2.28966498375,0.184559330344
2017/07/09/10:04:38.464759,426313,1499565881,269192222,,0.711261843284,-0.0909011404615,0.169676625971,0.833364707729,0.547016710837,-0.0788500914108,0.00765800641771,-0.122119742353,-0.149272559436,-0.0323925300198,0.0428964899522,0.14423237322,-0.265664279742,-4.57487773895,2.40788912773,-1.78219509125,-1.10327577591,-2.22653436661,0.151025429368
2017/07/09/10:04:38.474977,426314,1499565881,279200366,,0.710832700009,-0.091973995463,0.16968987384,0.834081127907,0.545912613644,-0.0789302817105,0.00762239868031,-0.118945419724,-0.129622408531,-0.027353445026,0.0660227606746,0.145986906044,-0.233671504519,-4.7185997963,2.04264426231,-1.36071062088,-0.997977972031,-2.30858230591,0.14605101943
2017/07/09/10:04:38.484592,426315,1499565881,289192362,,0.709869993688,-0.0926994115207,0.168959310459,0.834480108972,0.545293216959,-0.0790946051785,0.00650374510613,-0.081174034456,-0.0931446183946,-0.00849273709223,0.0628551215005,0.0910831478299,-0.190946278813,-4.6502790451,1.87071454525,-1.97686243057,-0.983215212822,-2.2527961731,0.13904067874
2017/07/09/10:04:38.495154,426316,1499565881,299204019,,0.709267096459,-0.0936405791356,0.169600575309,0.835016787294,0.54444680422,-0.0792689146312,0.00640948395795,-0.0964941703527,-0.0950092827184,-0.0341056331117,0.0799329809085,0.135904660276,-0.225564464953,-3.35084223747,1.85013151169,-1.07874381542,-0.88574898243,-1.78927254677,0.030701354146
2017/07/09/10:04:38.505021,426317,1499565881,309192286,,0.707837798483,-0.0947599669728,0.168609911312,0.835468280485,0.543633119607,-0.0801763651519,0.00524728893954,-0.0718689376794,-0.0813317842835,-0.0162671754972,0.061604597847,0.088142182172,-0.192849093175,-4.39352989197,1.42458581924,-1.58743619919,-0.861814856529,-2.05998373032,0.0932082682848
2017/07/09/10:04:38.514971,426318,1499565881,319202870,,0.707638072399,-0.095411329467,0.16877440186,0.835846400561,0.543059635319,-0.0801288832515,0.0051370444552,-0.100772926035,-0.117675386919,-0.020125864335,0.050069783049,0.11811287064,-0.239640835672,-3.85457992554,2.13713121414,-1.56409823895,-0.977222681046,-1.93543076515,0.0805359780788
2017/07/09/10:04:38.524875,426319,1499565881,329196798,,0.706798902215,-0.095950560192,0.168706945655,0.836199674781,0.5425056719,-0.0802489542078,0.00421962094036,-0.0637977343457,-0.0561970460442,-0.0126202272285,0.0654298382094,0.102538299176,-0.151135409624,-3.14696955681,1.57660079002,-1.779504776,-0.710853457451,-1.64050400257,0.0542789697647
2017/07/09/10:04:38.534945,426320,1499565881,339194598,,0.705651566759,-0.0967378345602,0.168139313355,0.836785178197,0.541526053873,-0.0808094666231,0.00315097300548,-0.074010270969,-0.0720327776525,-0.0147568970858,0.0605936916884,0.108512496002,-0.166517837426,-4.07557201385,1.47921323776,-2.12028741837,-0.718458473682,-2.00389695168,0.0643124878407
2017/07/09/10:04:38.545476,426321,1499565881,349193260,,0.705879284409,-0.0968374113172,0.168575166243,0.836853250976,0.54141589883,-0.0808335798332,0.00337538094685,-0.0841220492404,-0.0609703066817,-0.0179737662365,0.0957895959214,0.138927052614,-0.164930594642,-3.07407212257,1.98612511158,-1.70623803139,-0.756895422935,-1.77532291412,0.0661628842354
2017/07/09/10:04:38.555074,426322,1499565881,359204303,,0.704208732457,-0.097692319784,0.168293963771,0.837381937412,0.540476351527,-0.0816865455358,0.00202795840117,-0.0927963015899,-0.0521687714897,-0.0205608358964,0.0839960582922,0.176478858514,-0.155895976278,-3.47834992409,1.5445343256,-1.78688716888,-0.704094529152,-1.84574115276,0.0697485208511
2017/07/09/10:04:38.565041,426323,1499565881,369192496,,0.703409827127,-0.098387478389,0.167667372984,0.837826300582,0.53974280203,-0.0819961190176,0.00119757098631,-0.0863017918,-0.0528468834058,-0.0218138462356,0.0810342258263,0.155582073276,-0.168238740673,-3.49555659294,1.36831390858,-1.865062356,-0.739062428474,-1.86393523216,0.0412291586399
2017/07/09/10:04:38.574799,426324,1499565881,379191660,,0.703170295028,-0.0983864242869,0.16765130168,0.83785166826,0.539682552014,-0.0821397644041,0.000619797138669,-0.0616208323872,-0.0289611344998,-0.023242042119,0.0854167596388,0.127298083259,-0.136632407583,-3.29306554794,1.41887629032,-1.58808577061,-0.666059195995,-1.83011639118,0.0833153873682
2017/07/09/10:04:38.584749,426325,1499565881,389195058,,0.702265085377,-0.0987687230864,0.167093534311,0.838273532192,0.538898119909,-0.0829834430709,-0.000223073123063,-0.0633405324375,-0.0474594999085,-0.0255124402675,0.0586592027722,0.122768659261,-0.139339902116,-3.40433812141,1.95254719257,-1.90028715134,-0.844132423401,-1.83947992325,0.0488736182451
2017/07/09/10:04:38.595377,426326,1499565881,399192610,,0.701906301344,-0.0995095390449,0.167505624453,0.838669334444,0.538307689062,-0.0828152558618,-0.000461256292788,-0.0633022169189,-0.0238701739725,-0.0316072475038,0.0849777511914,0.149234407359,-0.116880004878,-2.94005942345,1.18730008602,-1.53269135952,-0.593248903751,-1.65445137024,0.0464525222778
2017/07/09/10:04:38.604974,426327,1499565881,409197114,,0.701430945474,-0.0990816275689,0.166814767384,0.838631371052,0.538300250602,-0.0832341412482,-0.0015301696783,-0.0506734680374,-0.0355609544594,-0.0164652893709,0.0676547851068,0.100797235353,-0.12125492351,-3.21743893623,1.42877757549,-1.9440549612,-0.586453318596,-1.74315905571,0.0496996939182
2017/07/09/10:04:38.614974,426328,1499565881,419200116,,0.701055682275,-0.099575631396,0.16655846338,0.839093965933,0.537586139289,-0.083172776004,-0.00217910791694,-0.0464203495869,-0.0404259522656,-0.0103151468057,0.0505940959584,0.0934034155076,-0.114053315098,-2.2355902195,1.57480716705,-1.9653301239,-0.668383598328,-1.34517800808,-0.00784012675285
2017/07/09/10:04:38.624733,426329,1499565881,429191421,,0.701076352034,-0.100208522694,0.167246431284,0.839382738034,0.537145158895,-0.0831168490588,-0.00181294483877,-0.0289995858933,-0.0224250575892,-0.00971614468271,0.0479308972849,0.0759154880591,-0.0805594150591,-1.71226429939,0.840726137161,-1.52266120911,-0.424620211124,-1.17224156857,-0.0386262387037
2017/07/09/10:04:38.634856,426330,1499565881,439203075,,0.700175076897,-0.0998534527067,0.166095534115,0.839336123699,0.537052804754,-0.0841400337602,-0.00310017395297,-0.0457807767533,-0.0259080668112,-0.0176905651093,0.0570942735148,0.115903452447,-0.0768285170773,-2.33680176735,1.50257313251,-2.07191634178,-0.604995250702,-1.3977086544,0.0134219527245
2017/07/09/10:04:38.645168,426331,1499565881,449195724,,0.700003954624,-0.099909638407,0.166501702056,0.839633538288,0.536617253518,-0.0839331071706,-0.00356063595935,-0.0527985972067,-0.00607054187299,-0.0261307508091,0.0734343528565,0.144978475762,-0.0879424631665,-1.99841022491,1.27756249905,-1.36056423187,-0.535531699657,-1.299654603,-0.00263987481594
2017/07/09/10:04:38.654973,426332,1499565881,459232460,,0.698962383247,-0.100603205035,0.166198453182,0.839945453256,0.535955658175,-0.0850106985757,-0.00404340841106,-0.034535155945,0.00566366314125,-0.00714443515127,0.0787232196216,0.0947000536656,-0.0763955504656,-2.47129964828,1.05078160763,-1.68757402897,-0.522963106632,-1.44678962231,0.0136228054762
2017/07/09/10:04:38.664951,426333,1499565881,469200486,,0.699137938768,-0.100013048276,0.166247934227,0.839931194172,0.536039379537,-0.0845827302732,-0.00480982147786,-0.0457447427765,-0.0112700917157,-0.0143426367297,0.0656673349561,0.116041429268,-0.0938869486149,-2.3526699543,1.20241129398,-1.32367253304,-0.56864631176,-1.487891078,0.0154374092817
2017/07/09/10:04:38.674903,426334,1499565881,479199503,,0.699034046538,-0.099948815183,0.166173364833,0.839708086012,0.536270462209,-0.0853293933813,-0.00481832690163,-0.0292857095998,-0.00557646423851,-0.00397123653333,0.0403522663884,0.0958147722421,-0.0574214088566,-2.18383264542,1.25540041924,-1.53658413887,-0.565184354782,-1.39821457863,-0.0209374725819
2017/07/09/10:04:38.684761,426335,1499565881,489200602,,0.698789330472,-0.099767462159,0.166269019544,0.840021888421,0.535769637057,-0.0853495824784,-0.00543799153863,-0.0238103679602,0.00954585773331,-0.010234455986,0.0445382176506,0.100749709148,-0.0323986114406,-2.7002491951,1.94631016254,-1.37170219421,-0.80058246851,-1.56917011738,0.0476457327604
2017/07/09/10:04:38.695012,426336,1499565881,499205362,,0.698028378268,-0.100519101846,0.165942549911,0.840124723435,0.535535964896,-0.0857712760395,-0.00591333935109,-0.035934776111,-0.0165862522017,-0.00627258134772,0.0335479565824,0.0916349539613,-0.0717260303025,-2.74786138535,1.15214502811,-1.26736009121,-0.54468357563,-1.47909760475,-0.0109125822783
2017/07/09/10:04:38.705064,426337,1499565881,509206024,,0.69825331573,-0.100017202399,0.166139652201,0.839953438981,0.535785429983,-0.0858836375294,-0.00601615877901,-0.0461491792958,-0.0200402194996,-0.0196948394776,0.0244859620518,0.120115120268,-0.0571171073362,-1.29481256008,1.22678625584,-0.898495674133,-0.421029627323,-0.961680054665,-0.0709143877029
2017/07/09/10:04:38.715159,426338,1499565881,519206340,,0.697571575907,-0.0995637278068,0.165469612551,0.839687543233,0.536053360423,-0.0867301363067,-0.00703619037158,-0.0176861408832,0.013033089893,0.0038585068761,0.0184117036697,0.0822883547336,-0.0150859149659,-1.84579837322,1.49087035656,-0.914736092091,-0.431552350521,-1.16250920296,-0.0124838650227
2017/07/09/10:04:38.724803,426339,1499565881,529201111,,0.697707745569,-0.0998827935483,0.165974887446,0.840058962889,0.535532366139,-0.0863638565213,-0.00687807931888,-0.0214718927433,0.0129264449111,-0.000391331693164,0.0391499768602,0.0795942711545,-0.0198464585037,-1.49891650677,0.832426786423,-0.715636730194,-0.186353191733,-1.0456969738,-0.0480265021324
2017/07/09/10:04:38.738068,426340,1499565881,539205624,,0.697526455625,-0.0999341129396,0.165588308346,0.840199214557,0.535287569028,-0.0864793872228,-0.00733579495572,-0.045857162703,-0.0170289457756,-0.0191337155044,0.0293718140762,0.113241324491,-0.0662469018214,-2.0144739151,0.826616406441,-0.891645312309,-0.337611407042,-1.20040309429,-0.0434643998742
2017/07/09/10:04:38.745043,426341,1499565881,549193796,,0.697134062307,-0.0996649368167,0.165927495416,0.840092909619,0.535363915664,-0.0870112547692,-0.00764346493041,-0.0351464463059,-0.000965220577713,-0.00607097348394,0.040916014498,0.0981964494407,-0.0424356932841,-1.92898917198,1.24806129932,-0.823099315166,-0.455871403217,-1.14065861702,-0.0406995862722
2017/07/09/10:04:38.754933,426342,1499565881,559200174,,0.69707227721,-0.0999641642452,0.16598379759,0.840238613617,0.535158280293,-0.0868641388905,-0.00770120734594,-0.0153895970146,0.00923518840301,-0.0110982975606,0.0196386487718,0.0727558802698,0.00489770730817,-2.70809030533,1.46820056438,-0.470973134041,-0.535115003586,-1.49060595036,0.00106506049633
2017/07/09/10:04:38.765153,426343,1499565881,569203698,,0.697138769286,-0.0998634490298,0.16578920205,0.840294051616,0.535079997564,-0.0867975368881,-0.00784159529761,-0.020482253064,0.00472213646362,-0.00296944325101,0.0148244107671,0.0623620120597,-0.0261219080643,-2.70598244667,1.68452978134,-0.557018399239,-0.618801414967,-1.52948617935,0.0146546512842
2017/07/09/10:04:38.774909,426344,1499565881,579228000,,0.696119605434,-0.0994633307167,0.16505114207,0.840224333693,0.534991885079,-0.0878881547251,-0.00907877902298,-0.0188370704222,0.0173101580473,-0.00950080505087,0.0268110684363,0.0700090167668,-0.0235578371348,-2.84213471413,1.40774035454,-0.537486076355,-0.560133695602,-1.53044581413,-0.00316201150417
2017/07/09/10:04:38.784751,426345,1499565881,589207767,,0.696540586877,-0.0995549614786,0.165593601332,0.840224139319,0.53506944808,-0.0874688085557,-0.00856089750572,-0.0225116345938,0.0340795659167,-0.0128611711689,0.0610581795961,0.0935563146878,0.0193036715495,-1.47065711021,0.556075453758,-0.683055400848,-0.256093293428,-1.05446434021,-0.0664016008377
2017/07/09/10:04:38.795258,426346,1499565881,599202642,,0.69620810696,-0.0991273062578,0.164785756697,0.840062588031,0.535208506112,-0.0881058727924,-0.0091683343268,-0.0117897372702,0.0277367886592,-0.0109378406962,0.0461101426619,0.0614375926582,0.0279617070087,-1.4475915432,0.918190598488,-1.09063959122,-0.293502807617,-1.13314509392,-0.0669963359833
2017/07/09/10:04:38.805098,426347,1499565881,609195578,,0.695980054505,-0.0992412104045,0.165444625853,0.840337077774,0.534789139987,-0.0880261555883,-0.00925026501053,-0.0097903033105,0.0182585030807,-0.0114916730408,0.0486054125091,0.0332643941869,-0.000896851160895,-1.20577919483,0.580272197723,-0.685013771057,-0.244285747409,-1.01026880741,-0.0908283442259
2017/07/09/10:04:38.815031,426348,1499565881,619222947,,0.695835999593,-0.0992682829506,0.165034927121,0.840291409957,0.534868756409,-0.0879447966974,-0.00956412591531,-0.00288869265405,0.00145594913047,-0.00462745817384,-0.0152386879096,0.0187682786014,0.0038729798517,-0.659801542759,-0.219365745783,-0.968134403229,0.00459025800228,-0.717398047447,-0.130842909217
2017/07/09/10:04:38.824900,426349,1499565881,629198189,,0.695920855298,-0.0994628800311,0.165036783363,0.840287108434,0.534873872436,-0.0879835423654,-0.00929581941423,-0.00301657261137,-0.00778573035875,-0.0113933479056,-0.00334116750124,0.00266140263033,-0.0199455903361,0.0917533785105,-0.447322398424,-0.875233888626,0.141200810671,-0.428972691298,-0.194548398256
2017/07/09/10:04:38.834924,426350,1499565881,639204314,,0.696038086581,-0.0987382427706,0.16478206559,0.840071252959,0.535198160068,-0.0880285912886,-0.00970497439738,0.00268788706379,0.00571965175857,-0.019545120264,-0.00247887211569,0.0117611430078,-0.00216482347597,-0.608974456787,0.141711801291,-0.510799765587,-0.0843061506748,-0.714551091194,-0.120026260614
2017/07/09/10:04:38.845171,426351,1499565881,649196813,,0.695974490273,-0.0990750986771,0.164565382733,0.839986363028,0.535311878995,-0.0881607758352,-0.00958017416798,-0.00184394568958,0.00125752059655,-0.00836926800411,0.00440219665854,0.0155876723849,0.00984988798812,-1.66726922989,0.605180561543,-0.873069226742,-0.244624450803,-1.11618316174,-0.0726068019867
2017/07/09/10:04:38.854930,426352,1499565881,659194278,,0.696588794262,-0.0987942147034,0.164890688023,0.840124723882,0.535202732942,-0.0875282314866,-0.00934300094571,0.00194557071313,-0.00278588064396,-0.00571572526056,0.00103555278846,-0.00139180209692,0.010674629141,-1.78876590729,0.352708488703,-0.741113424301,-0.177480742335,-1.20304346085,-0.0559927374125
2017/07/09/10:04:38.864695,426353,1499565881,669192309,,0.696449236587,-0.0987789078177,0.164635682152,0.839788337056,0.53566638139,-0.0879205919827,-0.00932986055406,-0.0033218334277,-0.0162883560419,0.00185532594901,-0.0134573737859,-0.00118686861223,-0.00668458423379,-1.49130904675,0.875264644623,-0.957555532455,-0.294466555119,-1.15360629559,-0.0713704526424
2017/07/09/10:04:38.874923,426354,1499565881,679197010,,0.696256173171,-0.0991016595787,0.164957362326,0.839932440664,0.535410013639,-0.0881263685403,-0.00912992786415,-0.0034659777574,-0.00364494623357,0.00105013990133,-0.012813259979,0.0113050420467,0.0090640058806,-1.16221570969,0.498751074076,-0.521685779095,-0.134741291404,-0.971129715443,-0.0778886303306
2017/07/09/10:04:38.884680,426355,1499565881,689199629,,0.696063619735,-0.0988588085289,0.164393008034,0.840116494324,0.535110217914,-0.0881445157627,-0.00958514425639,-0.0125655164301,0.00546160401614,-0.0161373399098,0.0156750535831,0.0352254652679,-0.01559547098,-0.828217446804,0.0930543243885,-0.666554093361,-0.00806912779808,-0.854586005211,-0.103432297707
2017/07/09/10:04:38.895124,426356,1499565881,699198030,,0.695923392438,-0.0994034434152,0.16464267739,0.8401517931,0.535053701241,-0.0881659679448,-0.00944793285291,0.000647582247266,0.00867714559528,-0.005208663906,0.0189589447125,-0.0015138558348,0.00665551823916,0.028857588768,-0.160704642534,-0.338306486607,0.0879269689322,-0.522414267063,-0.16459877789
2017/07/09/10:04:38.905023,426357,1499565881,709208958,,0.696438928953,-0.0987990617017,0.164509391206,0.839999766298,0.53535673183,-0.0877840315043,-0.00935553939778,-0.000296949303352,0.00576422370161,-0.00628732150984,0.0147627954059,0.00295970829501,0.00336806222934,-0.590205073357,0.179214447737,-0.346600174904,-0.045514523983,-0.76284134388,-0.116491705179
2017/07/09/10:04:38.915072,426358,1499565881,719200466,,0.696418513281,-0.0986115267573,0.16423845708,0.839992330657,0.53537533455,-0.0877104182933,-0.00964458993964,-0.00143614017918,-0.0052288033383,-0.00931957443659,-0.00137487849146,0.00398995894217,-0.00594815484287,-0.151453793049,-0.0301688909531,-0.455814927816,-0.00716318190098,-0.562432050705,-0.174192622304
2017/07/09/10:04:38.924784,426359,1499565881,729194528,,0.695948907037,-0.0992286542,0.164270698651,0.840091181188,0.535110238903,-0.0883982938715,-0.0094647320368,0.00349495663985,0.00375189625154,-0.00919337825307,-0.000929046953923,0.00142507174078,0.0145603613645,-1.33638036251,0.106877744198,-0.625987052917,-0.0679945349693,-0.950639784336,-0.110017172992
2017/07/09/10:04:38.934675,426360,1499565881,739205721,,0.696298633603,-0.0993439512829,0.164759082378,0.840035028673,0.535300232096,-0.0878056860174,-0.00921811384776,0.00502574749296,0.00582976203226,-0.00451441266365,0.0129794259406,-0.00589350583163,0.00540066977473,-1.15721035004,0.171231091022,-0.132643252611,-0.0688940137625,-0.94332253933,-0.107848085463
2017/07/09/10:04:38.945082,426361,1499565881,749199650,,0.696428001919,-0.0990625968101,0.164237654905,0.840008354145,0.535331379551,-0.0878538946723,-0.00937935098858,0.00322876744517,0.00584980296336,-0.00498557918131,0.019060156934,-0.00594774976372,0.00251625356511,-2.19747447968,0.470293968916,-0.490061998367,-0.212684974074,-1.33241999149,-0.0272835418582
2017/07/09/10:04:38.955148,426362,1499565881,759199549,,0.695954156715,-0.0988875830672,0.164294490266,0.839876173418,0.535491626359,-0.0880851680024,-0.00988608119279,0.00626240190739,0.00137418062241,0.0022242518347,-0.000635093449734,-0.0146046940583,0.00460792997996,-2.2256565094,0.365442872047,-0.311459153891,-0.210688948631,-1.24227666855,-0.0612792894244
2017/07/09/10:04:38.964790,426363,1499565881,769192385,,0.69620146094,-0.0992754398756,0.164322929205,0.840208680981,0.534993064877,-0.0880025696957,-0.00934562273062,-0.00431764346173,-0.0061815659792,-0.00407239160304,-0.0264202214895,0.0225611851104,0.0131916989409,-1.59052801132,0.22640094161,-0.636089801788,-0.115081444383,-1.04351913929,-0.0915989279747
2017/07/09/10:04:38.974890,426364,1499565881,779210699,,0.696315177542,-0.0987857148293,0.164352279146,0.840044632496,0.535250224041,-0.0879847779093,-0.00953372622452,-0.00148630783925,0.00562598337178,-0.00605741884816,0.00421171784391,0.0145293824849,0.0101832759688,-0.466698825359,0.284361809492,-0.61726307869,-0.056394547224,-0.649084210396,-0.127822101116
2017/07/09/10:04:38.984751,426365,1499565881,789193052,,0.696086272883,-0.0992821749546,0.164252863727,0.840196803606,0.534965906247,-0.0882860152811,-0.00929461504946,0.00291249717413,-0.00164105890965,0.00318451302977,-0.00109566474205,-0.0131840354973,-0.0163036120034,-1.47579300404,0.242219567299,-0.505643606186,-0.0408043414354,-1.00029945374,-0.104172229767
2017/07/09/10:04:38.995237,426366,1499565881,799196582,,0.696369437929,-0.0991082582584,0.163939813527,0.840042069329,0.53530309779,-0.0876913863775,-0.00949399858329,-0.000864974579866,0.00871744855091,-0.0173862652958,0.0160914301902,0.0126416943359,-0.00318662452675,-1.05590307713,0.0526388287544,-0.286201417446,-0.0756500959396,-0.805443048477,-0.120212167501
2017/07/09/10:04:39.005019,426367,1499565881,809197003,,0.696398008893,-0.0984239247765,0.163967639068,0.839779475574,0.535715919732,-0.0876329825543,-0.00996725237007,0.00986168383986,-0.00762561945158,-0.00531671419309,-0.0100700206321,-0.0256283371858,0.0156943989453,-0.681439101696,0.143158495426,-0.268774718046,-0.0599515289068,-0.650842905045,-0.150053590536
2017/07/09/10:04:39.015088,426368,1499565881,819199226,,0.696914524417,-0.0985508712105,0.164110895807,0.839701775022,0.535832133283,-0.0877591077259,-0.00912101848379,0.00916952163038,-0.00259098201824,-0.0015642245175,0.00735224121041,-0.024023059656,0.013515987001,-0.217116877437,0.274496972561,-0.0633970201015,-0.0573419183493,-0.493195414543,-0.17603866756
2017/07/09/10:04:39.024867,426369,1499565881,829197602,,0.696663602492,-0.0989874287633,0.164099259763,0.839862912138,0.535558476038,-0.0878911308097,-0.00908607085866,0.00870214344308,-0.00113161008446,-0.000529738380978,-0.0170945462994,-0.0168902365043,-0.00855975513746,-0.434111863375,0.199804931879,-0.324007183313,-0.0114159584045,-0.513983845711,-0.167046368122
2017/07/09/10:04:39.034927,426370,1499565881,839218768,,0.696700419194,-0.0992075889694,0.163929697145,0.839988560639,0.535362255072,-0.0879092845532,-0.00885615770772,-0.00718975892475,0.00445363290281,-0.0209298916691,-0.00544094523968,0.0388258327454,0.00609417270908,-0.413374900818,-0.236554563046,-0.0780007317662,0.0354995578527,-0.53757917881,-0.162444531918
2017/07/09/10:04:39.045160,426371,1499565881,849191350,,0.696743744441,-0.0984357360499,0.163423140558,0.839758025168,0.535693421819,-0.0880336281101,-0.00943913699657,0.00782522047955,0.00298952908297,0.00375035143649,-0.00858505836442,-0.0139216397717,0.00405799205578,-0.24884802103,0.700232744217,-0.402045577765,-0.109001159668,-0.480056732893,-0.145397752523
2017/07/09/10:04:39.055055,426372,1499565881,859199883,,0.696801741012,-0.0985696049993,0.164208482231,0.83984390151,0.535606657293,-0.0877736479596,-0.009138735292,0.00492526532552,0.010384159701,0.00790472972004,0.00693410251856,-0.00325290460695,0.0135352219918,-0.295887589455,-0.0665059089661,-0.523948431015,0.203701376915,-0.489182174206,-0.171641409397
2017/07/09/10:04:39.064926,426373,1499565881,869200994,,0.697134397238,-0.0980144337379,0.163689803417,0.839625521069,0.53598607648,-0.0875039231247,-0.00953800954746,0.00369822389909,0.0214821696175,-0.00719019286184,0.0220511139826,0.0125909846586,0.00640895616709,0.601163506508,-0.157886922359,-0.534576177597,0.101631999016,-0.142231434584,-0.222331941128
2017/07/09/10:04:39.075055,426374,1499565881,879199139,,0.697018117103,-0.0984443382129,0.163961620977,0.839735696662,0.535806592335,-0.0875751560481,-0.00926538745906,0.00939585494619,0.000755409366923,0.000902086517669,-0.000683064493752,-0.0183374088938,0.00757893010888,0.130629658699,-0.0975844860077,-0.573934912682,0.117273956537,-0.304948449135,-0.199748873711
2017/07/09/10:04:39.084727,426375,1499565881,889191551,,0.69682930997,-0.0983564153124,0.164109006348,0.839706222958,0.535826842773,-0.087720544237,-0.00938934545941,-0.000869221996726,0.0077621822345,-0.00381896115886,0.0178839952122,0.00917446069789,0.0299979111256,-0.093734100461,-0.121024668217,-0.363408982754,0.0834376215935,-0.339079260826,-0.194227695465
2017/07/09/10:04:39.095289,426376,1499565881,899201262,,0.69678421387,-0.0981946489223,0.163184141373,0.839684813624,0.535813199417,-0.0879785557526,-0.00966451382443,-0.00128963476669,-0.0120766812413,-0.00109508037339,-0.0220077111489,0.00151803279031,-0.00422649356711,0.0391359329224,0.167071163654,-1.07281541824,0.0482117980719,-0.342592418194,-0.185523927212
2017/07/09/10:04:39.105045,426377,1499565881,909199073,,0.697004747209,-0.0979790772563,0.163561084507,0.839487908449,0.536115680447,-0.0880402055378,-0.00943138138189,-0.00386267556337,0.0109627166698,-0.00924533841079,0.00664290006769,0.0236620885758,0.00338725394586,0.105774745345,-0.00910088419914,-0.836731314659,0.047621935606,-0.28481066227,-0.20150205493
2017/07/09/10:04:39.115001,426378,1499565881,919193409,,0.696845163968,-0.0980933527078,0.16368521982,0.839616210235,0.535954404337,-0.0877798246715,-0.00960199787971,0.0108893503905,0.00967282276187,0.00269703148356,-0.00571158804662,-0.0146798247625,0.00282050276917,-0.297194808722,-0.446748822927,-0.66210526228,0.099644690752,-0.377090066671,-0.190824121237
2017/07/09/10:04:39.124936,426379,1499565881,929191929,,0.697167814021,-0.0978787624123,0.163838226014,0.839694326532,0.535850674087,-0.0876937379946,-0.00934352113972,0.00390578230561,-0.00173117586581,0.00712786572255,-0.00374160531145,-0.0136647786071,-0.0228867434737,0.155807599425,0.208906978369,-0.473547011614,0.0292084664106,-0.317859590054,-0.186569482088
2017/07/09/10:04:39.134900,426380,1499565881,939204360,,0.696935542276,-0.0972959359274,0.163350862733,0.839563022027,0.536003927517,-0.0879306053411,-0.0100960574586,0.00577238049175,0.0119941696324,-0.00713983160551,0.00798376411527,0.00303067870522,0.0126349980455,-0.162377297878,-0.0176493227482,-0.776578485966,0.0447025895119,-0.32835829258,-0.19259609282
2017/07/09/10:04:39.145089,426381,1499565881,949199402,,0.697083782369,-0.0975567263258,0.163477625302,0.839374143213,0.53633642898,-0.0877455146542,-0.0097471694313,-0.00253895183548,0.0114945044654,-0.00878022075102,0.0205561136506,0.0173285012162,0.0131441969236,-0.223044887185,-0.103845745325,-0.858356595039,0.0902735739946,-0.385229676962,-0.185260683298
2017/07/09/10:04:39.155015,426382,1499565881,959199344,,0.696907269751,-0.0981558662753,0.163212704582,0.839639221938,0.535865364233,-0.0881061690638,-0.00957033813016,-0.000148928168818,0.00736893981337,-0.00690361437296,0.00611730036806,0.0106973759365,0.0192132132755,-0.749702692032,0.0270625352859,-0.551209747791,-0.0252910554409,-0.572137057781,-0.171224325895
2017/07/09/10:04:39.164786,426383,1499565881,969192832,,0.697274510799,-0.097360996096,0.163514999657,0.839451797905,0.536261992331,-0.0874479907225,-0.00982870760395,7.74991217735e-05,-0.00661074860169,-0.00547255384557,-0.00117059370406,-0.00564577941617,-0.0117415369763,0.11787301302,-0.0588649511337,-0.484613656998,0.155624374747,-0.287940829992,-0.176246523857
2017/07/09/10:04:39.174699,426384,1499565881,979210782,,0.697380104537,-0.0979187142046,0.163677532712,0.839473799749,0.536200859465,-0.0876812973235,-0.00918520245893,0.0113049838047,0.000556873660188,0.00145382461041,-0.0143191944771,-0.0185648585136,0.00895293902083,-0.142009556293,0.207767218351,-0.357628017664,-0.0179955661297,-0.39961874485,-0.19495767355
2017/07/09/10:04:39.184833,426385,1499565881,989196406,,0.697170698629,-0.0976912642704,0.163084847026,0.839336913895,0.536360564713,-0.0879685379616,-0.00961384015656,0.0081975459955,0.0179519921354,-0.00105200491535,0.00878306415424,-0.00571789712855,0.0263015360923,-0.505537569523,0.0714245140553,-0.594832539558,-0.0489864498377,-0.494036346674,-0.161233216524
2017/07/09/10:04:39.195075,426386,1499565881,999212114,,0.697814945219,-0.0970158185651,0.163302904922,0.83920723432,0.536579427746,-0.0879219899302,-0.00913560462949,0.000746599233394,-0.00309747993633,0.000226527353893,-0.0166365803276,0.000161829520152,0.00383786298105,0.391902863979,0.651037216187,-0.528911828995,-0.0430920273066,-0.244298443198,-0.174658387899
2017/07/09/10:04:39.205046,426387,1499565882,9222533,,0.697570247455,-0.097407359828,0.163298187158,0.839465085528,0.536220273505,-0.0876283387588,-0.00935214994536,0.00435405628342,0.0118566991208,-0.0137191116851,-0.00862642489407,0.0132998422069,0.00846788163414,0.478852987289,-0.353703677654,-0.0769124254584,0.109902888536,-0.12852960825,-0.24672961235
2017/07/09/10:04:39.214781,426388,1499565882,19226440,,0.697145644282,-0.0976691552071,0.162900051913,0.839217153842,0.536529364151,-0.0880812525232,-0.00961785083548,0.00848465296625,-0.00156508894149,0.00106119508237,0.0119103396605,-0.0291060910428,-0.0118334085285,-0.709857463837,-0.257136613131,-0.59301674366,0.0548561662436,-0.53647339344,-0.206522986293
2017/07/09/10:04:39.224838,426389,1499565882,29190829,,0.697572334137,-0.097171850218,0.163013855934,0.839104662513,0.536769857947,-0.0876862125578,-0.00962356876192,0.00237834196644,0.00293105827082,-0.0078174460348,-0.000493899140885,0.00771486014714,0.026087393384,-0.266722887754,0.301648229361,-0.22399944067,0.0139904469252,-0.460007309914,-0.159935742617
2017/07/09/10:04:39.234653,426390,1499565882,39198880,,0.697134444528,-0.0973935055209,0.162790853574,0.839220239415,0.536524911556,-0.0880592029079,-0.00979723528869,0.00668336593623,0.00959645212134,-0.00155299152097,-0.00214840408895,0.0026470487736,0.040720681049,-0.478131055832,-0.491683810949,-0.612442731857,0.122557029128,-0.380790650845,-0.208523124456
2017/07/09/10:04:39.244941,426391,1499565882,49193918,,0.697633747547,-0.0975895763793,0.162918689782,0.839369444591,0.536356983651,-0.0877129671915,-0.00930359941631,0.00464121681949,-0.00584330370127,-0.000143619225545,-0.010000883168,-0.0143522521676,0.00121862711639,-1.19769835472,0.247822672129,-0.585538208485,-0.0847473442554,-0.729110896587,-0.149975895882
2017/07/09/10:04:39.255123,426392,1499565882,59219747,,0.69784447668,-0.0972179259315,0.163279687409,0.839262328812,0.536558778286,-0.0875145143994,-0.0091994918715,0.00601403861964,0.000207225986207,-0.00220413323141,-0.0180612815913,-0.00386480179706,-0.00328518248497,-0.387060701847,-0.242835074663,-0.212218016386,0.0661314427853,-0.416560530663,-0.176931351423
2017/07/09/10:04:39.265238,426393,1499565882,69201261,,0.697698747807,-0.0974204145427,0.16275965082,0.839235819407,0.536589728494,-0.0875547177894,-0.00942730563718,0.000436200610748,0.00850251232221,-0.0105400802311,0.0103204482168,0.00831839180108,0.00613479754887,-0.317046582699,-0.239648759365,-0.374599546194,0.00694690644741,-0.404745101929,-0.195968076587
2017/07/09/10:04:39.275015,426394,1499565882,79200319,,0.698442921779,-0.0965772806614,0.163129900271,0.838879898077,0.537182019459,-0.0873739929958,-0.00904322509746,0.0115522038768,0.011167794191,-0.0146093083149,0.01546998103,-0.0160405836014,0.00781914242031,0.527904272079,-0.0127182304859,0.0639981254935,0.148230135441,-0.196393430233,-0.204772263765
2017/07/09/10:04:39.285019,426395,1499565882,89192455,,0.698024500137,-0.09661833141,0.162848912504,0.839018398586,0.536970494845,-0.0872853470474,-0.00959597260583,0.0135568319723,0.00980809843717,-0.0104509226894,3.30428534611e-06,-0.0153031374773,0.0152945560544,0.252223908901,-0.00596752762794,-0.236354410648,0.0353388339281,-0.18362095952,-0.202768743038
2017/07/09/10:04:39.295147,426396,1499565882,99202540,,0.698172606414,-0.0966990127231,0.162487966309,0.83881206227,0.537256995351,-0.0875248078774,-0.00941557982284,0.000293102957564,0.00918190307476,-0.00879367303714,0.00301842742031,0.0127941261171,0.0246313524872,-0.797568142414,0.639946818352,-0.491069853306,-0.18238389492,-0.644514262676,-0.145666465163
2017/07/09/10:04:39.304971,426397,1499565882,109205695,,0.698239477301,-0.0970736331208,0.162764701869,0.839299358806,0.536596899274,-0.0869235903753,-0.00920018666467,0.00964498700262,0.0117600387406,-0.00361850303933,0.0108268226861,-0.0139664247469,0.0119181239833,-0.333754837513,-0.464408427477,-0.201538681984,0.114778459072,-0.442997634411,-0.190810054541
2017/07/09/10:04:39.315065,426398,1499565882,119201869,,0.698002213098,-0.0974365515962,0.162866003193,0.839007743471,0.536895785127,-0.0879379455104,-0.0087086192025,0.00620832487738,-0.0151168444619,-0.00613306355642,-0.024262083339,-0.0202022232189,-0.00224695980242,-0.485949337482,-0.232070416212,-0.115591183305,0.0737428069115,-0.474457234144,-0.184375435114
2017/07/09/10:04:39.324970,426399,1499565882,129205091,,0.698355184838,-0.0968920170143,0.162728154022,0.838880556585,0.537143163025,-0.0876220869041,-0.00888842429606,0.0139250313338,-0.00426532510883,-0.00571735471517,-0.0186563018911,-0.0263474304349,0.0198401837578,0.885117352009,-0.0928654968739,-0.379176825285,0.0588763058186,0.0345709994435,-0.217799037695
2017/07/09/10:04:39.334840,426400,1499565882,139205505,,0.698546553777,-0.0969709925219,0.162315053432,0.839083859403,0.53687396228,-0.0873355089454,-0.00878261878988,0.00905430032022,0.00676481267937,-0.01891252716,0.00138796920995,-0.00370143123488,0.00712830338686,0.658218026161,-0.34015917778,-0.321123421192,0.13450089097,-0.0588228031993,-0.228867888451
2017/07/09/10:04:39.345286,426401,1499565882,149194075,,0.698377908578,-0.0971138744678,0.161882676899,0.839066572534,0.536914551381,-0.0872074942262,-0.00921435416207,0.00912185180388,-0.00266445512044,-0.0164683226438,0.00091595449207,-0.0188785625579,-0.0138086122662,-0.0173486769199,0.310431003571,-0.379962414503,-0.0950294882059,-0.303742587566,-0.156335771084
2017/07/09/10:04:39.354882,426402,1499565882,159193562,,0.698595159525,-0.097466991328,0.162255008263,0.8390003237,0.537004512436,-0.0873724255984,-0.00840652717601,0.00740143416699,0.00214307793002,-0.00557647239698,0.00219097943714,-0.0114685020678,0.0157739060247,0.169459953904,-0.404331862926,-0.0897368267179,0.0966882109642,-0.20448808372,-0.19785758853
2017/07/09/10:04:39.365020,426403,1499565882,169206072,,0.69825976584,-0.0971106702635,0.16200901961,0.838922782799,0.537086889848,-0.0875550084338,-0.00896424858011,-0.00688375017938,0.000475489394072,-0.00385864596545,0.0227985628735,0.00506104023915,0.00194392775693,-0.38063403964,0.0710296928883,-0.498417109251,-0.0651639103889,-0.404046803713,-0.170899301767
2017/07/09/10:04:39.374689,426404,1499565882,179205288,,0.698347728385,-0.097443185428,0.162173476482,0.839065851361,0.536885732002,-0.0874333692575,-0.0088098690331,0.00272028253427,-0.0124020523864,-0.0105426928709,-0.0247432640983,-0.00272377523045,0.00400900097239,-0.156549364328,0.190481871367,-0.0361656174064,-0.0792323872447,-0.347727805376,-0.137411743402
2017/07/09/10:04:39.384659,426405,1499565882,189200044,,0.698537925972,-0.0972262430919,0.161777170768,0.838957365844,0.53708240846,-0.0872598085765,-0.00887415496715,0.0192520830597,0.00691789879191,-0.00540442158364,-0.00656100207369,-0.029093784227,0.0114543882108,-0.526911199093,-0.0986785888672,-0.165708303452,0.0170158296824,-0.496796488762,-0.161044567823
2017/07/09/10:04:39.395036,426406,1499565882,199195287,,0.698727004137,-0.0966663364624,0.161867263324,0.839049227506,0.53697989804,-0.0869914541913,-0.00902606343092,0.0130685256236,0.0142275402213,-0.00644882078147,0.0132448693904,-0.0202831657044,0.0101665608491,-0.134674295783,0.144882768393,-0.188412502408,-0.0379919111729,-0.322199910879,-0.155911505222
2017/07/09/10:04:39.405230,426407,1499565882,209223413,,0.69865987648,-0.0972975828305,0.16209588226,0.839072748943,0.53691510573,-0.0872175129017,-0.00849686198892,0.0147779761604,0.012899014222,-0.010331465561,-0.000962260179495,-0.0160361459478,0.0327678549791,-0.65953707695,-0.202596753836,0.0714845955372,0.0939587205648,-0.527912378311,-0.142640605569
2017/07/09/10:04:39.414860,426408,1499565882,219208837,,0.699173456771,-0.0968044039569,0.161457815766,0.838906457456,0.537188088287,-0.0871403012502,-0.00845466374346,0.00725058477859,-0.00199567094996,-0.00174863125328,0.00233392209288,-0.019998156708,0.00821185538623,-0.623168349266,0.757718324661,-0.228492751718,-0.261253416538,-0.55021828413,-0.137792348862
2017/07/09/10:04:39.425069,426409,1499565882,229199804,,0.698805109968,-0.0968797010884,0.161046550082,0.838866404999,0.537260527982,-0.0870173170301,-0.00907007022373,0.00708774993029,-0.0114363179613,-0.00475040671197,-0.0281332091616,-0.0109191106346,0.000137793747159,-0.630995392799,0.107444941998,-0.596851050854,-0.0546414926648,-0.49128857255,-0.138746723533
2017/07/09/10:04:39.434818,426410,1499565882,239200095,,0.698843142897,-0.0970026034446,0.1614513468,0.838964097976,0.537143922237,-0.0868051786845,-0.00897274004627,0.0109212900491,-0.00607488489018,-0.00261010485958,-0.0147479080281,-0.0248521664715,0.00663535894738,-0.459672391415,0.630515277386,0.114809915423,-0.164463073015,-0.49347537756,-0.147962123156
2017/07/09/10:04:39.445010,426411,1499565882,249194475,,0.699500128801,-0.096828776733,0.161798823101,0.838746600349,0.537534225822,-0.086570564173,-0.0081629584946,0.0152481783696,0.00636785678645,0.0018673737726,-0.00620755630867,-0.0286145809472,0.0284549272586,-1.20684671402,0.69141972065,0.160239309072,-0.335075199604,-0.740907907486,-0.114735387266
2017/07/09/10:04:39.454771,426412,1499565882,259197460,,0.699487822514,-0.0967968849703,0.161542970114,0.838855319651,0.537331858363,-0.0867612503743,-0.00828927711953,0.00603112484691,-0.000190448454007,-0.00391574392483,0.00570532361244,-0.0204201003437,-0.0144561473006,-1.49074172974,0.547936856747,-0.0319710746408,-0.192477285862,-0.908933341503,-0.078474663198
2017/07/09/10:04:39.465011,426413,1499565882,269192886,,0.699488847719,-0.0964920804799,0.161294012223,0.838614364943,0.537709460101,-0.0867313690188,-0.00849429555753,0.00650837563553,0.00317599420436,-0.00935370076593,-0.00694492136036,-0.0043818992343,-0.00532578040201,-0.063567712903,0.409553557634,-0.4031714499,-0.175849303603,-0.27953517437,-0.178591161966
2017/07/09/10:04:39.474927,426414,1499565882,279199332,,0.699908722585,-0.0962747215287,0.161686088807,0.838559012969,0.537808292816,-0.0866997238163,-0.00801123187449,0.0159367518492,0.0180264378391,-0.00372615108118,-9.87100672679e-06,-0.0161608329403,0.0341891466625,-0.385047018528,0.445087492466,0.0549539327621,-0.15233963728,-0.465486735106,-0.141601085663
2017/07/09/10:04:39.485159,426415,1499565882,289193002,,0.69944999815,-0.0972059698638,0.161406495516,0.838708800651,0.537559319641,-0.0867901278491,-0.00806221347811,0.00622924658346,-0.00013215182363,-0.00759486590215,-0.000680347808761,-0.0108990838313,0.014419170159,0.250660121441,0.0932351350784,-0.00112150609493,-0.0698086023331,-0.229157075286,-0.184439986944
