time,.header.seq,.header.stamp.secs,.header.stamp.nsecs,.header.frame_id,.pose.position.x,.pose.position.y,.pose.position.z,.pose.orientation.x,.pose.orientation.y,.pose.orientation.z,.pose.orientation.w,.twist.linear.x,.twist.linear.y,.twist.linear.z,.twist.angular.x,.twist.angular.y,.twist.angular.z,.wrench.force.x,.wrench.force.y,.wrench.force.z,.wrench.torque.x,.wrench.torque.y,.wrench.torque.z
2017/07/09/09:59:13.485996,393815,1499565556,289476343,,0.785928369472,0.387781430848,0.165428443536,0.629154922616,0.774481426028,0.0570798822542,0.032931612886,0.0682621487041,-0.117324106856,0.0119589387208,0.0418822911212,-0.107484167253,-0.189530053551,2.36094355583,1.57706260681,-0.652278959751,-0.649825394154,1.04804050922,-0.189326316118
2017/07/09/09:59:13.496417,393816,1499565556,299499820,,0.78630290784,0.385951263691,0.165031941807,0.629750583444,0.774000855799,0.0568058621456,0.0333162407857,0.0668713834564,-0.12088804155,0.0093959561964,0.0249089271558,-0.108102521127,-0.199403258568,2.37664747238,1.72681641579,-0.576267540455,-0.728631258011,1.10402297974,-0.193107709289
2017/07/09/09:59:13.505907,393817,1499565556,309478508,,0.786886575244,0.384500353599,0.165326943803,0.630901507126,0.773012088058,0.0574955986646,0.0333145037031,0.0456261803491,-0.116769645718,-0.00640775185338,0.0195363763189,-0.0646681368844,-0.178705477429,2.75814199448,1.80713415146,-0.564542174339,-0.695657253265,1.28417670727,-0.171397790313
2017/07/09/09:59:13.515985,393818,1499565556,319498180,,0.788006049356,0.382837247747,0.165583179171,0.631415232158,0.77252905243,0.0578043991792,0.0342391469715,0.0444681856922,-0.139606594997,0.000928399054087,-0.0043092142325,-0.0582242821507,-0.191002473608,2.29648923874,1.62542176247,-0.71812826395,-0.637818157673,1.05654156208,-0.159993618727
2017/07/09/09:59:13.526372,393819,1499565556,329476608,,0.788226093435,0.382053490844,0.165809944187,0.632074084191,0.77195866001,0.058038934237,0.0345494058178,0.0516976243316,-0.144679460838,0.00546404875068,-0.00187840146364,-0.0678499567426,-0.209172837948,2.1244020462,1.40866219997,-0.934760391712,-0.472756445408,0.97858017683,-0.147248908877
2017/07/09/09:59:13.536104,393820,1499565556,339484743,,0.788794519335,0.380985486726,0.166237661254,0.632759930613,0.771345944911,0.0586207291077,0.0346974581101,0.0744858386114,-0.146686868302,0.0304045501617,0.0235649292729,-0.128531378714,-0.237567710231,1.7932626009,1.21928322315,-1.0836558342,-0.400735378265,0.789991080761,-0.141049057245
2017/07/09/09:59:13.546004,393821,1499565556,349478132,,0.789429357988,0.37797438598,0.165793200762,0.634607671474,0.769817982027,0.0586077711351,0.034907119871,0.0708312409121,-0.204318555217,0.0156250562049,0.00316194385849,-0.0931195419263,-0.306790540428,1.73259925842,0.945840477943,-1.07952582836,-0.261905580759,0.772854566574,-0.0875814929605
2017/07/09/09:59:13.556179,393822,1499565556,359484262,,0.79038770866,0.376296836275,0.166108740477,0.635442868961,0.769066080968,0.0589900864071,0.0356355594336,0.0614406982691,-0.186294306123,0.0025594436078,0.00850726918723,-0.0783405203045,-0.262295693033,2.11091208458,1.10124993324,-1.14834845066,-0.387655228376,0.961468279362,-0.15838727355
2017/07/09/09:59:13.566288,393823,1499565556,369483557,,0.790685030501,0.374138733894,0.165844039735,0.636471681308,0.76821539227,0.058766868449,0.0359911814846,0.0696961889948,-0.181263893591,0.0118473586693,0.00314206244335,-0.10662416402,-0.24960123409,2.26500797272,1.12876570225,-1.10443973541,-0.456497371197,1.03663921356,-0.143695920706
2017/07/09/09:59:13.576181,393824,1499565556,379484054,,0.791250924123,0.372880622868,0.166197604825,0.637030114952,0.767713769456,0.0592055363261,0.0360957795386,0.0522527958395,-0.208493447171,-0.00923766920233,-0.00566578228178,-0.0526193218343,-0.282323681483,2.13230419159,1.29013264179,-1.20431149006,-0.485089957714,0.966739416122,-0.160703331232
2017/07/09/09:59:13.586003,393825,1499565556,389477602,,0.792053920553,0.371065400198,0.166474330403,0.63784714681,0.766970749668,0.0596453601962,0.0367330568617,0.0587186478782,-0.212435878864,0.01331337914,-0.00147544856498,-0.0767437820809,-0.279382824761,1.87240874767,1.12537646294,-1.32584357262,-0.337097108364,0.839702606201,-0.103495046496
2017/07/09/09:59:13.596373,393826,1499565556,399477495,,0.792631858258,0.368943825703,0.166388580665,0.639271797371,0.765747810188,0.0599308433141,0.0370155953282,0.0680997307391,-0.174563190013,0.0188105128039,0.0200109287745,-0.104149820636,-0.249473577043,1.68782782555,1.1074783802,-1.45210516453,-0.369177341461,0.756459116936,-0.142552420497
2017/07/09/09:59:13.606016,393827,1499565556,409475953,,0.792821624283,0.367367086323,0.166618507079,0.640101259195,0.765056606358,0.0597520417633,0.0372620524114,0.0573809121002,-0.18938150266,0.0108756128309,0.0248935098286,-0.0738291842092,-0.286985395138,1.45413839817,0.954988837242,-1.28594207764,-0.25555947423,0.726099073887,-0.107681453228
2017/07/09/09:59:13.616154,393828,1499565556,419477103,,0.793824074461,0.36435176035,0.166637083365,0.641668529713,0.763678364235,0.0602185168863,0.0378230643745,0.059646482082,-0.210732267009,0.00334703365367,0.0223641502846,-0.0713478834074,-0.317823622455,1.42178022861,0.959456443787,-1.4702501297,-0.273601025343,0.722753703594,-0.0962165221572
2017/07/09/09:59:13.625971,393829,1499565556,429477144,,0.794708900461,0.363120131145,0.167108578238,0.642171655563,0.763172989029,0.0609503880331,0.0383093174848,0.0629655031107,-0.213040335147,-0.00333400426344,0.0305410229291,-0.0759857466119,-0.318237843463,1.48895144463,0.897024154663,-1.54040598869,-0.279052168131,0.734624683857,-0.130226612091
2017/07/09/09:59:13.636141,393830,1499565556,439476253,,0.795537496446,0.360910291782,0.16701254246,0.643483189809,0.762019005158,0.06132347213,0.0386762456424,0.0754211412075,-0.221148218006,0.0080242061993,0.0148272382643,-0.106080356961,-0.311053567911,1.56893086433,0.844444274902,-1.40281379223,-0.242565751076,0.798985421658,-0.0837431102991
2017/07/09/09:59:13.646034,393831,1499565556,449484768,,0.795381065304,0.358477336781,0.166840585699,0.644946048191,0.760812296423,0.0611295867236,0.0383721013355,0.0716922414759,-0.213182155281,0.0121178397737,0.018698028479,-0.111583180192,-0.294376805589,1.47942495346,0.931276202202,-1.4709020853,-0.334040820599,0.747633814812,-0.150657638907
2017/07/09/09:59:13.656105,393832,1499565556,459483731,,0.796280438539,0.3562531197,0.166992775855,0.646094810873,0.759771479441,0.0616012906481,0.0389111215675,0.0662592297633,-0.230094917272,0.00888750702853,0.0213057693522,-0.0930500601689,-0.329429471689,1.47024917603,0.927023231983,-1.43367695808,-0.29070314765,0.735663354397,-0.131607145071
2017/07/09/09:59:13.666249,393833,1499565556,469477587,,0.797033112704,0.354420497161,0.16687608047,0.64726715969,0.758711584406,0.0621648461398,0.0392108094753,0.0703541081002,-0.24400090743,0.0113720210503,0.0305203669867,-0.106050161703,-0.347439615039,1.61850690842,1.15642976761,-1.55068182945,-0.379046231508,0.747653365135,-0.141380354762
2017/07/09/09:59:13.676153,393834,1499565556,479484861,,0.798185055548,0.352099505619,0.167735333863,0.64837834797,0.75765466383,0.062818158394,0.0402344036295,0.0697199409767,-0.243839841908,0.00678220446087,0.0290095213258,-0.0940022497951,-0.358888238811,1.78898096085,0.915996313095,-1.4895209074,-0.230934053659,0.826871037483,-0.0908385813236
2017/07/09/09:59:13.685869,393835,1499565556,489478989,,0.798015026436,0.349354322947,0.166612542228,0.649678089743,0.756604561789,0.0623830085268,0.0397023555297,0.0804757338334,-0.241513719,0.0110188194007,0.0305638454076,-0.128901893939,-0.338034989537,1.56894266605,0.660150110722,-1.46820414066,-0.148802131414,0.749738752842,-0.0843553543091
2017/07/09/09:59:13.696174,393836,1499565556,499480859,,0.799337924332,0.34659647903,0.167399055867,0.650794115571,0.755507375666,0.0631143025352,0.0411364712572,0.0728470698562,-0.244751633219,0.00516414877234,0.0350187343007,-0.116011410338,-0.337893398109,1.84537887573,0.635370969772,-1.56561803818,-0.0877957195044,0.839922428131,-0.0616117939353
2017/07/09/09:59:13.706034,393837,1499565556,509481557,,0.799951297273,0.344954533619,0.167551908749,0.652364993364,0.754083109453,0.0639399562673,0.0411127895439,0.0640698871423,-0.253095464842,0.00743610857588,0.0276533245865,-0.100575964456,-0.360994986727,1.85793757439,0.638171374798,-1.57442641258,-0.0855106264353,0.839700579643,-0.0450928583741
2017/07/09/09:59:13.716189,393838,1499565556,519479768,,0.800887816346,0.341944709833,0.167971202954,0.653674687313,0.752878159783,0.0641241277399,0.0420948444634,0.0818544271196,-0.271561681008,0.0111111306337,0.0272686168229,-0.132589222235,-0.406233035364,1.92108988762,0.758482992649,-1.65456938744,-0.163164615631,0.836626648903,-0.0944790542126
2017/07/09/09:59:13.726355,393839,1499565556,529476325,,0.801084416168,0.33843018556,0.166950899977,0.655496376104,0.751329487457,0.0637959404973,0.0419354285574,0.0831522870955,-0.265927485057,0.015252118134,0.0289709577792,-0.142426733147,-0.378712226993,1.62035477161,0.706098914146,-1.54185020924,-0.172856390476,0.74515402317,-0.0665113627911
2017/07/09/09:59:13.736145,393840,1499565556,539480478,,0.802402594064,0.336925019484,0.168034493146,0.656291799917,0.750476814065,0.065042773546,0.0428376297449,0.082853030516,-0.27511239395,0.0153092971063,0.0281175601885,-0.13774459319,-0.387708789936,2.06346464157,0.81029433012,-1.71763968468,-0.19757129252,0.906035482883,-0.0897825807333
2017/07/09/09:59:13.746004,393841,1499565556,549483625,,0.803263309431,0.334560871208,0.167813363278,0.657697526508,0.749158192041,0.0657477782929,0.0432804409911,0.0883231781982,-0.286591834172,0.0179443231862,0.0346065931943,-0.139850229554,-0.397437031005,1.28985357285,0.586067438126,-1.9061691761,-0.132622182369,0.576761484146,-0.0900877416134
2017/07/09/09:59:13.756081,393842,1499565556,559480793,,0.803924661931,0.331217104332,0.167966291006,0.659112303749,0.747877789738,0.0658442010192,0.0437529868116,0.0726070663785,-0.274412760236,-0.000974806648123,0.0395318216813,-0.111938082247,-0.387804938606,1.97340583801,0.685420751572,-1.90243971348,-0.164739400148,0.818946838379,-0.0812336951494
2017/07/09/09:59:13.766174,393843,1499565556,569482625,,0.804716441969,0.32898575976,0.16858574694,0.660465814913,0.746577407962,0.0667452297873,0.0441832044163,0.0652830518395,-0.25361312013,0.0144161033735,0.050203361907,-0.115677524288,-0.362303013238,3.05827140808,0.652582168579,-1.66783416271,-0.107645645738,1.24709379673,-0.0350811630487
2017/07/09/09:59:13.776024,393844,1499565556,579479426,,0.805378743625,0.325947616433,0.168393559885,0.661972176114,0.745225007559,0.0666008468934,0.0446861651147,0.0885154590047,-0.272425979268,0.038602203684,0.0378093449367,-0.1674666411,-0.405664893707,2.98598432541,-0.410685300827,-1.20970773697,0.0598767474294,1.172539711,0.00277963280678
2017/07/09/09:59:13.786160,393845,1499565556,589479301,,0.806350860427,0.323315512221,0.16903865201,0.663121004302,0.744075756792,0.0675190767372,0.0454199965225,0.0814899628444,-0.297657019076,0.0321165277197,0.0232410500588,-0.137993322196,-0.419528790516,2.73010897636,-0.040591314435,-1.08955526352,-0.136722683907,1.04425835609,-0.0844809859991
2017/07/09/09:59:13.796136,393846,1499565556,599488231,,0.80657503841,0.320167874736,0.168932728225,0.665015237728,0.742402279377,0.0673312019754,0.0453883069309,0.0830082613993,-0.277080017239,0.0330014724793,0.048393229235,-0.143766070161,-0.403610583,2.08390212059,-0.185191214085,-0.996841609478,-0.129416972399,0.81433069706,-0.0682346522808
2017/07/09/09:59:13.806140,393847,1499565556,609477836,,0.807303445198,0.317808536661,0.169360129862,0.666295632177,0.741174801234,0.067825886233,0.0459314022587,0.0714076796152,-0.294883710019,0.0179075490889,0.0193435908047,-0.112159629364,-0.427174464566,1.61425077915,0.522654771805,-0.988528907299,-0.510634958744,0.644159495831,-0.216887831688
2017/07/09/09:59:13.815876,393848,1499565556,619475781,,0.808684978257,0.314917821293,0.169942556723,0.667538629877,0.739908152005,0.0686609260743,0.0470508389858,0.0839405563222,-0.285140383222,0.0327191873276,0.0199079870062,-0.143903216743,-0.398517326827,1.57346916199,0.287061721087,-0.956679046154,-0.390553027391,0.663655936718,-0.160847887397
2017/07/09/09:59:13.826003,393849,1499565556,629477309,,0.809278256119,0.311639846117,0.170174527563,0.669228188434,0.738333019175,0.0688498557617,0.0475150709088,0.0740969984196,-0.279724452919,0.0357816582067,0.0281016443544,-0.130590316729,-0.392613156273,1.57586359978,0.153027504683,-0.885860383511,-0.334082245827,0.751395940781,-0.133354723454
2017/07/09/09:59:13.836208,393850,1499565556,639477293,,0.810325059969,0.309025391984,0.171286914441,0.670883961578,0.736705983874,0.0696697366638,0.048219614428,0.0756959672543,-0.289174680056,0.0442800666197,0.0172717730721,-0.132483332515,-0.396561103181,1.98867416382,0.118303000927,-0.746451556683,-0.309725195169,0.916250526905,-0.132329970598
2017/07/09/09:59:13.846317,393851,1499565556,649480360,,0.810156778518,0.306614576167,0.170670021382,0.671727007776,0.735994534858,0.0692165130582,0.0479994375345,0.0614927238231,-0.298459674478,0.0359035968288,-0.00225704216416,-0.0915000311986,-0.402350335946,1.73901557922,0.168576449156,-0.785591900349,-0.304569035769,0.815952897072,-0.149496480823
2017/07/09/09:59:13.856251,393852,1499565556,659477218,,0.810746127685,0.303106753446,0.171417543552,0.673444444743,0.734392285633,0.0691401540619,0.0485817840718,0.0536170059903,-0.298120115604,0.0487133776512,-0.00733027585951,-0.075646621068,-0.408998682431,1.88456046581,0.146094739437,-0.819232404232,-0.244185388088,0.803406953812,-0.128576949239
2017/07/09/09:59:13.866103,393853,1499565556,669480125,,0.811902710114,0.300703876769,0.172553973464,0.674693821658,0.733105719747,0.0700534377825,0.0493636155996,0.0555659840757,-0.302575991706,0.0457613662208,-0.00742614240854,-0.0685855119763,-0.408296052465,2.02856898308,0.106876455247,-0.7452070117,-0.223211795092,0.798949897289,-0.138679295778
2017/07/09/09:59:13.876406,393854,1499565556,679485790,,0.812442283773,0.297862857043,0.172500420535,0.676149626951,0.731743187305,0.0700929684804,0.0496040882988,0.0785035112762,-0.296715788947,0.0590234165928,0.016102632671,-0.122960305574,-0.414531081173,1.55537366867,-0.157195091248,-0.715503871441,-0.119475275278,0.622337818146,-0.0878514125943
2017/07/09/09:59:13.886144,393855,1499565556,689480862,,0.813340226668,0.294506908432,0.17349479879,0.677663708613,0.730233529135,0.0705028643839,0.0505987852594,0.0810210414958,-0.314244957839,0.061946538285,0.0125445420548,-0.133518457136,-0.450127620747,1.63685834408,-0.152223885059,-0.78925716877,-0.203936234117,0.61400604248,-0.15207003057
2017/07/09/09:59:13.896175,393856,1499565556,699484127,,0.814106554637,0.292447903123,0.174050786187,0.678798074727,0.729082309661,0.0713020782397,0.0508740909023,0.0731973215052,-0.289565766669,0.0594353131578,0.0273420118102,-0.126069456105,-0.424969548872,1.64759624004,-0.314431279898,-0.570277273655,-0.119272455573,0.660879552364,-0.100632146001
2017/07/09/09:59:13.906341,393857,1499565556,709476570,,0.814974898505,0.288965285489,0.174545443905,0.680462211015,0.72746706047,0.0713441348177,0.0516998040529,0.0851999235556,-0.309963922571,0.0647217468997,0.00915364499921,-0.149376384461,-0.414463329938,1.56016612053,-0.171211645007,-0.364694297314,-0.14787915349,0.661974012852,-0.131030455232
2017/07/09/09:59:13.916299,393858,1499565556,719483752,,0.816076167424,0.286031473361,0.175172687742,0.681967134342,0.725935119996,0.0720878149596,0.0523677015694,0.0956950465667,-0.319705690468,0.0693276463241,0.0140491119194,-0.16469229718,-0.454056074561,0.807089924812,-0.413471519947,-0.336243867874,-0.0444758981466,0.346323102713,-0.0825311169028
2017/07/09/09:59:13.926218,393859,1499565556,729477711,,0.817189436534,0.282983646796,0.176284669978,0.683502620688,0.724338625428,0.0728179068904,0.0534347795129,0.098715340068,-0.320153986865,0.0715720745301,0.0237283809267,-0.171286601451,-0.472148288263,0.542974829674,-0.52496099472,-0.395133972168,0.00273133814335,0.220964863896,-0.103394635022
2017/07/09/09:59:13.936200,393860,1499565556,739487501,,0.81781143823,0.279549505675,0.176677201893,0.685281786752,0.722631385412,0.0727941694293,0.0537937028022,0.0984421691413,-0.326301922895,0.0726332078588,0.00264744381153,-0.181098090983,-0.457573571048,-0.346289336681,-0.631765305996,-0.0547257736325,-0.000794366002083,-0.0675268918276,-0.120665371418
2017/07/09/09:59:13.946022,393861,1499565556,749479212,,0.818596027926,0.277725737139,0.177369984358,0.686063086477,0.721790112308,0.0733701839773,0.0543441924371,0.0968077140921,-0.309158135547,0.074153787568,0.0231545615387,-0.173167957922,-0.443287973438,0.0518338605762,0.718515992165,-0.151368826628,-0.712721645832,0.0600547641516,-0.330551862717
2017/07/09/09:59:13.955938,393862,1499565556,759487754,,0.819512312509,0.274429032162,0.177940550892,0.687867223387,0.719965725323,0.0738047870792,0.0551442721803,0.0833914875941,-0.292903690517,0.0630564881366,0.0173530463453,-0.146229758419,-0.421711282085,0.545131504536,1.78044497967,0.0078181438148,-1.21662008762,0.231579303741,-0.46917322278
2017/07/09/09:59:13.966179,393863,1499565556,769483096,,0.820350728135,0.271026997695,0.178696491149,0.689260170184,0.718541901084,0.0740201569806,0.0560265164375,0.0884885732987,-0.289796073312,0.0555231850199,0.00591667015486,-0.1455486284,-0.415137343376,0.119683973491,1.99657464027,0.18663045764,-1.2878651619,0.0657124593854,-0.474994421005
2017/07/09/09:59:13.976238,393864,1499565556,779484049,,0.821424795196,0.2680796714,0.179041673935,0.690898189438,0.716870859226,0.0745090697679,0.0566061970686,0.0846235981338,-0.307941711437,0.0680412468541,-0.0248856380801,-0.153360642506,-0.408622163708,-0.625019669533,1.45523357391,0.152252778411,-0.864018201828,-0.25543820858,-0.345829486847
2017/07/09/09:59:13.985883,393865,1499565556,789478785,,0.821939528045,0.264387515522,0.179607869867,0.692470061543,0.715310859081,0.0742253117475,0.057499494281,0.0956740009783,-0.338890651833,0.0813693980935,-0.0590210668978,-0.178097879449,-0.43036822295,-1.73005485535,0.139911055565,0.510636389256,-0.147397503257,-0.679123103619,-0.119246400893
2017/07/09/09:59:13.996111,393866,1499565556,799485477,,0.823151191713,0.26162670393,0.180948899928,0.693633813087,0.714015771028,0.0749391582183,0.0586321979049,0.0864962516193,-0.354553956923,0.0802625103408,-0.0733525051687,-0.160182978116,-0.460368315677,-2.56891679764,-0.365675091743,0.721660554409,0.16843020916,-1.00521731377,-0.091017909348
2017/07/09/09:59:14.006046,393867,1499565556,809480299,,0.82391717137,0.258621114674,0.181650553308,0.694590502199,0.712979876049,0.0752290273657,0.0595342258321,0.0835790940517,-0.349241317813,0.0767139182941,-0.0733910681066,-0.158069707362,-0.429241163197,-2.60409140587,-0.545333147049,0.877732217312,0.315865218639,-0.979301452637,-0.0580744892359
2017/07/09/09:59:14.016238,393868,1499565556,819480705,,0.824966766132,0.255073333532,0.182000180818,0.696537882045,0.71097789913,0.0754888842073,0.0603890237224,0.0944491581813,-0.332608597924,0.0814348599159,-0.0361082262971,-0.187310185474,-0.434770979273,-2.83377718925,-0.210159540176,0.634925365448,0.0907217785716,-1.068313241,-0.134470075369
2017/07/09/09:59:14.026112,393869,1499565556,829476473,,0.825488724915,0.252710105167,0.183123177746,0.697800859661,0.709638114454,0.0761681120302,0.0607134703354,0.0962912643371,-0.308718460539,0.0844953422515,0.0231372403256,-0.191394394238,-0.45408240887,-3.05808973312,-0.140220925212,1.04399800301,0.0518048703671,-1.11108589172,-0.112574532628
2017/07/09/09:59:14.035977,393870,1499565556,839489256,,0.826122946579,0.248411297991,0.183693550992,0.699920978272,0.707484304066,0.0762692673034,0.0613154347565,0.091340661226,-0.309788443011,0.0896659976522,0.0376487169684,-0.185847832108,-0.461411078452,-3.28535652161,-0.229612544179,1.00173544884,-0.0286781452596,-1.22066354752,-0.110057234764
2017/07/09/09:59:14.045971,393871,1499565556,849480932,,0.827025837042,0.246524916828,0.184212325702,0.700878171583,0.706423997761,0.0769177184958,0.0617947292836,0.0765428667749,-0.321895095813,0.0779910960532,0.0153478824254,-0.140225797059,-0.460861226064,-3.27624607086,0.136036530137,0.647156774998,-0.131695523858,-1.31318736076,-0.169817939401
2017/07/09/09:59:14.056366,393872,1499565556,859486078,,0.828241684526,0.243590181413,0.1857855484,0.701932923195,0.705178879217,0.0775002348335,0.0632979718695,0.0869810032584,-0.291659676125,0.0838507999102,0.00226761626316,-0.171817023547,-0.414482154847,-3.36755990982,0.199251994491,0.69492328167,0.02814360708,-1.42978537083,-0.0965019464493
2017/07/09/09:59:14.066348,393873,1499565556,869511919,,0.828761853813,0.240299430519,0.186038842744,0.703639338454,0.703425768066,0.0776327107581,0.0636948382599,0.0840713814079,-0.311323852044,0.076706917813,-0.0184767607239,-0.161170507623,-0.411254935391,-3.32926177979,0.062714792788,0.497831285,0.108105145395,-1.42581164837,-0.058301076293
2017/07/09/09:59:14.076161,393874,1499565556,879479285,,0.829955168242,0.238088224785,0.186757922943,0.704857973208,0.702034541922,0.0785579793223,0.0644312302934,0.0816850475791,-0.32842908625,0.0676894299695,-0.0292822690452,-0.164825032904,-0.428639583594,-3.0005967617,0.13069845736,0.623597860336,0.032482534647,-1.35363185406,-0.122761502862
2017/07/09/09:59:14.086402,393875,1499565556,889482013,,0.830601843836,0.234259671957,0.187668314332,0.706721116655,0.700055573498,0.0789478929478,0.0650744764697,0.0815880150362,-0.317437309515,0.0763679495729,0.0028298127436,-0.178488757256,-0.445127713431,-3.29723238945,-0.326073944569,0.784280121326,0.158718764782,-1.47207403183,-0.0487480387092
2017/07/09/09:59:14.095937,393876,1499565556,899476399,,0.831372874985,0.231375841769,0.188022089797,0.708053504054,0.698594038119,0.0795632107928,0.0655461729619,0.0942487442272,-0.340638408655,0.0753290984431,0.0155012127818,-0.199020484575,-0.484405684792,-3.09982609749,0.0578792691231,0.889565527439,-0.0573120824993,-1.37866699696,-0.124485753477
2017/07/09/09:59:14.106229,393877,1499565556,909480571,,0.832224163392,0.228486595649,0.188920762462,0.709167087966,0.69733697295,0.0796032459218,0.0668319589864,0.090032893349,-0.317373926861,0.0839615287,0.0203258004166,-0.189862967683,-0.452897665927,-5.16464185715,0.0421923175454,0.902370214462,0.0864153504372,-2.17809605598,-0.0649768263102
2017/07/09/09:59:14.116222,393878,1499565556,919482313,,0.833044469007,0.225514888286,0.189674244744,0.71084782102,0.695480726471,0.0805347246069,0.0672018793619,0.084347818144,-0.308010066909,0.083583129208,0.00104368004768,-0.191387304826,-0.418942368142,-5.98013019562,0.119234904647,0.837124943733,-0.0361936688423,-2.49272990227,-0.144027933478
2017/07/09/09:59:14.125928,393879,1499565556,929477111,,0.833324852634,0.221889382571,0.190252390833,0.712014021816,0.694236665249,0.0802885837751,0.0680090337904,0.0943658006664,-0.323690511569,0.0968955875807,-0.00476093174008,-0.214402263541,-0.469060442048,-6.11340045929,-0.138184696436,0.818191170692,0.022141687572,-2.51471090317,-0.118381410837
2017/07/09/09:59:14.136271,393880,1499565556,939485333,,0.8348103364,0.219062114205,0.191365283852,0.713398505154,0.692559240817,0.0813623924478,0.069314009395,0.089797531913,-0.323638536907,0.0780492361712,-0.0194902802283,-0.194559351687,-0.431445877605,-5.41840696335,0.0524030327797,0.765365004539,-0.00969546288252,-2.29578471184,-0.0960744470358
2017/07/09/09:59:14.146105,393881,1499565556,949483619,,0.835408673635,0.216305599654,0.191270465864,0.714884920377,0.691002076911,0.0813873645347,0.0695109862929,0.0803859882957,-0.334715788033,0.0658579543564,-0.0169957376553,-0.169974401496,-0.45402990356,-4.71752405167,0.396966159344,0.154447764158,-0.119217529893,-2.11150074005,-0.14264947176
2017/07/09/09:59:14.156223,393882,1499565556,959484559,,0.83619163268,0.212899436262,0.192442411619,0.716346850034,0.689324056304,0.0818104867439,0.0706157213776,0.0686549926335,-0.3090738388,0.0403944714651,-0.00495186634264,-0.122843062227,-0.426363402129,-4.9304356575,-0.0749136805534,0.372104883194,0.0758044272661,-2.2311103344,-0.0599656961858
2017/07/09/09:59:14.166267,393883,1499565556,969477227,,0.836925487381,0.209607985245,0.192949464348,0.717773241289,0.687706030537,0.0821049096637,0.0715595798049,0.0708565729612,-0.326782860281,0.0646715240134,-0.034982985312,-0.146463417047,-0.441245863521,-5.10711669922,-0.0374425649643,0.318926304579,-0.0184696651995,-2.2812871933,-0.110432460904
2017/07/09/09:59:14.176081,393884,1499565556,979480945,,0.83730808643,0.207090804058,0.193118191984,0.718980865532,0.686410872447,0.08222926647,0.071728494481,0.0802345495324,-0.315383797811,0.0722642885829,-0.0205675877214,-0.174675297683,-0.430610918345,-6.75117254257,0.114226669073,0.438509464264,0.0582366548479,-2.93942070007,-0.0592207759619
2017/07/09/09:59:14.186233,393885,1499565556,989489847,,0.83863333307,0.203657111651,0.19449590542,0.720277583769,0.684802810672,0.0828918579074,0.073309294828,0.0798307645302,-0.291127689549,0.0631338537989,-0.0205742146203,-0.170099181413,-0.39513358831,-7.34040260315,-0.392031669617,0.891304016113,0.144289791584,-3.16286635399,-0.0388018898666
2017/07/09/09:59:14.196447,393886,1499565556,999476661,,0.839019729012,0.200711807669,0.194792547781,0.721526284587,0.683423939808,0.0829810518219,0.0737948791285,0.079464740669,-0.302562885253,0.0594129439911,-0.0128851308986,-0.166032690023,-0.41390130852,-7.44130373001,-0.363041698933,0.551018893719,0.260514080524,-3.15403103828,0.0192806795239
2017/07/09/09:59:14.206211,393887,1499565557,9481554,,0.839719524704,0.198605762911,0.195037420373,0.722432896112,0.682357695867,0.0832248082988,0.0745138697808,0.0657992668316,-0.319937003956,0.0406810697096,-0.0360092884834,-0.128613260947,-0.432142581458,-6.72986936569,0.276220560074,0.521841049194,0.00879378244281,-2.86707568169,-0.0669526308775
2017/07/09/09:59:14.216062,393888,1499565557,19483243,,0.8406612282,0.194887317987,0.195406898236,0.724292982965,0.680241483043,0.0838257856965,0.0751294697657,0.0660068410161,-0.314702950449,0.0358465647894,-0.04049834593,-0.132909425252,-0.422753420827,-6.73946046829,-0.128685921431,0.388497978449,0.0259222909808,-2.88539028168,-0.102605417371
2017/07/09/09:59:14.225975,393889,1499565557,29480635,,0.8409971919,0.193154899104,0.195269462789,0.725049263958,0.679437618636,0.0836763409411,0.0752752096158,0.0855428550612,-0.30902101084,0.0416987157122,-0.0278136526631,-0.167046422071,-0.420388857132,-6.63703584671,0.00675682723522,0.311319708824,0.0314202234149,-2.78782725334,-0.0504912286997
2017/07/09/09:59:14.235964,393890,1499565557,39476777,,0.841937562843,0.189542934478,0.196493999006,0.726710074475,0.677459817742,0.0840588436218,0.0766470730749,0.0652890054387,-0.321012587502,0.0398588943619,-0.0440826241666,-0.120634956737,-0.409077868889,-6.45267486572,0.170591145754,0.279634296894,-0.0495322719216,-2.6878991127,-0.0895413830876
2017/07/09/09:59:14.245961,393891,1499565557,49476702,,0.84231956621,0.186351937692,0.196094339231,0.727724760734,0.676381247479,0.08368140093,0.0769578054032,0.0525636015075,-0.281863664718,0.0243679963162,-0.0235492425493,-0.0753090661413,-0.39168935009,-7.48059606552,-0.46414616704,0.124104902148,0.022379592061,-3.08683872223,-0.0863235965371
2017/07/09/09:59:14.256154,393892,1499565557,59480329,,0.842452326753,0.18320636521,0.195845447976,0.729500785415,0.674485318247,0.0834356454578,0.0770496762796,0.0415179000847,-0.310542455623,0.0221126378927,-0.0282810180577,-0.042485666735,-0.421202785786,-7.60720682144,-0.0710785984993,-0.187657997012,-0.0454859361053,-3.14433526993,-0.0999713987112
2017/07/09/09:59:14.265935,393893,1499565557,69475481,,0.842643254238,0.180638971135,0.196176276316,0.730822530614,0.673064096545,0.0832114428952,0.0771946012388,0.0405379775164,-0.294668718506,0.0250190774585,-0.0269876684114,-0.037475156899,-0.393573007113,-8.03485679626,-0.318670153618,-0.0533217638731,0.10766004771,-3.30461192131,-0.042441111058
2017/07/09/09:59:14.276343,393894,1499565557,79480668,,0.843175577434,0.177311808568,0.196579932783,0.731968833875,0.671768912333,0.0830051513009,0.0778350789581,0.0325657363396,-0.299427049801,0.0231997682485,-0.0391426034227,-0.0171855735907,-0.411568759656,-7.68804550171,-0.60877853632,-0.049062654376,0.20307546854,-3.21136808395,0.00117822736502
2017/07/09/09:59:14.285968,393895,1499565557,89474702,,0.843081604246,0.174674771985,0.196405942202,0.733271921141,0.670462669465,0.0821307473818,0.0777601366714,0.0242417702049,-0.291385498709,0.0194106909037,-0.0436814813849,0.0102976136469,-0.387347005387,-7.8331193924,-0.415518939495,-0.103321261704,0.199412420392,-3.28573584557,-0.0224598124623
2017/07/09/09:59:14.296197,393896,1499565557,99480912,,0.843398622534,0.171937881945,0.196324474856,0.734488482594,0.669117709197,0.0818841009741,0.0781226867453,0.0200594157182,-0.304014917786,0.00273851083161,-0.0562219412926,0.0391114752641,-0.407977943538,-7.79011964798,-0.617702245712,0.0846014469862,0.335304945707,-3.23588371277,0.0443419516087
2017/07/09/09:59:14.306241,393897,1499565557,109479065,,0.843690913265,0.169743925301,0.196564107032,0.735350526205,0.668212059439,0.0814548944473,0.0782134732745,0.02159413266,-0.299765921916,-0.000728398895764,-0.0702276505406,0.0470764445436,-0.383365153795,-7.06719589233,0.121144197881,-0.0823857784271,0.13706971705,-2.96463155746,-0.0296550095081
2017/07/09/09:59:14.316067,393898,1499565557,119481072,,0.844267674902,0.166526413865,0.196868601755,0.736680599772,0.666696314813,0.0814160200735,0.0786711472486,0.0276374484882,-0.30051447091,-0.0005056274303,-0.0309494536349,0.0417308953134,-0.404895570981,-7.41586303711,-0.076868981123,-0.106424927711,0.116604059935,-3.01811885834,-0.0526580661535
2017/07/09/09:59:14.326099,393899,1499565557,129477674,,0.844195790455,0.16429525024,0.196363035453,0.738087168987,0.66528037559,0.0807308750301,0.0781785050209,0.0358162851611,-0.289785342363,0.00614935728658,-0.00642005414106,0.0209684163746,-0.412332273933,-8.37029933929,0.0931386649609,0.0715474635363,0.0397611819208,-3.35326313972,-0.0645189583302
2017/07/09/09:59:14.336139,393900,1499565557,139485059,,0.844415240584,0.161248681759,0.196796178717,0.739374067487,0.663871643986,0.0801698971772,0.0785698175265,0.027376115579,-0.284182711547,-0.000544471831591,-0.0416085232063,0.0591758523626,-0.374728017665,-7.4090719223,0.371766060591,0.295330822468,-0.0404263660312,-2.94567799568,-0.0958717614412
2017/07/09/09:59:14.346005,393901,1499565557,149483026,,0.844925789275,0.159008359246,0.196701154246,0.74061094082,0.662538128191,0.0800029076302,0.0783466515024,0.0180056960727,-0.276124196665,-0.00951370495691,-0.0389435880769,0.0998285367729,-0.382390120958,-7.77180624008,0.518383860588,0.144758477807,-0.110606171191,-3.16245651245,-0.105902045965
2017/07/09/09:59:14.356325,393902,1499565557,159478704,,0.844930576803,0.155989119524,0.196464801273,0.741849353485,0.661265950643,0.0791363261646,0.0782580419917,0.0238695293059,-0.29212080764,-0.000396155772123,-0.0267013147688,0.0915129560116,-0.410857546601,-7.57484292984,0.398767352104,-0.16936725378,-0.137577742338,-3.09235787392,-0.14187169075
2017/07/09/09:59:14.366219,393903,1499565557,169493339,,0.844785248487,0.153073844543,0.196201011373,0.743137061143,0.659995639816,0.077919163813,0.0779850478656,0.00959898206898,-0.291624185341,-0.018617274626,-0.030796962472,0.137462110463,-0.398375036629,-6.69903612137,0.40808352828,-0.587499439716,-0.0960760638118,-2.84307765961,-0.0939209535718
2017/07/09/09:59:14.376023,393904,1499565557,179476419,,0.845046245119,0.150248971948,0.195938526811,0.744414942635,0.658659629446,0.077012414249,0.07799342134,0.00350792178395,-0.290558066771,-0.0213516957386,-0.0574448662294,0.166342699425,-0.389716218127,-6.1140203476,-3.58074903488e-05,-0.48834463954,0.0507640987635,-2.72254157066,-0.0392844602466
2017/07/09/09:59:14.386240,393905,1499565557,189477633,,0.845113543056,0.147668461557,0.195914222715,0.74548330683,0.657582911799,0.0760143452496,0.0778535334016,0.0135990313939,-0.310469091541,-0.0067416876855,-0.112638032338,0.146768229309,-0.368037426963,-5.47847652435,0.455757409334,-0.93939357996,-0.15022046864,-2.51996064186,-0.109095424414
2017/07/09/09:59:14.395838,393906,1499565557,199478400,,0.845578820123,0.142977910123,0.196061292195,0.747075991338,0.655827665228,0.0747205610064,0.0786407938113,0.0120443712256,-0.312024638183,-0.00742644451311,-0.114675583933,0.163078964211,-0.375329814148,-5.20475578308,0.066791921854,-0.916504085064,-0.109047167003,-2.52032089233,-0.0918458551168
2017/07/09/09:59:14.406139,393907,1499565557,209495810,,0.845880088733,0.141026504514,0.196171992468,0.747812337188,0.655072107696,0.0740639030596,0.0785606792964,0.0167212171784,-0.339102104631,0.00839418314435,-0.163404777562,0.14379940035,-0.380339821518,-5.44007444382,0.55408757925,-1.19867014885,-0.234306722879,-2.64651584625,-0.125676333904
2017/07/09/09:59:14.416251,393908,1499565557,219481037,,0.845526738597,0.137261697326,0.195741032577,0.749225619234,0.653655324925,0.0721162619079,0.0787078931782,0.00652970288875,-0.340096876497,-0.0141723101757,-0.15520552569,0.185877049659,-0.389515216998,-4.12036418915,0.476547837257,-1.40704512596,-0.240078777075,-2.1386244297,-0.136913388968
2017/07/09/09:59:14.426169,393909,1499565557,229477206,,0.845749041592,0.135067613796,0.195374235099,0.750239555272,0.652648308343,0.0709889747211,0.0784306113143,0.00781234832463,-0.346098156397,-0.0124818762463,-0.175943537241,0.191786506719,-0.377874105233,-4.67451858521,0.709731578827,-0.901503205299,-0.258633553982,-2.38608694077,-0.120550237596
2017/07/09/09:59:14.438359,393910,1499565557,239483731,,0.845923625166,0.130626858136,0.196032543188,0.75152154112,0.651207786938,0.0695220175735,0.0794385330693,0.0301868821479,-0.317037468105,0.00992126336954,-0.174571368479,0.132140146446,-0.362502615201,-6.11838674545,-0.133610323071,-0.262061208487,-0.100534237921,-2.83505296707,-0.00399366021156
2017/07/09/09:59:14.446462,393911,1499565557,249476773,,0.845651710448,0.127982381792,0.195133751671,0.752702565541,0.650101980511,0.067753386885,0.0788399729198,0.00618794849211,-0.332291592366,-0.00704398562666,-0.195622242261,0.186981457558,-0.359549488231,-5.61097002029,0.199867010117,-0.724019765854,-0.135939344764,-2.66813850403,-0.0409350767732
2017/07/09/09:59:14.456189,393912,1499565557,259480124,,0.846239302483,0.124817462987,0.19516974763,0.753315018327,0.649408133231,0.0666380378811,0.0796550787017,-0.0037432002781,-0.310453729324,-0.0117488088944,-0.182143765814,0.217269575897,-0.335997156477,-4.65244293213,0.40258488059,-1.03123545647,-0.16058447957,-2.34492731094,-0.0614929571748
2017/07/09/09:59:14.466036,393913,1499565557,269479902,,0.846272775409,0.121827088325,0.195311255063,0.754661093188,0.647961671585,0.0653975870235,0.0797211527531,0.0123329569421,-0.332923437831,-0.00382710038504,-0.217631579784,0.188316397589,-0.316901708521,-3.27859997749,0.0966250151396,-1.128657341,-0.055103611201,-1.74894917011,-0.0309372544289
2017/07/09/09:59:14.476480,393914,1499565557,279484654,,0.845881071227,0.118771090326,0.194855835078,0.755612632285,0.647076866845,0.0632874763665,0.0795975732032,0.00185335301357,-0.331057669329,-0.0106324361237,-0.212336370404,0.219221597844,-0.340235349305,-2.78338503838,0.128178983927,-0.82139056921,-0.0824331194162,-1.5361032486,-0.0402467399836
2017/07/09/09:59:14.485923,393915,1499565557,289487166,,0.846470777888,0.116091534355,0.195404524729,0.756171571192,0.646434743679,0.0621360078292,0.0804101586644,0.00735292658729,-0.329888440131,-0.00773820722084,-0.238933719217,0.212105560433,-0.334259315907,-3.53670668602,0.549908578396,-0.541276931763,-0.167195737362,-1.73945951462,-0.0169207826257
2017/07/09/09:59:14.496395,393916,1499565557,299484807,,0.846119456812,0.112155545101,0.195505428382,0.757414634736,0.645165265248,0.059847221725,0.0806421828628,-0.00458969378534,-0.332272592177,-0.0136208126374,-0.22742305495,0.241601809947,-0.332888605034,-3.96335840225,0.0808504223824,-0.221571743488,-0.133826732635,-1.78722727299,-0.0625738352537
2017/07/09/09:59:14.505907,393917,1499565557,309478679,,0.84626898545,0.108556741881,0.195765052913,0.758284598148,0.644227173527,0.0580482607527,0.0812786351087,-0.0166310853901,-0.34676698931,-0.00141783623708,-0.261542961922,0.26242749349,-0.332212567941,-3.9839193821,0.29553732276,-0.187977537513,-0.188453599811,-1.77589464188,-0.0663561448455
2017/07/09/09:59:14.516163,393918,1499565557,319484460,,0.846162187258,0.106342212525,0.194732946518,0.759254008988,0.643300742608,0.056450287893,0.0806899584308,0.00601293244419,-0.34271832193,0.00754309372671,-0.268241899242,0.212594867197,-0.322483361457,-2.89468622208,0.686717391014,-0.709005236626,-0.174220979214,-1.35137796402,-0.0526169165969
2017/07/09/09:59:14.525939,393919,1499565557,329477978,,0.845487732118,0.101812281035,0.194640810565,0.760483724585,0.642011732295,0.0538472096786,0.081153670571,-0.0202067691256,-0.33372098909,-0.0178784656092,-0.245439602625,0.282106061408,-0.326067126993,-1.72600162029,-0.164733827114,-0.773773729801,-0.0723352134228,-0.838557362556,-0.0730942040682
2017/07/09/09:59:14.535977,393920,1499565557,339495478,,0.845578049002,0.099158119647,0.194532190325,0.761591201884,0.640842085179,0.0525034007452,0.0808928673422,-0.0346416389607,-0.359899414915,-0.0186672630776,-0.263893480331,0.309755334579,-0.349705523627,-1.19933259487,0.1547177881,-0.820269465446,-0.0664906203747,-0.648729562759,-0.0609455183148
2017/07/09/09:59:14.546147,393921,1499565557,349484889,,0.844730450029,0.0958847728748,0.194200111484,0.76264674547,0.639825205423,0.0500482394346,0.0805532237644,-0.0379032088695,-0.332642819007,-0.0122950101481,-0.25610515382,0.321550624354,-0.32900272152,-1.20228028297,-0.165709286928,-0.746178984642,-6.75655901432e-05,-0.674664616585,-0.04592885077
2017/07/09/09:59:14.556109,393922,1499565557,359484087,,0.844790380796,0.0927540092269,0.194678467541,0.763368517187,0.639019830298,0.047984810866,0.0813610556709,-0.0464342701482,-0.342258507378,-0.0106809616184,-0.26642192239,0.339349132485,-0.324196347634,-1.50553798676,0.41736933589,-0.189090833068,-0.194226831198,-0.89388012886,-0.0500170662999
2017/07/09/09:59:14.566137,393923,1499565557,369477760,,0.844159611206,0.0891665380937,0.194105158704,0.764642974004,0.637701827009,0.0454738215676,0.0811765587291,-0.043748207471,-0.337966687346,-0.00388955510434,-0.258510097499,0.327420324828,-0.342398489737,-0.353612482548,0.227166265249,-0.427829384804,-0.270802944899,-0.393108248711,-0.139868319035
2017/07/09/09:59:14.576040,393924,1499565557,379484764,,0.844002816169,0.0871317330284,0.194441618672,0.765288584654,0.637068536307,0.0442476516829,0.0807416098813,-0.0495992005394,-0.339537004851,-0.00887516610219,-0.250957338976,0.335370396,-0.348598154528,0.343867272139,0.0609152764082,-0.30936807394,-0.177025288343,-0.0959356501698,-0.11648619175
2017/07/09/09:59:14.586046,393925,1499565557,389475923,,0.842801368793,0.0832162417132,0.193452109487,0.766410152408,0.635961757444,0.0411842204101,0.0804486254953,-0.0397815545137,-0.327407957166,-0.00650420915782,-0.246462543009,0.315869217148,-0.334258732563,1.44927465916,-0.480360865593,-0.402606070042,-0.175887987018,0.46679276228,-0.179906770587
2017/07/09/09:59:14.596121,393926,1499565557,399480931,,0.843275772636,0.0801658681682,0.194541349142,0.767276299407,0.63488382727,0.0400520118004,0.0812738739677,-0.0442950933142,-0.324644876585,-0.0165515381874,-0.227314696857,0.319833186256,-0.343034251201,3.5013449192,-0.634827017784,0.185579165816,-0.108922719955,1.23733103275,-0.200696483254
2017/07/09/09:59:14.606021,393927,1499565557,409476888,,0.842456400388,0.0772167147434,0.193879196578,0.768541385691,0.633592319987,0.0378099952881,0.080469340683,-0.0382579638097,-0.326426550245,-0.000434551056055,-0.243963296486,0.303299226948,-0.322314175319,2.90573787689,-0.294349014759,-0.283849745989,-0.0826034396887,1.00656414032,-0.126638233662
2017/07/09/09:59:14.616187,393928,1499565557,419484497,,0.841352516449,0.0740195868424,0.193324451431,0.769627577552,0.6325098747,0.0351135799527,0.0798228462343,-0.0530533227865,-0.325513255634,-0.0102502911684,-0.221828706926,0.339580057624,-0.35269703765,2.29522919655,-0.300319701433,-0.727973818779,-0.119872838259,0.791936516762,-0.154573470354
2017/07/09/09:59:14.626366,393929,1499565557,429485583,,0.841552977044,0.0716508578208,0.193481938205,0.770204149734,0.631849505897,0.0335905024936,0.0801464145924,-0.0610605299823,-0.309398073969,-0.00130824137063,-0.226455752679,0.357538503144,-0.332587675672,1.55877912045,0.084724843502,-0.566771686077,-0.284172713757,0.441409111023,-0.159895241261
2017/07/09/09:59:14.636205,393930,1499565557,439485030,,0.841506538343,0.0689582778284,0.194145019207,0.77091979292,0.631011194392,0.0319663277263,0.0805338396434,-0.0470675107496,-0.311244731933,0.0110536608172,-0.248637981394,0.317565596789,-0.325887491684,2.01997876167,-0.16660232842,0.519529461861,-0.162561401725,0.684248805046,-0.184498399496
2017/07/09/09:59:14.646216,393931,1499565557,449477585,,0.840531139333,0.065997398836,0.194036540293,0.771893352761,0.629987563295,0.02958217335,0.080132497006,-0.0544014954217,-0.301521869227,0.00842656418551,-0.231519248568,0.326079702841,-0.331365453124,3.52259802818,-0.458348751068,0.896205604076,-0.0469482317567,1.3264605999,-0.217402249575
2017/07/09/09:59:14.656030,393932,1499565557,459490065,,0.83962899887,0.0616280101305,0.194170538591,0.773334378003,0.628295675629,0.0270593343724,0.0804131594172,-0.0557467372304,-0.330661475994,0.0177135926452,-0.234611501391,0.30205830683,-0.378865302876,4.16782283783,-0.757509768009,0.831113159657,0.0934306830168,1.62200021744,-0.225806981325
2017/07/09/09:59:14.666098,393933,1499565557,469476335,,0.838844153666,0.0594292111006,0.193318858248,0.77452070645,0.627026559039,0.025117875421,0.0795264853696,-0.0637381796629,-0.310695869839,0.00546564600917,-0.214533586167,0.324458381875,-0.374363574371,4.7457408905,-0.730945527554,0.520887136459,0.113288462162,1.84903085232,-0.229692146182
2017/07/09/09:59:14.676148,393934,1499565557,479483957,,0.838738787875,0.0572597644619,0.194329725124,0.775102454157,0.62634766437,0.023572341616,0.079681450848,-0.0649165995753,-0.288928388664,0.0119047839722,-0.19951878972,0.320634749344,-0.333717560671,4.93810033798,-0.513601541519,0.763207435608,0.0606909878552,2.01451420784,-0.261647164822
2017/07/09/09:59:14.686177,393935,1499565557,489478495,,0.838181227167,0.0543300416461,0.194103698039,0.776168893163,0.625120522232,0.0221167410422,0.0793538388251,-0.0687865711633,-0.303902176247,0.0191102403894,-0.184183107373,0.306663105423,-0.369697199472,5.53526210785,-0.72475361824,0.811604976654,0.00870651006699,2.22844099998,-0.33689892292
2017/07/09/09:59:14.696164,393936,1499565557,499484582,,0.838014439193,0.0516392639396,0.1945875767,0.777036467418,0.62403532261,0.0206252379958,0.0798050374041,-0.0462861757668,-0.275870604677,0.0117643652123,-0.152267490424,0.259828969552,-0.362597142469,7.65416479111,-0.459461539984,0.51593285799,0.0751649439335,3.03343677521,-0.376510709524
2017/07/09/09:59:14.705997,393937,1499565557,509506416,,0.837933652001,0.0489262267002,0.194852251597,0.778236387796,0.622580897714,0.0198165612871,0.0796771887698,-0.0339354200968,-0.268500357132,0.0143734239354,-0.144475517475,0.223688388778,-0.340425231736,7.02825641632,-0.403060019016,0.622378110886,-0.137621104717,2.67477869987,-0.382989823818
2017/07/09/09:59:14.716205,393938,1499565557,519484369,,0.838024336009,0.0465095341518,0.195439765482,0.779273487328,0.62127380412,0.0190012140886,0.0799415168999,-0.0322754856085,-0.270359284126,0.0257216939691,-0.146818444141,0.188098837607,-0.339362676437,7.7058391571,1.05811583996,0.617694556713,-0.295682102442,2.96336197853,-0.442007988691
2017/07/09/09:59:14.726189,393939,1499565557,529484813,,0.837289811698,0.0437817423231,0.195340076375,0.780401108704,0.619930750117,0.0175099729833,0.079708063833,-0.0204147486942,-0.268054524488,0.0375472149188,-0.135445063261,0.139669715059,-0.35634543216,7.08636665344,-0.107669129968,0.923785567284,0.257422417402,2.68930792809,-0.320200413465
2017/07/09/09:59:14.736089,393940,1499565557,539475693,,0.837087494217,0.0414684754513,0.195692611013,0.781395964456,0.618710766213,0.0166639729497,0.0796218971719,-0.00414109978312,-0.27086455338,0.0513226744836,-0.134129210542,0.0805035172077,-0.365954410591,8.13656997681,-0.478219807148,1.6679828167,0.199979424477,3.22315573692,-0.445956289768
2017/07/09/09:59:14.746087,393941,1499565557,549476747,,0.837523895208,0.0392787429169,0.196110751147,0.782151774529,0.617684904766,0.0161049729429,0.08027820297,-0.0158091370326,-0.261307054781,0.0358498158629,-0.113046651471,0.105337409853,-0.35384214212,9.51312065125,-0.751914441586,2.01546597481,0.169717073441,3.82771635056,-0.583484709263
2017/07/09/09:59:14.756023,393942,1499565557,559483035,,0.837582986846,0.0362482793309,0.196738053129,0.783145568844,0.616371691585,0.0155786053853,0.080785288681,-0.00589668712738,-0.2561498075,0.0446999213978,-0.115400703396,0.0706210809542,-0.351320586416,8.25983715057,-0.583901166916,1.70940423012,0.160517424345,3.32628035545,-0.507631957531
2017/07/09/09:59:14.765950,393943,1499565557,569479866,,0.837323672433,0.0336562129366,0.197048301709,0.784196668859,0.615016968968,0.014471240981,0.0811190213003,0.0175323265473,-0.240674097622,0.0547746662771,-0.0754403071018,0.00608817885831,-0.34526461726,8.53517913818,-0.691619932652,1.44066417217,0.293345868587,3.44764995575,-0.462600171566
2017/07/09/09:59:14.776136,393944,1499565557,579484408,,0.838074358975,0.0316877187515,0.197728157069,0.78510838046,0.613767970878,0.0148043761132,0.0816978537342,0.00972787518933,-0.248498272185,0.0519602191766,-0.105080762052,0.0165978859132,-0.346086745838,7.78560590744,-0.508638739586,1.13928067684,0.268015414476,3.18615341187,-0.420828551054
2017/07/09/09:59:14.786104,393945,1499565557,589484173,,0.837737847539,0.0293279400139,0.197923255475,0.786110614308,0.612508469346,0.0142933697466,0.0816037783015,-0.000665010961357,-0.260568494823,0.0471991542362,-0.104159217546,0.0231941775606,-0.353367810793,8.09241771698,-1.51103830338,1.19096124172,0.7734131217,3.30361795425,-0.322950869799
2017/07/09/09:59:14.796149,393946,1499565557,599476475,,0.838053045752,0.0269596165709,0.198973933437,0.78711762178,0.611130608116,0.0142723918753,0.0822285117122,0.0112494611164,-0.282952745153,0.0575491321448,-0.11285778903,-0.0402728062933,-0.373768863483,7.50071048737,-2.47805118561,1.10793471336,1.24196815491,3.0367937088,-0.254750043154
2017/07/09/09:59:14.806026,393947,1499565557,609477003,,0.837708857413,0.0240182174424,0.198840678651,0.788329499627,0.609567665516,0.0136747323791,0.082321703514,-0.0162251105836,-0.272221539782,0.027443830523,-0.0684392252961,0.024348928918,-0.378658232464,6.23412227631,-3.05678796768,0.802993357182,1.5895935297,2.43132519722,-0.103403814137
2017/07/09/09:59:14.816102,393948,1499565557,619483813,,0.838264913566,0.0225320413771,0.199516111837,0.788966514065,0.60867078694,0.0139545869385,0.0828068977401,0.00971358211857,-0.254438288052,0.0438485028867,-0.0501207480938,-0.044616206957,-0.374623679293,5.93399524689,-2.8983836174,0.686949312687,1.43371713161,2.25553035736,-0.080914594233
2017/07/09/09:59:14.826020,393949,1499565557,629477796,,0.838352771922,0.0209425595371,0.199792183151,0.789818056729,0.607577753438,0.0138997788175,0.0827254914848,0.0143983042374,-0.223488253461,0.0413200984436,-0.0154857192246,-0.0587290558054,-0.329078003949,5.97597551346,-2.09626960754,0.533448815346,0.998941957951,2.2183406353,-0.189158678055
2017/07/09/09:59:14.836107,393950,1499565557,639480616,,0.838541884988,0.0179020724857,0.20048459514,0.791431415625,0.605385086541,0.0144161816156,0.0832909662742,0.00902598003842,-0.198819490707,0.0319763991222,0.0214436079285,-0.0445800390104,-0.323633212324,6.74690151215,-1.24482452869,0.769093036652,0.539115130901,2.49369454384,-0.303562760353
2017/07/09/09:59:14.846628,393951,1499565557,649477345,,0.838591059437,0.0157298908037,0.20075793258,0.7920494112,0.604515320325,0.0142571015219,0.0837597323709,0.0185793701321,-0.196301603424,0.0463456787829,0.038471625592,-0.0893537795259,-0.323540241739,6.89095830917,-0.718099951744,1.00101411343,0.311786323786,2.53886294365,-0.367045432329
2017/07/09/09:59:14.856430,393952,1499565557,659476846,,0.838603097959,0.0142735946572,0.200907609907,0.79278408347,0.603587305637,0.0145489248661,0.0834511249552,0.018619911142,-0.218381180025,0.0550031337104,0.0197387592552,-0.113327134551,-0.34652238712,7.59883356094,-0.834901630878,1.21007859707,0.338012725115,2.7967941761,-0.383093237877
2017/07/09/09:59:14.865846,393953,1499565557,669478071,,0.839127506758,0.0124353850044,0.201629193083,0.793915909615,0.602033323596,0.0154843939248,0.0837474733098,0.00268372043751,-0.242982601592,0.0357087399988,0.00442508987395,-0.0798736240159,-0.355435820632,8.56660556793,-0.969510436058,1.39661133289,0.356223583221,3.18770885468,-0.451794743538
2017/07/09/09:59:14.876043,393954,1499565557,679484483,,0.838413726118,0.00994499357192,0.201176225304,0.795307090984,0.60029967762,0.0154133082369,0.0830021566528,0.00924744657887,-0.253079277829,0.0465111990455,0.0232698926146,-0.122197288979,-0.388622638795,7.6591129303,-0.886975169182,1.15491068363,0.349428087473,2.81205940247,-0.393032521009
2017/07/09/09:59:14.886041,393955,1499565557,689484754,,0.838984904747,0.00601391246132,0.202938537083,0.796654848804,0.598220758064,0.0159856615868,0.0849554890674,0.00963498664037,-0.257169533203,0.04979183168,0.00127250196849,-0.128664157387,-0.373213310223,6.12890815735,-1.0803488493,0.938130319118,0.491076469421,2.24701166153,-0.275119960308
2017/07/09/09:59:14.896250,393956,1499565557,699484759,,0.838957499708,0.00461177060397,0.203152422339,0.797304208195,0.597361601044,0.0162498912824,0.0848590491711,0.0157401779381,-0.241414371416,0.0661921809346,0.0262260475497,-0.164938945938,-0.371226398435,6.94702577591,-1.2943969965,1.23093187809,0.589577555656,2.6522731781,-0.304307729006
2017/07/09/09:59:14.906289,393957,1499565557,709481370,,0.839205877676,0.00219882296317,0.203048629084,0.798498260065,0.595704986616,0.0169448712359,0.0851408769815,-0.00318081157207,-0.235129855144,0.0302697392837,0.0375735935304,-0.106123933573,-0.349658171459,7.45691776276,-1.75372636318,1.3868496418,0.828152239323,2.89536881447,-0.282242238522
2017/07/09/09:59:14.916003,393958,1499565557,719480593,,0.838288708509,0.000269149023756,0.202600534445,0.799615247966,0.59434528298,0.0167338086167,0.0841969089093,-1.62802650148e-05,-0.236106593665,0.0219454343699,0.035388061199,-0.108233565309,-0.365759281229,7.30011224747,-1.64572095871,1.32962703705,0.801152706146,2.828997612,-0.298121452332
2017/07/09/09:59:14.925798,393959,1499565557,729477509,,0.838424748483,-0.00321453527956,0.203621335771,0.800713715227,0.592670996436,0.0169581508258,0.0855047212212,-0.0151607459794,-0.248174639493,0.0339803532028,0.0248091354589,-0.0961449679787,-0.360963170708,6.64348983765,-1.26879096031,1.01684606075,0.507056117058,2.54878354073,-0.332331120968
2017/07/09/09:59:14.936306,393960,1499565557,739479955,,0.838093591548,-0.00505311914081,0.204119022907,0.801443687946,0.591675109823,0.0171264314103,0.0855293213782,-0.0259467431178,-0.243242802173,0.0295074507578,0.0219551719496,-0.0744562019874,-0.35620497852,6.68789863586,-1.24290430546,1.00051736832,0.537304520607,2.50389313698,-0.320572495461
2017/07/09/09:59:14.946369,393961,1499565557,749481235,,0.837707957541,-0.0066119257278,0.203659537053,0.802394141889,0.59046710371,0.0172138425598,0.0849465957088,-0.0454045967407,-0.244957815158,0.034151756541,0.0266830614054,-0.0443956893145,-0.376235620251,6.28322172165,-1.11857330799,1.14014303684,0.470590740442,2.37213969231,-0.321511745453
2017/07/09/09:59:14.956163,393962,1499565557,759475560,,0.837222163975,-0.00934735462027,0.204008040055,0.803526907788,0.58886441354,0.0171193641023,0.0853823067087,-0.0377938922521,-0.235592526821,0.027032213187,0.00710330338633,-0.0503537616016,-0.326423289258,7.03630924225,-1.2145345211,1.23595225811,0.507010281086,2.6552324295,-0.345692843199
2017/07/09/09:59:14.965961,393963,1499565557,769480699,,0.83704403541,-0.011401874478,0.204415873174,0.804142119724,0.587980148818,0.0172811591322,0.085651371391,-0.0431693502285,-0.268950055165,0.0241141588685,-0.0028104945377,-0.0656005566224,-0.373364920305,7.10340118408,-1.45310938358,1.27333319187,0.62767624855,2.70407557487,-0.335812747478
2017/07/09/09:59:14.976154,393964,1499565557,779481439,,0.836345641535,-0.0138941510914,0.204278981253,0.805521051186,0.586121993776,0.0174080762129,0.0854037668376,-0.0355357746511,-0.230904412147,0.0218873836288,0.0160563752238,-0.0651083976037,-0.325577082345,6.86711835861,-1.57398235798,1.29153943062,0.666155219078,2.67185783386,-0.335124582052
2017/07/09/09:59:14.985963,393965,1499565557,789482637,,0.836711985201,-0.0164869252933,0.204764454502,0.80635095257,0.584818124312,0.0182068562655,0.0863389434116,-0.0434512876766,-0.255431134224,0.019472043694,0.0246379250861,-0.0750968397656,-0.346673396938,6.34199523926,-1.31310272217,1.42255246639,0.581652522087,2.55049467087,-0.335069477558
2017/07/09/09:59:14.996557,393966,1499565557,799487347,,0.835808571298,-0.0185406345705,0.204591516042,0.8069942951,0.583980836961,0.0177382023066,0.0860926588979,-0.0435773837865,-0.249347580861,0.00735518952608,0.0235338069872,-0.0728166117932,-0.355780107399,4.99495983124,-1.08162069321,1.28507268429,0.552158296108,2.05876851082,-0.248105734587
2017/07/09/09:59:15.006111,393967,1499565557,809481434,,0.835331243099,-0.0204450494469,0.204807753502,0.807857726308,0.582791230642,0.0181658831791,0.0859667157662,-0.0428785071657,-0.210479669782,-0.000679112184669,0.0128275698854,-0.0421580234865,-0.282423404143,1.91255927086,-2.25377821922,1.06526827812,0.594889521599,1.03688895702,-0.163769841194
2017/07/09/09:59:15.016007,393968,1499565557,819485080,,0.834836142026,-0.0224717158285,0.204863235773,0.80845420463,0.581927916027,0.0180533046432,0.0862309559038,-0.0514143370221,-0.215526711174,0.00187675460613,0.0154159505572,-0.0373709285835,-0.285652636801,1.23690903187,-1.53447985649,1.28846168518,0.412327736616,0.680740773678,-0.152692705393
2017/07/09/09:59:15.026124,393969,1499565557,829477898,,0.834291575087,-0.025759585577,0.204670175831,0.809942502861,0.57979576761,0.0183841084623,0.0865565391932,-0.0600186411623,-0.251602296908,0.00375200109406,-0.0146239634442,-0.0507081558972,-0.311819874045,2.0387570858,-1.58889317513,0.996697664261,0.323088467121,0.990155696869,-0.206319317222
2017/07/09/09:59:15.035981,393970,1499565557,839475256,,0.833607674435,-0.026977763654,0.204527354404,0.810608735145,0.57892403511,0.0182347978996,0.0861854525063,-0.0535247617343,-0.22729862031,-0.00108781443556,0.013620858266,-0.0581508816816,-0.285007954047,2.20927596092,-1.16411745548,0.320784986019,0.439282774925,1.05862259865,-0.162870928645
2017/07/09/09:59:15.046302,393971,1499565557,849477280,,0.833529312511,-0.0291874747883,0.204621076191,0.81118059366,0.578019036136,0.0188531962993,0.086744425312,-0.0609870175366,-0.229221184441,-0.014651168502,0.00769778731883,-0.0343037110913,-0.287310171151,2.15005707741,-0.953341305256,0.363648533821,0.336801171303,0.997453331947,-0.158503770828
2017/07/09/09:59:15.056022,393972,1499565557,859477406,,0.832371541806,-0.0318293776962,0.20515674023,0.812078012549,0.576752066931,0.0186224318912,0.0868306389258,-0.0604609297658,-0.232838075476,0.00123750644924,0.01743376799,-0.0652708284736,-0.293956722542,2.03783154488,-1.99667751789,0.617109656334,0.568640351295,1.09942662716,-0.178864717484
2017/07/09/09:59:15.065982,393973,1499565557,869483523,,0.831515517801,-0.0336944378684,0.203877221696,0.812684928274,0.575976349377,0.0181447305666,0.0864015107953,-0.0780027804922,-0.242195529152,-0.00105485981453,0.0104920074231,-0.0335439856555,-0.300202035479,0.823398709297,-0.889447748661,0.30136975646,0.232632875443,0.594649076462,-0.16549167037
2017/07/09/09:59:15.076226,393974,1499565557,879488925,,0.831317500078,-0.0351863319213,0.204226227686,0.81325045553,0.575117106703,0.0186683920444,0.086691990958,-0.0763439605146,-0.218614742287,-0.00683499254832,0.028582653497,-0.0255407096842,-0.283192871777,2.56275081635,0.053695589304,0.768252372742,-0.286434620619,1.39011442661,-0.434072375298
2017/07/09/09:59:15.085947,393975,1499565557,889477019,,0.83072416798,-0.0367063723675,0.204311043545,0.814231943929,0.573780094873,0.0190512126408,0.0862542492255,-0.0715290219713,-0.170721111639,-0.0198910308687,0.0716687134205,-0.00106304753021,-0.242467099678,4.85281229019,0.790627241135,1.36084127426,-0.608406066895,2.26869869232,-0.613371908665
2017/07/09/09:59:15.096333,393976,1499565557,899484252,,0.82962373922,-0.0390209601329,0.203605287784,0.814801045985,0.573009294219,0.0185513880062,0.0861130083233,-0.076365990481,-0.18008012014,-0.025767784293,0.0604256559018,0.00545017529544,-0.257685899965,4.35296487808,1.14912581444,1.21071720123,-0.91383254528,2.16768240929,-0.696180105209
2017/07/09/09:59:15.106174,393977,1499565557,909478244,,0.828715704597,-0.0406271921272,0.202936606018,0.815434899928,0.572186151541,0.018273716902,0.0856446334268,-0.0780682516871,-0.205048261053,-0.0219590157286,0.00453714385775,0.00788575010777,-0.248690381266,2.45015764236,1.09627008438,1.05193555355,-0.703287482262,1.36690413952,-0.547196388245
2017/07/09/09:59:15.116092,393978,1499565557,919484980,,0.828031223621,-0.043306696212,0.203506213775,0.816463893282,0.57062587056,0.0182239526909,0.0862595754853,-0.0890736415165,-0.192129361439,-0.0313976329355,0.0123006065875,0.0471233104976,-0.243869396494,0.312919944525,0.199194937944,1.27725863457,-0.450629800558,0.544749677181,-0.399238884449
2017/07/09/09:59:15.126034,393979,1499565557,929478414,,0.827721780028,-0.0445781773524,0.203581527516,0.816798684378,0.570098484009,0.0181256272109,0.086597282681,-0.0759267227018,-0.197525264822,-0.0240409186266,-0.0140769658689,0.0214277124015,-0.238485712781,0.158627554774,0.213779479265,1.03822052479,-0.246352300048,0.395714521408,-0.344596236944
2017/07/09/09:59:15.135816,393980,1499565557,939502007,,0.826390757232,-0.0470310813669,0.203356876087,0.817864956783,0.568640285291,0.0178995510315,0.086166957025,-0.0744542225971,-0.18547178634,-0.0193641715641,-0.0214298503013,0.022787376009,-0.225447987993,0.46127474308,-0.345686525106,1.50976157188,0.0282318592072,0.586913466454,-0.299397230148
2017/07/09/09:59:15.146086,393981,1499565557,949475451,,0.825916759064,-0.0486033028551,0.202997397043,0.818371175753,0.567922691931,0.017986932918,0.08607499597,-0.0728393719225,-0.209758797324,0.00342052350612,-0.00537708403817,-0.0267582069067,-0.273487458817,0.0208821743727,-0.668567299843,0.964911580086,-0.0461468547583,0.482816159725,-0.339896410704
2017/07/09/09:59:15.156204,393982,1499565557,959492222,,0.825543992493,-0.0496665969648,0.202863801195,0.818956371149,0.567095188938,0.0181147622748,0.0859381418615,-0.0785836682732,-0.18884924168,-0.0147828659435,0.0159090550294,0.0108568457055,-0.252270911534,2.34417772293,0.124320983887,1.05109143257,-0.136011973023,1.26919186115,-0.414809644222
2017/07/09/09:59:15.166067,393983,1499565557,969476238,,0.824904253367,-0.0517157982122,0.202366888801,0.819356726821,0.566493345542,0.0177595233673,0.0861652075886,-0.0524461496721,-0.138536304125,-0.0298728887554,0.0304304891994,0.0055811378216,-0.181968812413,2.50853013992,-0.541251540184,0.79578268528,-0.0370197743177,1.35256826878,-0.428856134415
2017/07/09/09:59:15.176062,393984,1499565557,979482097,,0.823788755391,-0.0544503619768,0.202502279388,0.820635268433,0.56461984612,0.0173877485421,0.0863704334305,-0.0685094914781,-0.189886443221,-0.0238279638946,-0.0035357076518,-0.0006629564435,-0.238493181835,1.02413606644,-0.497024357319,0.62878626585,-0.137021571398,0.837397158146,-0.384768188
2017/07/09/09:59:15.185965,393985,1499565557,989476705,,0.823308954167,-0.0547398496334,0.201379803264,0.820649308041,0.564701638676,0.0169600785384,0.085785361361,-0.0930135546758,-0.210670584946,-0.0408450175681,-0.0341812830427,0.0612273789663,-0.270978084381,-0.924500107765,0.935436725616,-0.0891236141324,-0.453242123127,-0.0820345655084,-0.289537280798
2017/07/09/09:59:15.196043,393986,1499565557,999481596,,0.822648555378,-0.0565587593351,0.201521716001,0.82119408446,0.563859190686,0.0166877510011,0.0861661632687,-0.0680793847082,-0.177944726534,-0.0235233223031,-0.0529064743053,0.026122920655,-0.203683771578,-2.87159752846,0.848766207695,0.44740575552,-0.446561932564,-0.765315413475,-0.187762886286
2017/07/09/09:59:15.205857,393987,1499565558,9476751,,0.822335635076,-0.0586341818279,0.201935550313,0.821587206285,0.563137374594,0.0162329945768,0.0872195487862,-0.0659319347967,-0.165586095973,-0.0252656271449,-0.0557519384897,0.0364548060658,-0.183318400043,-2.17920970917,0.783893048763,0.808728814125,-0.376984834671,-0.519029319286,-0.190055578947
2017/07/09/09:59:15.215990,393988,1499565558,19485042,,0.821188176002,-0.0607073449051,0.201070212366,0.822347740295,0.562072411086,0.0154364866694,0.0870661450123,-0.0737132586817,-0.178999097347,-0.0363534036631,-0.0650659271211,0.0495813647336,-0.206489545976,-2.44474935532,0.486851543188,0.180286109447,-0.254054039717,-0.649580895901,-0.192270904779
2017/07/09/09:59:15.225926,393989,1499565558,29477443,,0.820819626589,-0.0615767225061,0.201073043604,0.822239912234,0.562229927443,0.015321076676,0.0870878867975,-0.0601877014223,-0.168543623036,-0.0311673931576,-0.0690140610954,0.0228535164151,-0.170290087244,-1.78066194057,0.970003008842,0.265453010798,-0.242178678513,-0.553969979286,-0.170961588621
2017/07/09/09:59:15.236057,393990,1499565558,39483998,,0.820476202141,-0.0623987539233,0.200873560798,0.823101091255,0.561020679086,0.0156573162795,0.0866904819395,-0.0538823975081,-0.135685408821,-0.0149079701666,-0.016168132766,0.00763598061333,-0.162854455279,-1.68251943588,1.26595532894,0.340084373951,-0.349990069866,-0.650918006897,-0.184456586838
2017/07/09/09:59:15.246455,393991,1499565558,49477405,,0.819064569551,-0.0647975215843,0.200352292253,0.82381884525,0.560011484969,0.0146576278783,0.0865725179206,-0.0798336478588,-0.148281707276,-0.0347340306206,0.00998132597017,0.0623113975477,-0.200036617781,-1.74346065521,0.347671806812,-0.259757757187,-0.287422180176,-0.663412809372,-0.190634459257
2017/07/09/09:59:15.256016,393992,1499565558,59481768,,0.819013585541,-0.0657534693814,0.20011111253,0.824232732178,0.559381550865,0.0151674190945,0.0866177415787,-0.0799215811495,-0.149020555699,-0.0418188902303,0.0350214406366,0.0527711090087,-0.20619825274,-0.653686344624,0.868618488312,-0.114122539759,-0.385642021894,-0.257538050413,-0.231291234493
2017/07/09/09:59:15.265917,393993,1499565558,69478020,,0.818015921874,-0.0678916365723,0.20009741998,0.825005636939,0.55824964194,0.014682662205,0.086645575321,-0.0611572296974,-0.139021502134,-0.029328745095,0.00959826878207,0.0189308464435,-0.188465489373,-2.4445104599,0.243529811502,0.15455442667,-0.29755872488,-0.845125198364,-0.137928158045
2017/07/09/09:59:15.276220,393994,1499565558,79479735,,0.817524138506,-0.0682802865386,0.198848690196,0.825225502658,0.558065874567,0.0146933361987,0.0857289640577,-0.0526932941211,-0.117371316561,-0.0258750633283,0.0458499398206,0.00882380265017,-0.184777683782,-2.25593566895,1.06657600403,-0.515719890594,-0.411701619625,-0.894271910191,-0.127153515816
2017/07/09/09:59:15.285801,393995,1499565558,89478570,,0.816526227391,-0.0701909271653,0.198808827805,0.82594413408,0.557020667941,0.0143380003585,0.085666122893,-0.0625120080644,-0.126894791541,-0.0429434295992,0.0459340054322,0.0321007536141,-0.180562808626,-1.99659502506,0.147641614079,-0.454868108034,-0.108342505991,-0.715252757072,-0.115887060761
2017/07/09/09:59:15.296319,393996,1499565558,99476109,,0.816272345458,-0.0700292167365,0.198110173313,0.826051599411,0.556970587768,0.0144498791431,0.084933623875,-0.0649124893842,-0.111620241552,-0.051439109659,0.0461101168922,0.0588596970082,-0.159875762094,-1.90641582012,1.15552210808,-0.554420828819,-0.315687000751,-0.742515563965,-0.137830123305
2017/07/09/09:59:15.306222,393997,1499565558,109481616,,0.815957728129,-0.0714584247416,0.197584304683,0.82661768778,0.556102563504,0.0144540021542,0.0851129774795,-0.0564292880117,-0.110725902377,-0.0509636491063,0.0220963091512,0.0471950272577,-0.146134261474,-1.16305208206,0.825060844421,-0.960061252117,-0.219415873289,-0.46074193716,-0.170570611954
2017/07/09/09:59:15.316049,393998,1499565558,119477789,,0.81540997453,-0.0725083986276,0.197277322972,0.82690196544,0.555701370009,0.0141655872887,0.0850203684851,-0.0466545192811,-0.119185548782,-0.0566700656898,-0.0218474160837,0.0370315671558,-0.137976923856,-2.15382647514,0.869400978088,-0.165506392717,-0.135714113712,-0.79253834486,-0.0850876197219
2017/07/09/09:59:15.326058,393999,1499565558,129481957,,0.815149027737,-0.073910536678,0.197537267906,0.827397733896,0.55489572812,0.0143159007062,0.085432873331,-0.0579159096933,-0.14618339747,-0.0423312250821,-0.0284463364125,0.0281840777506,-0.17008559997,-2.38850498199,1.40189397335,0.304379820824,-0.268044710159,-0.882827103138,-0.109826251864
2017/07/09/09:59:15.336013,394000,1499565558,139484448,,0.814499775432,-0.0751316529972,0.197005409182,0.827807829256,0.554296679204,0.0136662817384,0.0854553801134,-0.0659517482149,-0.140784357543,-0.0347264751428,-0.0158170522923,0.0443910384205,-0.177401083842,-3.16358852386,1.10209345818,-0.218555361032,-0.321220576763,-1.0649086237,-0.118050023913
2017/07/09/09:59:15.346495,394001,1499565558,149478140,,0.813754162685,-0.0762137579901,0.195974523381,0.828195863079,0.553808845471,0.0133491557002,0.084906861319,-0.0604817919939,-0.102118327907,-0.0469720945214,0.0121987203807,0.0688426870575,-0.153027202077,-3.48191595078,1.99770748615,-0.607456684113,-0.577089071274,-1.31361889839,-0.0976651534438
2017/07/09/09:59:15.356149,394002,1499565558,159476852,,0.812873211054,-0.0777751812361,0.195085218698,0.828835647834,0.552925863062,0.0127726680877,0.084506318026,-0.0646787946271,-0.102822643307,-0.0565966256306,0.034141926387,0.0757541236308,-0.149795538304,-3.04064512253,0.695861339569,-0.792268335819,-0.309371650219,-1.10799729824,-0.0820415914059
2017/07/09/09:59:15.366000,394003,1499565558,169480282,,0.812302141811,-0.0785717722702,0.195390841524,0.829149908805,0.552476069085,0.0126852207909,0.084378356178,-0.0737932230793,-0.129824299923,-0.0476471463844,-0.00124719078243,0.076165498381,-0.170981539101,-2.24975967407,1.02785205841,-0.608351111412,-0.394820213318,-0.778815507889,-0.142627343535
2017/07/09/09:59:15.375986,394004,1499565558,179499052,,0.812233485048,-0.0792600434692,0.19517400571,0.829491627623,0.551946534763,0.0129490663973,0.084445154655,-0.0556907884016,-0.0933973601769,-0.0424749132434,0.0209108831925,0.0576229269624,-0.107665675975,-2.55175948143,0.943121433258,-0.44625210762,-0.315899223089,-0.910656809807,-0.0781717002392
2017/07/09/09:59:15.385928,394005,1499565558,189477280,,0.811357536452,-0.0810255745059,0.194469384155,0.830117569933,0.551042531895,0.0124397332071,0.0842745582564,-0.0645151795991,-0.124134103243,-0.0514176548299,0.0160749437238,0.0465990742276,-0.173525623673,-2.47018241882,0.541815638542,-0.275406837463,-0.288878381252,-0.826299309731,-0.115179233253
2017/07/09/09:59:15.396635,394006,1499565558,199482944,,0.810745348588,-0.0811408712607,0.193453227339,0.830192700049,0.551069908414,0.0120484954246,0.0834078568506,-0.0669691022056,-0.129823092091,-0.0449548913373,0.0220109401925,0.047374065895,-0.173830829098,-2.95984506607,1.57227063179,-0.796660840511,-0.42190515995,-1.07590997219,-0.0841364115477
2017/07/09/09:59:15.406176,394007,1499565558,209475602,,0.810246825397,-0.0822132131412,0.193747964844,0.830207800542,0.55097803707,0.0112413368139,0.0839752519058,-0.0584215230604,-0.0823069825586,-0.0472316734387,0.019568734206,0.0765884742446,-0.11073619186,-3.39090418816,1.16907787323,-0.197938531637,-0.411280184984,-1.21693205833,-0.0745769739151
2017/07/09/09:59:15.416095,394008,1499565558,219487360,,0.809561041054,-0.0827572602139,0.192892529378,0.830794675315,0.550244653913,0.0113891473253,0.0829536957126,-0.0432026754764,-0.0805762541778,-0.0333082138567,-0.00855223294135,0.0469610605181,-0.0752190462153,-4.67692089081,1.51088416576,-0.650456488132,-0.539726257324,-1.68300771713,-0.032629981637
2017/07/09/09:59:15.425839,394009,1499565558,229480590,,0.808688397881,-0.0835962407796,0.191980338977,0.831152827979,0.549799606135,0.0108113255204,0.0823922622366,-0.0733649300711,-0.118880021994,-0.0525379384768,0.00981077891475,0.0824739460942,-0.152750739859,-3.16248393059,0.924427986145,-0.97097492218,-0.241604372859,-1.14288294315,-0.0650710612535
2017/07/09/09:59:15.435973,394010,1499565558,239485175,,0.808159011094,-0.0849282369263,0.191458360066,0.83162973756,0.549097042987,0.0105717745971,0.0822961394657,-0.0738197152967,-0.105809541165,-0.0610181004901,0.0166079484584,0.0948942761071,-0.162245231686,-3.12819194794,1.35098803043,-1.22370362282,-0.372270107269,-1.19528996944,-0.100326217711
2017/07/09/09:59:15.446275,394011,1499565558,249482371,,0.808142273378,-0.0853825625895,0.191004541132,0.831821658816,0.548798945584,0.0107377218844,0.0823234266719,-0.0501517214972,-0.0683788493131,-0.0561303308046,0.038561367814,0.0663025104272,-0.105978470051,-2.61569547653,1.15029978752,-0.79142844677,-0.349257409573,-0.978574216366,-0.0844766423106
2017/07/09/09:59:15.456153,394012,1499565558,259481487,,0.807603652333,-0.0857377066246,0.190461166845,0.831979061992,0.548634617721,0.0105162587257,0.0818553904605,-0.0417687984683,-0.0459766302979,-0.057103196913,0.0734783064437,0.0575471932391,-0.0897424195421,-2.29654574394,1.43090724945,-0.537214338779,-0.42003673315,-0.837632715702,-0.121483296156
2017/07/09/09:59:15.466279,394013,1499565558,269483302,,0.806932733811,-0.0869101812389,0.190431591087,0.832504235306,0.547895165234,0.0106270900625,0.0814533674369,-0.0594724237354,-0.0994613501168,-0.0464995433403,0.0562508500285,0.0410470880634,-0.159072427638,-3.08706784248,1.08901453018,-0.371092826128,-0.357120245695,-1.128895998,-0.0750591382384
2017/07/09/09:59:15.476075,394014,1499565558,279484171,,0.806700669115,-0.0875966717406,0.189630054965,0.832805252612,0.547455149901,0.0104492826832,0.0813577443221,-0.0464575371191,-0.075412412324,-0.0585026489231,0.0600674867678,0.0452945019293,-0.117381568917,-2.24677324295,1.40557157993,-0.18399271369,-0.401678442955,-0.861465811729,-0.112725704908
2017/07/09/09:59:15.485906,394015,1499565558,289479140,,0.80598454905,-0.0882140852746,0.189431485909,0.833208513503,0.546932337545,0.0102264072169,0.0807713548806,-0.0568313798007,-0.0686651604216,-0.0592128177221,0.0316278874708,0.0844002293248,-0.107322165586,-2.76052474976,1.2586517334,-0.132968038321,-0.408521354198,-1.07572960854,-0.0857129767537
2017/07/09/09:59:15.496088,394016,1499565558,299479912,,0.805367805146,-0.0889073492373,0.18872812469,0.833393648879,0.54669807007,0.00961765567002,0.0805217168743,-0.0594159975368,-0.0797650072404,-0.0566541937131,0.0212042461971,0.0832987207066,-0.109998226614,-2.96783304214,1.20787513256,-0.0407973602414,-0.362961679697,-1.0900156498,-0.0643471851945
2017/07/09/09:59:15.506200,394017,1499565558,309478512,,0.804932920886,-0.0897661822361,0.188005279006,0.833643973951,0.546352458194,0.00952699845807,0.0802866889465,-0.0604636029518,-0.076328477651,-0.0599677698976,0.0332909550673,0.085866754744,-0.101567265272,-2.30749154091,0.994376182556,-0.379368305206,-0.400240629911,-0.867678165436,-0.111651577055
2017/07/09/09:59:15.516123,394018,1499565558,319484383,,0.804726460323,-0.0896813521185,0.187699287465,0.833878661443,0.54604493979,0.00935606524151,0.0799610265327,-0.043568166937,-0.0315183791786,-0.0696692413749,0.0651188290513,0.0904111456624,-0.0541123392189,-0.899667918682,0.925737977028,-0.363637268543,-0.242988705635,-0.363347560167,-0.146186247468
2017/07/09/09:59:15.525980,394019,1499565558,329477627,,0.804242072285,-0.0907012533282,0.187476884756,0.834253492022,0.545516518019,0.00948593235341,0.0796420536164,-0.0470148572101,-0.0460962299746,-0.054004472754,0.0561583819899,0.0770419355851,-0.08106930038,-1.90933489799,0.523869931698,0.0965402498841,-0.268362849951,-0.728719055653,-0.116739988327
2017/07/09/09:59:15.535957,394020,1499565558,339483947,,0.803719298714,-0.0907436082458,0.186177044468,0.83437754133,0.54545552057,0.00902871423643,0.078809110654,-0.0521906498926,-0.0703193680616,-0.0460725114085,0.0368591642212,0.0670925020904,-0.111949115093,-2.13355898857,1.28242719173,-0.73010289669,-0.488197803497,-0.834837377071,-0.14713037014
2017/07/09/09:59:15.546352,394021,1499565558,349477059,,0.802726205008,-0.0919626140235,0.185832254656,0.834893711366,0.544731162542,0.00850973335044,0.0784094108878,-0.0271634804869,-0.0415917060345,-0.0444378490182,0.0422383443054,0.0335055228897,-0.0711013446936,-1.83941662312,0.773936510086,-0.337576389313,-0.402051478624,-0.712413966656,-0.130045682192
2017/07/09/09:59:15.556123,394022,1499565558,359485035,,0.802908934489,-0.0923573689478,0.185547241771,0.834986890947,0.544544278158,0.00865011762179,0.0786994062113,-0.029213256935,-0.0327937817195,-0.056008759056,0.050096752262,0.0504716919283,-0.0647780297488,-1.60052192211,0.601568460464,-0.360783666372,-0.365491569042,-0.6127409935,-0.160736382008
2017/07/09/09:59:15.565969,394023,1499565558,369478120,,0.802548301127,-0.0920503935327,0.185258452366,0.83523205589,0.544287108599,0.00900761199477,0.077831993118,-0.0300408460524,-0.0532308444843,-0.0395615163133,0.045645345845,0.019136604164,-0.0870320846654,-1.68743133545,0.395566940308,-0.27476388216,-0.184796899557,-0.605786979198,-0.0946134999394
2017/07/09/09:59:15.576114,394024,1499565558,379480663,,0.803202249548,-0.0918773658815,0.184813917358,0.835078788921,0.54447695698,0.00934022974558,0.0781090245814,-0.027015321935,-0.0302749678691,-0.0416303766453,0.0524125318223,0.0339438402182,-0.0629215214331,-0.903410196304,1.2595461607,-0.542907297611,-0.301140934229,-0.453307271004,-0.138792157173
2017/07/09/09:59:15.586079,394025,1499565558,389487211,,0.80234285595,-0.0923700100259,0.183909070383,0.834897658714,0.544839752607,0.00833329833177,0.0776279562549,-0.00850444173156,-0.0138760151217,-0.0407082873601,0.0446828294673,0.0152554077153,-0.0349235417812,-1.09150791168,0.806976377964,-0.560416042805,-0.324425160885,-0.399166673422,-0.161562725902
2017/07/09/09:59:15.596434,394026,1499565558,399507664,,0.802145511207,-0.0925709574291,0.183775465694,0.83541819161,0.544089010705,0.00855111222426,0.0772688296627,-0.0304508823036,-0.0213142998967,-0.0548254163404,0.0301582899955,0.0720340248009,-0.0236910658111,-0.807611584663,0.298324644566,-0.393099874258,-0.116693198681,-0.294033378363,-0.14407068491
2017/07/09/09:59:15.610749,394027,1499565558,409475669,,0.801713633784,-0.0937093364668,0.183537450591,0.835803981475,0.54346984894,0.00825665823713,0.0774858402476,-0.036474670205,-0.0441108567903,-0.0408273594181,0.0211363713492,0.0607975957381,-0.0613404103026,-0.913539290428,0.243688896298,-0.563756585121,-0.131220877171,-0.371479034424,-0.127099871635
2017/07/09/09:59:15.616017,394028,1499565558,419480634,,0.801144955523,-0.0938546392491,0.18306787352,0.835782508719,0.543601042785,0.00780377229804,0.0768414311502,-0.0323324225372,-0.0438807040891,-0.029131540253,0.0078251070989,0.0496784663839,-0.0612947847526,-0.424213737249,0.503262996674,-0.281104236841,-0.190413624048,-0.167303264141,-0.152423858643
2017/07/09/09:59:15.625909,394029,1499565558,429477698,,0.801809370871,-0.0937306859581,0.183234924867,0.835736819748,0.543601409707,0.00844306732507,0.077267005227,-0.0149713993139,-0.0132620935154,-0.0371653730769,0.0309259202469,0.0359077396307,-0.0323153054464,0.840677261353,0.777304947376,-0.119344443083,-0.221428841352,0.237563326955,-0.231880694628
2017/07/09/09:59:15.636065,394030,1499565558,439477362,,0.801097501388,-0.0939636374285,0.182216187215,0.836131873917,0.54313704254,0.00823191879721,0.0762750152628,-0.019148126183,-0.00910931825632,-0.0385622815632,0.034563165561,0.0459760245618,-0.0295607837919,-0.501159369946,0.182924360037,-0.406915962696,-0.142527639866,-0.285853713751,-0.128265827894
2017/07/09/09:59:15.646136,394031,1499565558,449477524,,0.800437283475,-0.0946523596382,0.182155967203,0.836323183582,0.542881046246,0.00781155951824,0.076043946289,-0.0358719186293,-0.026358152592,-0.035221149169,0.0413893612599,0.0637366032076,-0.0475818709941,-0.218735843897,-0.317985475063,-0.352642387152,0.00292392075062,-0.124838218093,-0.133441343904
2017/07/09/09:59:15.656149,394032,1499565558,459480713,,0.800576497339,-0.0945562591383,0.182040188979,0.836339097145,0.542845547593,0.00771694073887,0.0761319569576,-0.0452954007385,-0.0463475220077,-0.0398056606552,0.0284725804556,0.0684658329251,-0.0791507709843,-0.436982631683,0.55070990324,-0.228136509657,-0.266506969929,-0.297862768173,-0.136628881097
2017/07/09/09:59:15.666160,394033,1499565558,469478812,,0.800803782584,-0.0940157143607,0.181900714039,0.83606443715,0.543303160241,0.00813934904387,0.0758398576081,-0.0283117091744,-0.0183599870723,-0.0423934040124,0.0409826855854,0.0550927095904,-0.0439494949268,-0.505882322788,0.633828878403,0.222498208284,-0.216204166412,-0.339399456978,-0.119262553751
2017/07/09/09:59:15.676008,394034,1499565558,479475264,,0.799602603474,-0.0947977567791,0.180981644351,0.83669703376,0.54246772529,0.0074916343255,0.0749047136838,-0.0219652785144,-0.00690413490944,-0.0389474008254,0.0354638410962,0.0516094361656,-0.0213085211745,-0.0632821023464,0.185875028372,-0.310603797436,-0.123127512634,-0.0490516275167,-0.152288347483
2017/07/09/09:59:15.685998,394035,1499565558,489484281,,0.799978994929,-0.0950556389177,0.181164584274,0.836732597742,0.542324910033,0.00757325296358,0.0755307730185,-0.0167138126362,-0.0249491922531,-0.0161462191436,-0.00866035723334,0.0275019364954,-0.0273628501812,-0.408955991268,0.45986109972,0.0960990339518,-0.204965054989,-0.22847750783,-0.134501546621
2017/07/09/09:59:15.696268,394036,1499565558,499475515,,0.799814070698,-0.0946296293556,0.180612054526,0.836410574846,0.542868840965,0.00710960738537,0.0752344686817,-0.00911603253347,-0.0171803820129,-0.0170241387667,0.00588375883906,0.0114042940649,-0.0236634659053,0.518939077854,0.540495693684,0.100947991014,-0.110003791749,0.0874855816364,-0.16190995276
2017/07/09/09:59:15.706634,394037,1499565558,509478519,,0.799631396156,-0.0949202543297,0.180842024271,0.836666660855,0.542496703558,0.00724060199012,0.0750586365813,0.00883678926699,0.0220050360421,-0.0220105377198,0.0176211071137,0.012611533774,0.01546840648,0.6878682971,-0.466917008162,0.23735871911,0.10488088429,0.241357892752,-0.143814250827
2017/07/09/09:59:15.716184,394038,1499565558,519481771,,0.799748673568,-0.0952164347067,0.180770408515,0.836610324385,0.542557117424,0.00734852670991,0.0752392093291,-0.0160661111348,-0.00478041378458,-0.0354376539066,0.0158182147122,0.0508967774973,-0.00536303533284,1.36462879181,-0.604113042355,-0.0426161065698,0.239826351404,0.380427718163,-0.147928655148
2017/07/09/09:59:15.726061,394039,1499565558,529479832,,0.79949696675,-0.0947866649564,0.180072144477,0.836539397304,0.542739045263,0.00682373477572,0.0747636418895,-0.0178823359355,-0.0370879260379,-0.0132473385443,-0.0290858496086,0.0309809163814,-0.0293240208011,-0.178289011121,-0.157952547073,-0.425824642181,0.0816929936409,-0.22051769495,-0.0862014219165
2017/07/09/09:59:15.736021,394040,1499565558,539477056,,0.79993700623,-0.0953129615928,0.179960335661,0.836638578632,0.542500091328,0.00719083881585,0.0753513867854,-0.0244571700388,-0.0191387537553,-0.0320008726642,0.0138970250333,0.0554955668701,-0.0337358100014,-0.115967273712,0.108466342092,-0.440227687359,0.0187175869942,-0.289006531239,-0.0791285783052
2017/07/09/09:59:15.746360,394041,1499565558,549481765,,0.799062424738,-0.0952673933884,0.179191719906,0.836663302077,0.542603315373,0.00664248735153,0.0743776745113,0.000768189836151,0.000503856727612,-0.0166078130789,0.0129413943899,0.00624046820355,0.00810127571164,-0.863875806332,-0.138482362032,-0.295062333345,0.0349367782474,-0.470743596554,-0.0615856647491
2017/07/09/09:59:15.756151,394042,1499565558,559475365,,0.799595468394,-0.094836443174,0.179365700014,0.836460730651,0.54287199643,0.00689798505377,0.0746716771835,-0.00793369334241,-0.0091050549406,-0.0092477218729,-0.00744239316758,0.0161445850729,-0.0232866875595,-0.417937099934,0.487921535969,-0.273681759834,-0.182942658663,-0.2770819664,-0.117280840874
2017/07/09/09:59:15.766078,394043,1499565558,569475778,,0.799169298059,-0.0955756389837,0.179372346314,0.836629184398,0.542624017617,0.00660688513999,0.074613218577,-0.0012702095973,0.0132274029129,-0.0101423065629,0.0359832809332,0.00633151604811,0.0147209666971,0.496205002069,-0.44114613533,-0.313692897558,0.179002940655,0.0885483548045,-0.113726474345
2017/07/09/09:59:15.775986,394044,1499565558,579477130,,0.799612976237,-0.0948613024996,0.179564864759,0.836574879477,0.542696537339,0.00702310618686,0.0746566498555,-0.0047932689857,-0.00944725064348,-0.010448497287,-0.00841355792227,0.0125902921801,-0.00539056219788,0.525915145874,0.316558897495,0.0535171031952,0.0691815242171,0.0467275604606,-0.106598876417
2017/07/09/09:59:15.786026,394045,1499565558,589476904,,0.799185404707,-0.0963662961337,0.17962389422,0.83686794271,0.542164846607,0.00651349001464,0.075278815181,-0.00128368645351,-0.00702672900441,-0.0183467782926,-2.19432406112e-05,0.00860283169773,-0.00471810844847,1.14537656307,-0.980727672577,0.204114541411,0.334981679916,0.406084090471,-0.151290819049
2017/07/09/09:59:15.796274,394046,1499565558,599482595,,0.799486236918,-0.0950815559407,0.179129051735,0.836774225494,0.542410070124,0.00684111241215,0.0745212087873,0.00311315458806,0.0142944473278,-0.0258725662227,0.00345561280141,0.022699760373,0.0171720641642,1.25773882866,-0.232706993818,-0.0873441174626,0.211478918791,0.370692163706,-0.146592229605
2017/07/09/09:59:15.806049,394047,1499565558,609479912,,0.799413018832,-0.0954458463231,0.179263796211,0.836567434634,0.542682193893,0.00660965573419,0.0748817480646,0.00705780633338,0.0202548124396,-0.00714048862993,0.0208321364548,0.00306145521613,0.0246649652778,0.575527429581,-0.0479979366064,0.0287268869579,0.168431803584,0.131177842617,-0.108354106545
2017/07/09/09:59:15.816087,394048,1499565558,619478632,,0.799385227857,-0.0951444107609,0.178718092079,0.836631706338,0.542639757777,0.00660140511929,0.0744708176471,0.0038739181707,-0.00533812066259,-0.00845376659114,-0.00537906878387,-0.00366704559653,-0.00342531090452,0.804146647453,-0.241293430328,-0.688022732735,0.198007494211,0.207707971334,-0.135016322136
2017/07/09/09:59:15.825950,394049,1499565558,629477128,,0.798959132697,-0.09607823304,0.179373560094,0.836764592666,0.542379283374,0.00617696023405,0.0749104437971,0.00876686769936,-0.00554982719114,-0.00188284091306,-0.0130640816675,-0.0187291576533,-0.0149717833655,0.279641866684,-0.685670018196,-0.483481019735,0.270925521851,0.113154150546,-0.113258183002
2017/07/09/09:59:15.835948,394050,1499565558,639483418,,0.799532434338,-0.0951661439108,0.178850700402,0.83650105091,0.542812576209,0.0065689838287,0.074681640224,-0.0156806453045,-0.0264108634452,-0.00972008358492,-0.0120818322219,0.0249377193346,-0.0338216636214,-0.703625559807,0.6404286623,-0.742918848991,-0.0559440180659,-0.394764214754,-0.0825465545058
2017/07/09/09:59:15.846886,394051,1499565558,649481935,,0.799227833122,-0.0951351030077,0.178838130619,0.836784368705,0.542426988646,0.00648977208622,0.0743153089108,0.00271249830648,0.0126070515802,-0.00181959288306,0.00448697754498,0.00967776667949,0.0221942010028,-0.888759374619,0.528331875801,-0.659214913845,-0.143434047699,-0.400957345963,-0.0852708593011
2017/07/09/09:59:15.856121,394052,1499565558,659484195,,0.799462003915,-0.0951605713147,0.179116777169,0.836714672686,0.542480619635,0.00656197819122,0.0747012334219,0.00529094230008,-0.00620695785505,0.00821111375766,-0.00402479912354,-0.0208808133583,-0.0072262911895,-1.04962086678,0.349869161844,-0.493588715792,-0.0561735518277,-0.479829132557,-0.0854641348124
2017/07/09/09:59:15.866206,394053,1499565558,669484433,,0.799764836335,-0.0952698077688,0.179117013378,0.836624491321,0.542600515112,0.0069493074389,0.0748054052074,-0.00434758405679,-0.0135209476981,-0.00265249259263,-0.0229535045625,0.00669949529277,-0.00176538441854,-0.0603882819414,0.368408083916,-0.204459056258,-0.0297968611121,-0.129631459713,-0.114459887147
2017/07/09/09:59:15.876266,394054,1499565558,679482637,,0.799309540255,-0.0953812053803,0.178367961292,0.836499600929,0.542838871447,0.00634763021374,0.0745257330236,0.000932901462087,-0.00662007658006,-0.00913759621489,0.0021923967458,-0.00822523158123,-0.0251995408006,-0.154123693705,-0.230164691806,-0.387510806322,0.148232489824,-0.0880945026875,-0.0898212268949
2017/07/09/09:59:15.885795,394055,1499565558,689476224,,0.799625966579,-0.0956841803893,0.17890130691,0.836667169012,0.542497683202,0.00665420983341,0.0751001565184,-0.00140604267197,-0.00105051236064,-0.0148490298203,0.00221970391265,0.00757375691025,0.00251114760793,-0.00260878354311,0.0269595086575,-0.102100200951,0.204520583153,-0.065785177052,-0.0862174481153
2017/07/09/09:59:15.896466,394056,1499565558,699480833,,0.799566080202,-0.0957242196286,0.178314427633,0.8367411325,0.542418249814,0.00661671750209,0.074852778843,0.0118884371977,0.00882156911639,-0.00593171293077,0.00719009240135,-0.0195070588605,0.0325647013506,0.35381424427,-0.189534187317,-0.232856661081,0.148300081491,0.169356808066,-0.12882733345
2017/07/09/09:59:15.906299,394057,1499565558,709479182,,0.800198080515,-0.0958062163611,0.179241448366,0.836690973733,0.542386872667,0.00726106625636,0.0755775876149,0.00605053906732,0.00522268254206,-0.00307016627513,-0.0051104248588,-0.00759767001011,0.0164124828685,-0.17029632628,-0.327056884766,0.320418000221,0.173516780138,-0.0284907966852,-0.137402102351
2017/07/09/09:59:15.916217,394058,1499565558,719483395,,0.799843430881,-0.0951559242613,0.179014319713,0.836623727951,0.542593933324,0.0069623642437,0.0748604490654,0.0103928205193,0.000258058886314,-0.00916436552859,0.0111036928346,-0.0248693641687,-0.0140367100175,-0.0329719558358,-0.152821302414,0.167098432779,0.200694859028,0.0728319510818,-0.115313351154
2017/07/09/09:59:15.925828,394059,1499565558,729479541,,0.799827591513,-0.0953009567942,0.178736926213,0.836631348555,0.542598895807,0.00712094157535,0.0747242736743,-0.000520953331691,0.00653551596244,-0.00588521067984,0.0177237574783,0.00506879556679,0.000564638845605,-0.172162979841,0.0672042816877,0.238308042288,0.158225491643,-0.037912350148,-0.0791929513216
2017/07/09/09:59:15.936010,394060,1499565558,739483654,,0.799928587797,-0.0957936960646,0.178901644536,0.836785051352,0.54229647726,0.0070700121541,0.0752018850399,-0.00514809529551,-0.000391175299704,-0.00992988069668,0.0149823859478,0.0152845814,-0.00407752351384,-1.15926492214,-0.204740986228,0.291956394911,0.142681360245,-0.411625742912,-0.0575205907226
2017/07/09/09:59:15.946014,394061,1499565558,749480328,,0.800013110807,-0.0948770267494,0.17872383873,0.836644425292,0.54259289877,0.00730019949819,0.0746040140936,-0.00862191480389,-0.0167545169997,0.00215092410496,-0.0208021132749,0.00612773494902,-0.0241984844596,-0.958116889,0.390076339245,0.00132641196251,0.0502518936992,-0.278710097075,-0.0813860297203
2017/07/09/09:59:15.956041,394062,1499565558,759480667,,0.799481431305,-0.0960852632805,0.178738763037,0.836870509301,0.542194310923,0.00667714785868,0.0750233001227,-0.00444402284596,-0.00152536961501,-0.00539766069474,-0.00459068741853,0.0141246624015,0.00519568860568,0.0503143519163,0.101302683353,0.153485700488,0.0899879485369,0.0530866608024,-0.140273943543
2017/07/09/09:59:15.966226,394063,1499565558,769481244,,0.799682332847,-0.0952587146272,0.17801641249,0.836659207545,0.542583712569,0.00669935892307,0.074561410098,-0.00178469834235,-0.000598909554567,-0.00773874487138,-0.00128350086047,0.01034435056,-0.00462708789758,-0.411185145378,0.140483468771,0.0176837556064,0.180530101061,-0.130001038313,-0.0636761337519
2017/07/09/09:59:15.976074,394064,1499565558,779475115,,0.799502316092,-0.0953774775051,0.178308356512,0.836739041319,0.542446980295,0.0066354107384,0.0746660674329,0.0053155923646,0.0138144748473,-0.00118621842511,0.00807810947064,-1.17211055513e-05,0.0205192261853,-0.64189350605,0.0167317539454,-0.0593214631081,0.10311678797,-0.154786109924,-0.102093540132
2017/07/09/09:59:15.985931,394065,1499565558,789475250,,0.799644775917,-0.0950547662847,0.17845836716,0.836625016468,0.542644743713,0.00690616256341,0.0744820035973,0.00477304868848,0.0184823747432,-0.00459718469537,0.0148251861253,0.000472908797263,0.028906720798,0.432485163212,-0.323117434978,0.410002619028,0.288832932711,0.266739577055,-0.139379933476
2017/07/09/09:59:15.996316,394066,1499565558,799475955,,0.800091607754,-0.0947629375014,0.178621191631,0.836643670013,0.542586329995,0.0073133161563,0.074658953489,0.00380092918137,0.000497320790841,-0.00211324091789,0.0072728457152,-0.0058954650984,0.0102374453091,0.140400260687,0.140290156007,0.54245108366,0.15196248889,0.0702696964145,-0.124963872135
2017/07/09/09:59:16.005976,394067,1499565558,809474923,,0.799726363352,-0.0953636507755,0.178325768529,0.836904922429,0.5421868903,0.00693847627044,0.0746684963524,-0.00519944711766,-0.000650072247935,-8.78660378403e-05,-0.00083580126391,0.0144351609723,-0.00808674963945,-1.41577672958,0.0440586805344,0.237735062838,0.0520215258002,-0.448286473751,-0.0781160742044
2017/07/09/09:59:16.016060,394068,1499565558,819478743,,0.79932051993,-0.0956324184529,0.177987429315,0.83689471955,0.542256600653,0.00670502562199,0.0742970394424,0.00392664702843,-0.00372714572942,-0.0044988324303,-0.0134210826675,-0.00143736611046,-0.00288457841786,-0.790392994881,0.0144763290882,-0.406682193279,0.0126850605011,-0.178543299437,-0.13325637579
2017/07/09/09:59:16.026216,394069,1499565558,829480739,,0.799867444399,-0.0945973989593,0.177917944469,0.83640710878,0.542993784195,0.00673609034179,0.0744011007607,-0.00347297953299,0.00287413560329,-0.0106110736353,0.0226237851287,0.00669315171774,-0.00581025802279,-0.658867239952,0.26676774025,-0.0426757782698,-0.0147612914443,-0.228929594159,-0.1236025244
2017/07/09/09:59:16.035823,394070,1499565558,839476633,,0.799566068712,-0.0949893639485,0.177875374399,0.836555174848,0.542798531674,0.00661890200664,0.0741713123963,-0.0043431155518,-0.000192908897083,0.0027572888514,0.00496498930413,0.00676982439809,-0.00160154591157,-1.56821894646,0.12054425478,-0.191611111164,-0.0352386161685,-0.531491875648,-0.069698870182
2017/07/09/09:59:16.046109,394071,1499565558,849476106,,0.799947335537,-0.0949268298556,0.178373294398,0.836477954375,0.542859422147,0.00717954136958,0.0745435028491,-0.0147002421388,0.00519459009142,-0.0104478319239,0.00865757671336,0.0430297305339,0.0203559886965,0.14037758112,-0.237987339497,0.154097825289,0.257978290319,0.0462550073862,-0.105961099267
2017/07/09/09:59:16.056265,394072,1499565558,859484252,,0.799599734367,-0.0949340306469,0.178186266873,0.83669355218,0.542584808197,0.00710325156441,0.0741294103013,-0.00201492730873,-0.0133072000948,-0.00205207287498,-0.00243707108403,-0.0100376072495,-0.0177037221651,0.225910410285,0.10048596561,0.0357534512877,0.194859534502,0.111070670187,-0.128286734223
2017/07/09/09:59:16.066215,394073,1499565558,869478868,,0.799805611835,-0.0946577674328,0.177919265081,0.836584124692,0.542756125293,0.00715271637502,0.0741055289348,0.00235255815757,-0.00151699964174,-0.00258245050179,-0.0116199023265,0.000661068617962,-0.0138221807564,0.495093524456,-0.0872819125652,-0.187975779176,0.175015568733,0.205297321081,-0.150376573205
2017/07/09/09:59:16.076256,394074,1499565558,879491567,,0.799892174448,-0.0939788493854,0.178140212774,0.836453152099,0.542970635526,0.0069123533719,0.0740353474381,-0.00309124923476,0.00547449760639,-0.0143469110284,0.00750326781804,0.0190676200385,0.0117614280208,0.189310878515,0.137255996466,0.150584921241,0.191550165415,0.0907114967704,-0.123479448259
2017/07/09/09:59:16.086003,394075,1499565558,889502167,,0.799276217355,-0.0952901102617,0.177592914714,0.836695789328,0.542588275356,0.00636634260987,0.0741457298081,0.00541579987387,0.00113117726964,-0.00144925754085,0.00022286903829,-0.00628409284214,0.00564119142812,-1.04807543755,-0.307075560093,-6.3844025135e-05,0.169815301895,-0.307297348976,-0.0660819709301
2017/07/09/09:59:16.096295,394076,1499565558,899487824,,0.799632679764,-0.095400926045,0.178028714127,0.836437843141,0.54291064457,0.00651961889801,0.0746810628202,0.00449052849238,-0.0057400575164,-0.000603599938417,-0.00827353092561,-0.00791812068102,0.00293633458206,-0.798279523849,0.323493123055,0.552588164806,-0.0162665396929,-0.268511503935,-0.126304849982
2017/07/09/09:59:16.105952,394077,1499565558,909479272,,0.799366345747,-0.0949241989201,0.177870541787,0.836657007134,0.542666764301,0.00662372998311,0.0739862253228,0.00469765325507,-0.00477359572724,0.00435093533346,-0.0269463183226,-0.00617281253576,0.0117500176558,-1.60921823978,0.856305480003,0.132441073656,-0.132083415985,-0.528941333294,-0.0713842585683
2017/07/09/09:59:16.116292,394078,1499565558,919478073,,0.799813252368,-0.0946325321176,0.178033055696,0.836571802075,0.542768822928,0.00701646547905,0.0741646414584,-0.00416486379324,-0.00246872755086,-0.00288962069378,0.0086857922445,0.00327996919747,-0.0194327196854,-0.587702155113,0.469114840031,-0.0216805934906,-0.0321907401085,-0.177523091435,-0.0952161699533
2017/07/09/09:59:16.125913,394079,1499565558,929480391,,0.799760719646,-0.0960002677695,0.178090280768,0.836771044217,0.542341975695,0.00663873349461,0.0750688229333,0.0189446783137,0.0160947958561,0.00152769496907,0.024675168589,-0.0388729933023,-0.00327309281206,-1.03489637375,-0.546356916428,-0.143574520946,0.195933997631,-0.285825312138,-0.038083024323
2017/07/09/09:59:16.136081,394080,1499565558,939482754,,0.799743208506,-0.0951825248435,0.178052332983,0.836484529664,0.542845851207,0.00667596920026,0.0746153127427,-0.00885296050524,-0.0110973743303,-0.00906191810821,0.000438486016101,0.0130358530169,-0.0120096817597,-0.44805753231,0.333230674267,0.0735763907433,0.018556624651,-0.124463155866,-0.105926625431
2017/07/09/09:59:16.146173,394081,1499565558,949479071,,0.799415956625,-0.0955746884654,0.177696707896,0.836634604825,0.54265338594,0.00658386704108,0.0743403889676,0.00178611075841,0.0133126660968,-0.00770694196057,0.00459685416288,0.0175048629415,0.0296250635137,-1.4376527071,0.229435011744,0.0537363663316,0.0379049926996,-0.486651539803,-0.0590176433325
2017/07/09/09:59:16.156406,394082,1499565558,959481691,,0.79966465717,-0.0952965896309,0.178154999167,0.836693480247,0.542531468862,0.00669138270634,0.0745577011641,0.0024454175971,0.00620569572562,-0.00278873002165,-0.00049073141474,0.00441697009293,0.00743074206599,-0.922242939472,0.00738555192947,-0.112788498402,0.0547388568521,-0.256000876427,-0.106014452875
2017/07/09/09:59:16.166015,394083,1499565558,969481603,,0.800135880115,-0.094925909272,0.17833021664,0.8366678321,0.54256253519,0.00736350216732,0.0745561062107,-0.0125951478792,-0.00436741733497,-0.0110809945031,0.0110214050682,0.0252725891125,-0.0126857711539,-0.352208137512,-0.0378652215004,0.242907941341,0.113057523966,-0.0806556716561,-0.118511028588
2017/07/09/09:59:16.176314,394084,1499565558,979480529,,0.799740343911,-0.0949969844949,0.17816762947,0.83657298352,0.542720540488,0.00681368420576,0.0745226937485,0.00293409292976,0.0099249167904,-0.00411530639936,0.0118334271354,-0.00137488656874,0.00492411234822,-0.0966935753822,0.00324195623398,0.377752006054,0.124960333109,0.107734933496,-0.110041610897
2017/07/09/09:59:16.186230,394085,1499565558,989481252,,0.799568518579,-0.0951119863678,0.177422417303,0.836422014837,0.542991503474,0.00637794197325,0.074281640442,0.00998025155386,-0.00326444240577,0.00438938250146,-0.0153242862282,-0.0242359183224,0.00824221996166,-0.787094712257,-0.156816363335,-0.0751647949219,0.143313080072,-0.187350779772,-0.0939152538776
2017/07/09/09:59:16.196305,394086,1499565558,999479903,,0.799845644598,-0.0950471233506,0.177361516666,0.836634042887,0.542660078692,0.00682236572156,0.0742763259914,0.0184887912756,0.0230698881004,-0.00288513058329,-0.000443778975737,-0.0140438804201,0.0353669242094,-0.472367167473,-0.346891075373,-0.182848364115,0.216706842184,-0.0479151494801,-0.0814546644688
2017/07/09/09:59:16.206135,394087,1499565559,9477266,,0.799612805596,-0.0952169599571,0.177731661754,0.836564002036,0.542755184345,0.00660277859754,0.0743900778223,0.0156578858705,0.023461079882,0.00024083633733,0.0185513582111,-0.0158206755528,0.0286365141568,-0.585066497326,-0.408746868372,-0.261399507523,0.198472380638,-0.052617110312,-0.106135770679
2017/07/09/09:59:16.215957,394088,1499565559,19484995,,0.800227375224,-0.0942651328405,0.177383441561,0.836368489478,0.54307640979,0.00699191899572,0.0742083284163,0.0010769413672,0.0218037954654,-0.013992867699,0.0229259962249,0.0247105806019,0.0255976626049,-0.154453009367,0.129151791334,-0.0774340033531,0.110136061907,-0.0447038821876,-0.0939309746027
2017/07/09/09:59:16.225854,394089,1499565559,29481330,,0.800354199782,-0.0941393072118,0.177769941409,0.836360358527,0.543072000082,0.00708902485088,0.0743229381685,0.0105231205734,0.0119387386431,-0.00241364471906,-0.00864887609288,-0.00420176821309,0.0196047713287,-0.588249981403,0.122732959688,-0.082827500999,0.100533105433,-0.175697252154,-0.0816878527403
2017/07/09/09:59:16.235916,394090,1499565559,39483856,,0.800035345624,-0.0941749127645,0.177492530624,0.836353892757,0.543117753689,0.00684622450066,0.0740837425355,-0.0119307456383,0.00316588358227,-0.0141289901375,0.007227774884,0.0366256286915,0.00325460267307,-0.221723005176,0.13643231988,-0.0569218620658,0.12212215364,-0.0256911069155,-0.115695334971
2017/07/09/09:59:16.246263,394091,1499565559,49479952,,0.799681808978,-0.0945237467897,0.177577619519,0.836473017477,0.542963848929,0.00670140598527,0.0738799089533,-0.0123791199833,-0.0079117069632,-0.0104368464717,0.0131191770468,0.022223061151,-0.0208911308795,-0.488870859146,-0.470251947641,0.220341905951,0.2447026968,-0.0888717621565,-0.0679515749216
2017/07/09/09:59:16.256188,394092,1499565559,59484072,,0.799735906421,-0.0944886956707,0.177462538903,0.836204078536,0.543349126462,0.00640672739847,0.0741176069212,-0.00532630440409,-0.000441195447688,-0.0144538702386,0.00556367823446,0.0182696281936,0.0040133058099,-0.0281381830573,-0.172684818506,0.164611518383,0.234592869878,0.0679882392287,-0.110646292567
2017/07/09/09:59:16.266196,394093,1499565559,69481716,,0.800297766015,-0.093694067343,0.176776207328,0.836144286533,0.543477792391,0.00684930260654,0.0738085925128,-0.000492299531797,0.00621637259694,-0.0192362543126,0.00551929649693,0.0142309885944,0.0180651535137,0.140973418951,-0.0718910694122,0.0239664837718,0.208931177855,0.0891821533442,-0.106309995055
2017/07/09/09:59:16.275956,394094,1499565559,79513640,,0.800356191375,-0.0940242245385,0.177231491421,0.836065809175,0.54352060487,0.00672012273146,0.0743918998308,0.0129244065093,0.00561194776737,0.000347297967617,-0.0199113158177,-0.0177570570372,0.0174458971678,-0.729151129723,0.290936201811,-0.101164214313,0.0667359977961,-0.190622240305,-0.110034629703
2017/07/09/09:59:16.285858,394095,1499565559,89480235,,0.79999558083,-0.0938225939943,0.176861724105,0.836291265137,0.543263288111,0.00657575398121,0.0737474006713,0.0104598197164,0.00609140218104,0.0077243804648,0.00121092630824,-0.0205349868492,-0.00612490661252,-1.13384151459,0.147212773561,-0.12568487227,0.0861911326647,-0.310040980577,-0.0821327269077
2017/07/09/09:59:16.296369,394096,1499565559,99475819,,0.800509124963,-0.0939893524561,0.17755234964,0.836240051775,0.543273629756,0.00738079627202,0.074174543248,4.4910132825e-05,-0.0155334017946,-0.00624392873687,-0.0081958641115,-0.00526894595232,-0.0287695026296,-0.491759419441,0.190931394696,0.0987290069461,0.0826248899102,-0.0818979516625,-0.117993995547
2017/07/09/09:59:16.306231,394097,1499565559,109479788,,0.800179917114,-0.0944929011336,0.176391391145,0.836225195666,0.543297982915,0.00655316544391,0.074241362573,0.0203152427547,0.0225247604726,-0.00289803684792,0.0146556312433,-0.0258258146905,0.0378712824925,-1.09493398666,0.122943863273,-0.428474247456,0.0997897386551,-0.287689894438,-0.0843922942877
2017/07/09/09:59:16.316153,394098,1499565559,119486065,,0.800103533547,-0.0948138665164,0.176966677259,0.836345165784,0.543110994811,0.00687088799705,0.0742293869197,0.000927266033265,-0.00466148976371,-0.017668094127,-0.0106981992571,0.00860931603898,0.00816963000092,-0.878194451332,-0.552778720856,-0.206282943487,0.265998840332,-0.121849879622,-0.0841457769275
2017/07/09/09:59:16.325861,394099,1499565559,129479506,,0.800390901414,-0.0940687298288,0.176691289274,0.836132400466,0.54344913775,0.00669289603685,0.0741677066644,0.000306787458308,-0.0106552715614,-0.00814559871708,-0.0217638420364,0.00181484633377,-0.0062532546362,-1.20919513702,0.364783078432,-0.479364186525,0.0570731312037,-0.308106064796,-0.109911724925
2017/07/09/09:59:16.336086,394100,1499565559,139476508,,0.80004297772,-0.0940762616089,0.176504566825,0.836035584047,0.543655339221,0.00657395675224,0.0737574229279,-0.00220068681602,0.00796423268853,-0.0134125083752,0.00974483652664,0.0206625795135,0.0157577022374,-0.698056399822,-0.0309422761202,-0.140620201826,0.126750096679,-0.0619285963476,-0.098930567503
2017/07/09/09:59:16.346774,394101,1499565559,149479463,,0.80027239634,-0.0934985478655,0.176127621115,0.835925947303,0.543826685689,0.00639536871432,0.0737525987162,0.00413795527464,0.0249110203752,-0.0143934313912,0.0214306530318,0.0165202370776,0.0396533105104,-0.39514991641,0.298747897148,-0.371741831303,0.1246066764,0.0385997220874,-0.120192974806
2017/07/09/09:59:16.356412,394102,1499565559,159480704,,0.800671246851,-0.0934917580569,0.176437029094,0.836006322209,0.543648977694,0.0068791526345,0.0741073244504,-0.0181820507379,-0.0128207304594,-0.0126087442533,-0.00642844730152,0.0367630205566,-0.028025134649,-0.4435300529,0.601352512836,-0.238923922181,0.0470216870308,-0.0589776709676,-0.156125307083
2017/07/09/09:59:16.365891,394103,1499565559,169479281,,0.80060590598,-0.0932393923363,0.176381670802,0.835987058182,0.543707645614,0.0067835261678,0.0739027633105,0.00447598562582,0.00569006402381,-0.00887507998519,-0.00176195425501,0.00457601171992,-0.00679960707753,0.427623003721,0.241936936975,0.222776472569,0.23696321249,0.286716997623,-0.125108584762
2017/07/09/09:59:16.376090,394104,1499565559,179476874,,0.800506024896,-0.0929319656918,0.176102388535,0.836161090906,0.543493273984,0.00675317930819,0.0735124870955,-0.000228715848907,0.0281485739963,-0.00796671103366,0.0258878590571,0.026052318992,0.0300635771068,-0.547270715237,0.458932071924,0.411409407854,0.119931928813,-0.109146870673,-0.117857404053
2017/07/09/09:59:16.386031,394105,1499565559,189481670,,0.799877515757,-0.0934792067426,0.175619447673,0.836193296054,0.543521372121,0.00640162019965,0.0729678623897,0.00334304256103,0.0179584458948,-0.0122949486169,0.00908592605539,0.0159498089269,0.033564960044,-0.733741343021,-0.439748555422,0.0507766827941,0.241979062557,-0.097573697567,-0.124751158059
2017/07/09/09:59:16.396363,394106,1499565559,199476986,,0.800104733795,-0.0933083687989,0.175661507199,0.835971742722,0.543794643347,0.00608850972638,0.07349531473,-0.00966272531288,0.00288540095811,-0.0114231290916,0.00613860411892,0.0266420661199,-0.00571461499354,-0.317985594273,0.136414155364,0.0900404974818,0.151403665543,-0.0162541046739,-0.132242798805
2017/07/09/09:59:16.406431,394107,1499565559,209482791,,0.800276501083,-0.093251046216,0.175806106035,0.835901097599,0.543896276843,0.00633537089972,0.0735259011834,0.00623523268726,-0.00136486280475,-0.000884836708174,-0.00555106332134,-0.012403878648,-0.00610383405645,0.0858977437019,0.193000689149,0.389186859131,0.161959975958,0.166126012802,-0.144269362092
