time,.header.seq,.header.stamp.secs,.header.stamp.nsecs,.header.frame_id,.pose.position.x,.pose.position.y,.pose.position.z,.pose.orientation.x,.pose.orientation.y,.pose.orientation.z,.pose.orientation.w,.twist.linear.x,.twist.linear.y,.twist.linear.z,.twist.angular.x,.twist.angular.y,.twist.angular.z,.wrench.force.x,.wrench.force.y,.wrench.force.z,.wrench.torque.x,.wrench.torque.y,.wrench.torque.z
2017/07/09/10:00:01.755917,398642,1499565604,559675328,,0.797292990093,0.304901248225,0.169297126413,0.659106855435,0.748977317407,0.0412777897817,0.0539191542924,0.0407049080638,-0.362633181566,0.0153532777716,-0.183784485771,-0.0573302422862,-0.370716088303,0.145305097103,-0.114849761128,-1.67700970173,0.204363569617,0.0581716746092,-0.00256594270468
2017/07/09/10:00:01.766141,398643,1499565604,569680062,,0.797303906051,0.300226147985,0.168523100498,0.66076797212,0.747535291526,0.0400597989705,0.0545150203998,0.0230419096828,-0.360615605967,-0.00405265774589,-0.18083711315,-0.0167163475691,-0.356763661855,0.504727125168,0.273857861757,-1.70590031147,0.00813589990139,0.210810884833,-0.0711407363415
2017/07/09/10:00:01.776198,398644,1499565604,579682502,,0.797646807365,0.297199868642,0.168393685497,0.66169788299,0.746694163676,0.0393818386105,0.0552522249865,0.0310807307902,-0.344411541624,-1.34115098755e-05,-0.180684748268,-0.0448062284467,-0.332231544092,-0.0244676694274,0.170359611511,-1.58553624153,0.093717738986,0.00561866350472,-0.0267277732491
2017/07/09/10:00:01.786052,398645,1499565604,589675699,,0.797473676065,0.29283991561,0.168429710673,0.663265677356,0.745296416259,0.038051253331,0.0562494024154,0.0226358263065,-0.384761955638,-0.0134314859953,-0.205394714588,-0.00684244864024,-0.381858430712,-0.335501730442,0.0293785557151,-1.74686992168,0.107173256576,-0.108679048717,-0.0369154773653
2017/07/09/10:00:01.796079,398646,1499565604,599680967,,0.798347863995,0.289004377972,0.169070495442,0.664416153097,0.744193113359,0.0377739261864,0.0574535989584,0.0244398873275,-0.399831916066,-0.00309546710017,-0.227555883619,-0.0225664182641,-0.383775265857,-0.23438501358,0.10257679224,-1.6026674509,0.117331802845,-0.106164105237,-0.00620721280575
2017/07/09/10:00:01.806204,398647,1499565604,609676937,,0.798442848653,0.284940111582,0.16877079623,0.665719188909,0.743009085547,0.0365440208461,0.0584807220665,0.0305961573815,-0.397533753552,0.000220192552372,-0.208068251755,-0.0436705694838,-0.382561840096,-0.731674015522,0.13102081418,-1.44903874397,0.0946104303002,-0.299697965384,-0.0406021773815
2017/07/09/10:00:01.816061,398648,1499565604,619682022,,0.798220652477,0.281204268467,0.168226898845,0.666697470758,0.742151038928,0.0353787183928,0.0589462822174,0.018835308276,-0.411742094761,-0.00485081608023,-0.255321316088,-0.0204302059839,-0.348089435679,-1.00507545471,0.0767823010683,-1.41980087757,0.183609604836,-0.359534621239,0.0150721482933
2017/07/09/10:00:01.825910,398649,1499565604,629682627,,0.798760369772,0.278235295386,0.168509335457,0.667811201591,0.741084264858,0.0352201289328,0.0598485916818,0.00875327628813,-0.415247140995,-0.00531560632893,-0.259489274704,-0.00108724986426,-0.362015947662,-0.766718029976,-0.169419467449,-1.37813723087,0.265321463346,-0.30238249898,0.00208415091038
2017/07/09/10:00:01.836003,398650,1499565604,639683065,,0.799180085235,0.273477748735,0.168815491397,0.668858535149,0.740053463001,0.0339737005227,0.0616029182063,0.0176310370543,-0.42577076703,-0.00529900431563,-0.249999160432,-0.0244573595841,-0.391628792841,-0.63299703598,-0.110189534724,-1.09139823914,0.218639969826,-0.256077855825,0.0123408064246
2017/07/09/10:00:01.846532,398651,1499565604,649678307,,0.799021501404,0.269846855016,0.168439065793,0.670591941555,0.738503426711,0.0333865198545,0.0616804422024,0.0323064619498,-0.418543803661,0.0136231933923,-0.262819882115,-0.0711911411158,-0.370930733965,-0.606576919556,-0.278625309467,-1.00012719631,0.277934014797,-0.194797709584,0.018145725131
2017/07/09/10:00:01.856124,398652,1499565604,659678485,,0.79912937797,0.265631853644,0.168281329569,0.671597336134,0.737536336271,0.0317145084098,0.0631772168984,0.0211566610438,-0.440719683572,0.0160825934344,-0.307543495108,-0.0551092627117,-0.352594243086,-1.1256633997,-0.0401834100485,-1.10770440102,0.216460302472,-0.401568353176,0.00332143902779
2017/07/09/10:00:01.866177,398653,1499565604,669674229,,0.79920557383,0.260832149234,0.168346589893,0.672640184364,0.736539392344,0.0304760029393,0.0643126670975,0.012962735579,-0.452606640574,-0.00263197699903,-0.324404682421,-0.0221805480692,-0.359596560143,-1.13789010048,-0.562778174877,-1.01574194431,0.429553449154,-0.453305780888,0.0534810051322
2017/07/09/10:00:01.876102,398654,1499565604,679683287,,0.800021295473,0.256468409812,0.169019143581,0.67406775717,0.735090713144,0.0298834102137,0.066191268202,0.0117011523973,-0.47304069639,0.00108432754599,-0.346820955452,-0.0236950783539,-0.36193398769,-1.56388950348,-0.588255643845,-1.0588183403,0.430699497461,-0.675312995911,0.0396741628647
2017/07/09/10:00:01.885906,398655,1499565604,689675687,,0.799889788072,0.251796060519,0.168977441395,0.675204731001,0.734003847485,0.0285084521359,0.0672621087068,0.0122471343572,-0.46853240482,0.017552309732,-0.342523458873,-0.039448924183,-0.372298380778,-1.77032387257,-0.241157621145,-1.1104323864,0.295775532722,-0.767547786236,0.0294832661748
2017/07/09/10:00:01.896181,398656,1499565604,699682523,,0.799944774443,0.248361857116,0.169184725078,0.675995178118,0.733220354614,0.0273376394758,0.0683453305535,0.0100410737404,-0.455522627717,0.0186250352878,-0.329720129803,-0.0379837061979,-0.380940527832,-1.35516762733,1.34591853619,-1.15552771091,-0.648586094379,-0.619263529778,-0.231269672513
2017/07/09/10:00:01.905866,398657,1499565604,709674680,,0.800511702063,0.243512140491,0.169825329726,0.677633616598,0.731561143416,0.0265001435835,0.0702048252634,0.00929211064603,-0.433743070297,0.0104310469134,-0.332861562761,-0.03364435918,-0.35873339316,-0.954772531986,2.06578803062,-1.08855581284,-0.98704379797,-0.537286281586,-0.293968886137
2017/07/09/10:00:01.916044,398658,1499565604,719682824,,0.800189543129,0.239202267915,0.169377984485,0.678419968075,0.730796847091,0.0249355093458,0.0711374414215,0.0295983320656,-0.442341028865,0.0311607983233,-0.338223778579,-0.0962591132054,-0.354102803985,-1.53353941441,1.90173602104,-1.17347657681,-0.887741029263,-0.701686799526,-0.217562586069
2017/07/09/10:00:01.926226,398659,1499565604,729679938,,0.800957979851,0.23399999438,0.170214284677,0.679684133212,0.72941802135,0.024137752973,0.0734588188834,0.014127594723,-0.462425524563,0.0210283874526,-0.36245139793,-0.0714179974302,-0.361080717038,-1.9653711319,0.582797646523,-1.1689324379,-0.156788259745,-0.850989878178,-0.0531106442213
2017/07/09/10:00:01.936056,398660,1499565604,739682376,,0.80087143283,0.228519403332,0.170368733703,0.681160476881,0.727950387307,0.022449320419,0.0748643197238,0.0133883791848,-0.487970437682,0.0303645891144,-0.399439956223,-0.0729147706965,-0.361011479832,-2.29896092415,-0.302960157394,-1.14561724663,0.238693505526,-0.885804831982,0.00326210260391
2017/07/09/10:00:01.946005,398661,1499565604,749678912,,0.801472401711,0.225154731985,0.170993844476,0.681527602532,0.727402916469,0.0216909777402,0.077036521108,0.0227269006546,-0.49330471879,0.0365973014729,-0.422775682533,-0.101612051259,-0.356258267193,-2.02077078819,-0.367964267731,-1.11696577072,0.397583574057,-0.737544178963,0.00793100893497
2017/07/09/10:00:01.956191,398662,1499565604,759682713,,0.801433664191,0.219594318486,0.170861804015,0.682971180953,0.72591888778,0.019846762667,0.0787289042452,0.0225734233026,-0.485594983338,0.0312404704168,-0.425124269393,-0.098429704799,-0.329375832715,-2.31254339218,-0.875887274742,-1.14028310776,0.439453333616,-0.855910301208,0.0444288551807
2017/07/09/10:00:01.966260,398663,1499565604,769679811,,0.801266916909,0.216009264575,0.171058880366,0.684170319946,0.724742989921,0.0189565566525,0.0793676308383,0.0232488451812,-0.495353632356,0.0444761260759,-0.424175387183,-0.110706668578,-0.358978450127,-3.13195014,-0.31160274148,-1.55590796471,0.164906173944,-1.20474910736,0.04374846071
2017/07/09/10:00:01.976151,398664,1499565604,779683051,,0.801394899306,0.210763365384,0.171540323758,0.685356346168,0.723438149608,0.0174740491907,0.0813546560678,0.0109386516802,-0.481729345192,0.0309291212967,-0.394866940913,-0.0749152400786,-0.35299705929,-3.1340777874,-0.115754932165,-1.72064161301,-0.0267016515136,-1.26254987717,0.00912463665009
2017/07/09/10:00:01.985830,398665,1499565604,789676100,,0.801669890128,0.205966329145,0.17211376301,0.686270404632,0.722367751474,0.0160505027907,0.0834274817782,0.0028754869269,-0.493874527348,0.0371565203035,-0.419897047985,-0.061157122102,-0.348028857265,-2.67308521271,-0.00868108868599,-1.43266284466,0.0454811677337,-1.12367355824,0.0554731935263
2017/07/09/10:00:01.996439,398666,1499565604,799675645,,0.801284827559,0.201256765786,0.171951779585,0.686988379178,0.721583392194,0.0139538219613,0.0846738793098,0.00121767129196,-0.483996114139,0.0491137295478,-0.437138928804,-0.0612233231111,-0.333229726625,-2.38037228584,-0.16865631938,-1.40778958797,0.0365236401558,-1.02738761902,0.0234653279185
2017/07/09/10:00:02.006206,398667,1499565604,809679827,,0.801691399054,0.196340689747,0.172770802636,0.68802651035,0.720346460979,0.0127655064874,0.0869341075469,-0.00305346091701,-0.485253436738,0.028131957675,-0.429632160106,-0.0341662590103,-0.346913683014,-1.17522525787,-0.56666380167,-0.99254411459,0.261830806732,-0.608402252197,0.0515009090304
2017/07/09/10:00:02.016088,398668,1499565604,819682448,,0.801998550266,0.1921703779,0.173382573528,0.688909631312,0.719328888879,0.0117795985713,0.0884913022086,0.0039785420324,-0.463475232709,0.0301594726879,-0.427948225448,-0.0537378815226,-0.325795966733,-0.747895479202,-0.559908092022,-0.761060059071,0.337789088488,-0.525824904442,0.0440761372447
2017/07/09/10:00:02.025873,398669,1499565604,829677122,,0.802085442861,0.188044586069,0.173624862538,0.689809355378,0.71829792125,0.0103792757215,0.0900189990891,0.0225698968452,-0.46461112522,0.0587453278098,-0.41738038741,-0.105706431884,-0.328139899694,-2.50627708435,-0.620401740074,-0.724133729935,0.405466020107,-1.20048522949,0.143818452954
2017/07/09/10:00:02.036153,398670,1499565604,839680875,,0.801986529384,0.184479948586,0.173897220628,0.690738004825,0.71729166338,0.00938694933764,0.0910250708221,0.0163380922766,-0.439435679774,0.0513842834942,-0.407489129327,-0.0821070969367,-0.285587209357,-3.30220270157,-0.245623096824,-0.810286223888,0.195514291525,-1.47860956192,0.116632670164
2017/07/09/10:00:02.045974,398671,1499565604,849684236,,0.802369767003,0.179400897382,0.174302539163,0.692051725259,0.715804531836,0.00834475154186,0.0928366678186,0.0184618930273,-0.425502688065,0.0465663600739,-0.353611069737,-0.0909224759399,-0.326105826828,-3.73137998581,-0.0284457057714,-0.800504565239,-0.0712349265814,-1.66531646252,0.0580411031842
2017/07/09/10:00:02.056046,398672,1499565604,859674656,,0.802442511268,0.176274433548,0.174723623761,0.692578993908,0.715158606268,0.00779079907633,0.0939244831126,0.0229237057133,-0.425775832791,0.0520660483154,-0.33032480267,-0.110296977159,-0.340375978542,-4.01127147675,-0.1088783741,-0.591338992119,0.0106580629945,-1.76272058487,0.151126116514
2017/07/09/10:00:02.066137,398673,1499565604,869676417,,0.803069475293,0.172017688426,0.175734756056,0.693570838521,0.71393661799,0.0069409455755,0.0959469682695,0.0254540745232,-0.425021310237,0.0620073135352,-0.296900880511,-0.130721295233,-0.354677723691,-4.52439498901,-0.3841817379,-0.126650303602,0.147363692522,-1.94265174866,0.189598634839
2017/07/09/10:00:02.076059,398674,1499565604,879681435,,0.803458292605,0.167664784181,0.176742011427,0.695023818261,0.712291886512,0.00619970616843,0.0976919858645,0.0180576632153,-0.445156714439,0.048854896068,-0.295025216606,-0.117592806079,-0.392974149121,-4.96869468689,-0.411055892706,-0.154733002186,0.148897618055,-2.16414618492,0.212555781007
2017/07/09/10:00:02.086247,398675,1499565604,889674944,,0.803549680665,0.164122131494,0.17678794512,0.696191829351,0.711043536922,0.00553865072047,0.0985055769726,0.0247959231998,-0.400226313294,0.0640995179932,-0.287839648768,-0.110509973948,-0.340319057828,-5.62798261642,-0.436029672623,-0.0531733036041,0.274282306433,-2.44779253006,0.30717498064
2017/07/09/10:00:02.096079,398676,1499565604,899683535,,0.804007278485,0.160585914244,0.177825861185,0.696854255933,0.710162946684,0.00487533622932,0.100194641783,0.0283661234482,-0.413251745606,0.0664863021892,-0.319497968928,-0.126344299285,-0.342525568409,-6.61417293549,-0.163231804967,0.331847727299,0.274977684021,-2.82346868515,0.353510886431
2017/07/09/10:00:02.106098,398677,1499565604,909672904,,0.803894705752,0.157335741038,0.177882745714,0.697483044591,0.709418461974,0.00390755263163,0.101131495344,0.0373091102752,-0.396165335006,0.0807125936931,-0.299373704361,-0.148446371184,-0.330350845846,-7.30062961578,-0.167956799269,0.260554403067,0.335084468126,-3.08595728874,0.454318344593
2017/07/09/10:00:02.116073,398678,1499565604,919692586,,0.804909009078,0.152937944414,0.179209889105,0.699048775281,0.707581584091,0.00373303399256,0.103175462641,0.0241109470535,-0.367580804838,0.0640734369895,-0.272896554899,-0.109651131754,-0.31347847116,-8.0223236084,-0.512059211731,0.876691102982,0.526956796646,-3.3823788166,0.539159715176
2017/07/09/10:00:02.126294,398679,1499565604,929676995,,0.8050513152,0.149644930249,0.179520209449,0.700335129744,0.706168384718,0.00320154864133,0.104147340617,0.0470167879202,-0.370506023458,0.0753746388035,-0.254751417935,-0.164885474714,-0.362066630744,-8.69469261169,-0.670472323895,0.502960026264,0.542813360691,-3.57197022438,0.620718717575
2017/07/09/10:00:02.135840,398680,1499565604,939677264,,0.80505539325,0.146330996581,0.180702477172,0.70124747432,0.705078564464,0.00233207574346,0.10540758567,0.0316318514794,-0.376412475425,0.0637517773844,-0.279074173164,-0.126309318095,-0.335511394985,-9.22905540466,-0.563942670822,0.762704372406,0.514416992664,-3.80887341499,0.633337497711
2017/07/09/10:00:02.145803,398681,1499565604,949681868,,0.805159641,0.142130561777,0.180325790166,0.702116280292,0.704055644233,0.00102921635079,0.106476849532,0.0292780373202,-0.355100774187,0.0723730388523,-0.266641264804,-0.124198709651,-0.329037834026,-10.3817977905,-0.76846987009,0.792675495148,0.510219454765,-4.26771783829,0.722274422646
2017/07/09/10:00:02.156308,398682,1499565604,959696551,,0.805797201381,0.139342452048,0.181826379419,0.703004381585,0.702941431528,0.000960245187738,0.10796879754,0.0393194001976,-0.351545501278,0.0860804882093,-0.265595346887,-0.149433953992,-0.325299664808,-10.5914859772,-0.585495829582,1.01006293297,0.421126186848,-4.3974237442,0.735468864441
2017/07/09/10:00:02.165854,398683,1499565604,969676122,,0.806504356323,0.136953962819,0.182481582405,0.703857937662,0.701906032897,0.00106780587978,0.10913654,0.0360339260755,-0.349626063916,0.0793270291334,-0.26162691098,-0.134423173714,-0.324784867339,-10.0079536438,0.275242626667,0.875837802887,0.112635225058,-4.23879384995,0.621749639511
2017/07/09/10:00:02.176028,398684,1499565604,979683091,,0.806522633031,0.132742525716,0.182995677359,0.704936080646,0.700593787678,-7.52165784899e-06,0.110605003564,0.0332977279527,-0.337482108701,0.0705616989452,-0.21905037303,-0.138745710423,-0.346000051008,-10.299407959,-0.185166627169,0.793539166451,0.167218089104,-4.31923055649,0.640095412731
2017/07/09/10:00:02.185835,398685,1499565604,989679691,,0.806798952835,0.130080328288,0.183784065218,0.705738186513,0.699608251636,-0.000574284419267,0.111720976265,0.0338950178203,-0.342934756583,0.0832707728039,-0.221866961481,-0.149808175287,-0.341012541624,-10.5919151306,0.0890242159367,0.782321333885,0.153858318925,-4.4120182991,0.690668284893
2017/07/09/10:00:02.196087,398686,1499565604,999679535,,0.807566226486,0.126352426935,0.185176761414,0.707259554512,0.69780196273,-0.000453859237692,0.113384908047,0.0321291091078,-0.334816702523,0.0726299518098,-0.231888427452,-0.128756843359,-0.327088524092,-10.6917076111,-0.375458449125,0.985231101513,0.329684108496,-4.43558168411,0.764280557632
2017/07/09/10:00:02.206202,398687,1499565605,9675664,,0.807811920404,0.123626616851,0.186281704335,0.708138988479,0.69668237757,-0.00117433118901,0.114766975764,0.0338392991467,-0.334401264759,0.0920647885872,-0.247849363689,-0.14020507868,-0.347097193521,-11.0426902771,-0.00509734451771,1.06492352486,0.250282049179,-4.53647613525,0.764942586422
2017/07/09/10:00:02.216228,398688,1499565605,19677482,,0.808091211796,0.120549266328,0.186082590871,0.708729325148,0.695938982647,-0.00186648176308,0.115620899289,0.0370090351281,-0.326102865466,0.0971217482889,-0.26070937664,-0.142400150299,-0.32518561776,-11.7278165817,0.0880532488227,0.966592729092,0.372458010912,-4.80725717545,0.866248130798
2017/07/09/10:00:02.225869,398689,1499565605,29676630,,0.808160405064,0.117255157219,0.187052660501,0.709758503628,0.694673592741,-0.00285794131766,0.116890111847,0.0273224031202,-0.323132232878,0.0857743317803,-0.280682788049,-0.109659611414,-0.304046720332,-11.9402694702,-0.615415096283,1.14167535305,0.588695108891,-4.80938005447,0.890447556973
2017/07/09/10:00:02.236043,398690,1499565605,39682714,,0.808791242327,0.114284863228,0.188521609516,0.710470094837,0.693637861644,-0.00322562900327,0.118694382992,0.0290160186792,-0.341072510298,0.0877240823578,-0.295862432676,-0.113641572146,-0.329642147104,-11.8422355652,-0.328124761581,1.70659422874,0.604711532593,-4.74186611176,0.901870012283
2017/07/09/10:00:02.246239,398691,1499565605,49679960,,0.809071263892,0.112250812221,0.189129498318,0.711089877038,0.692847426578,-0.0039690269715,0.11957373074,0.01969698577,-0.333313181449,0.091520632806,-0.295380151597,-0.0849966303317,-0.337827986169,-12.247092247,0.0433360673487,1.51095736027,0.628924548626,-4.90984487534,1.01522767544
2017/07/09/10:00:02.255969,398692,1499565605,59709761,,0.80895523758,0.108336176949,0.189936594692,0.712243247542,0.691400635996,-0.00561222289683,0.121009172502,0.0226146299256,-0.318089859955,0.0965999952737,-0.318598956337,-0.0769326117352,-0.30750984536,-12.1257305145,-0.12422914803,1.41129612923,0.526759207249,-4.88189649582,0.946434259415
2017/07/09/10:00:02.265845,398693,1499565605,69673765,,0.808677458966,0.105047555062,0.190862321984,0.712880715098,0.690543770041,-0.00706838416695,0.122067299654,0.0142353447165,-0.329406641339,0.0922243611464,-0.347395346158,-0.0481840736831,-0.305283877401,-12.4629898071,-0.331419557333,1.18237996101,0.475508928299,-5.0766711235,1.01467955112
2017/07/09/10:00:02.276020,398694,1499565605,79682401,,0.808835472944,0.101880108838,0.191801136733,0.713605614212,0.689499511526,-0.00832299030757,0.123645375178,-0.00600700373374,-0.373019186122,0.0846562330977,-0.381195928586,-0.00397017148298,-0.353183993089,-11.2840366364,0.0462228953838,0.899232685566,0.340929329395,-4.74299907684,0.923085451126
2017/07/09/10:00:02.286065,398695,1499565605,89674510,,0.808946469727,0.098065668518,0.19211020434,0.714837396517,0.687976259082,-0.00994365449754,0.124889099667,0.004983536022,-0.344025959486,0.0940152391462,-0.396041681017,-0.0274686445269,-0.307473563021,-11.1044311523,0.143809184432,0.564602375031,0.236125051975,-4.68489265442,0.892805099487
2017/07/09/10:00:02.296078,398696,1499565605,99677850,,0.809160400163,0.0956244594224,0.193784695337,0.715407819852,0.687085901256,-0.0111979149375,0.126408948621,0.0202639361962,-0.3336142635,0.112825318226,-0.420446502675,-0.0451091685734,-0.278390021705,-10.7498674393,0.0251078009605,0.790321707726,0.277202188969,-4.54416418076,0.918392837048
2017/07/09/10:00:02.306245,398697,1499565605,109681350,,0.809310927005,0.0911067730277,0.194774835667,0.716217994527,0.685857300081,-0.0129096126152,0.128315588078,-0.000171526868112,-0.365296186664,0.106080553636,-0.445616786469,-0.000247273717413,-0.310591240993,-10.4477434158,-0.265553116798,0.66351211071,0.291486203671,-4.42383623123,0.891854047775
2017/07/09/10:00:02.316009,398698,1499565605,119682921,,0.809081151319,0.0879924719685,0.195689004304,0.717137984926,0.68466864755,-0.0144700294608,0.129354442857,-0.00688090497791,-0.370947838175,0.106712098881,-0.466137932981,0.0175030336475,-0.303667100119,-10.5609674454,-0.230494260788,0.864039063454,0.353837132454,-4.47063064575,0.969601154327
2017/07/09/10:00:02.326262,398699,1499565605,129675264,,0.80871755251,0.0845703442433,0.196212198502,0.717556363585,0.683902638548,-0.0171880200218,0.13074638822,-0.0108171061425,-0.343467895673,0.0967777841348,-0.459689976691,0.0516001217248,-0.300230205636,-10.3614454269,-0.0399007946253,0.931489884853,0.283678740263,-4.36092758179,0.916083097458
2017/07/09/10:00:02.336208,398700,1499565605,139682102,,0.80849923623,0.0806016370056,0.197168077636,0.718304030528,0.68276766459,-0.01927664389,0.13227262346,-0.0191954036854,-0.373173608224,0.0934359739633,-0.494115342505,0.0725838383346,-0.323138810744,-10.3387708664,-0.195384308696,0.632201015949,0.419979274273,-4.31265258789,1.00404715538
2017/07/09/10:00:02.346337,398701,1499565605,149675671,,0.808195063683,0.0772833014752,0.197817012855,0.719005191706,0.681694814485,-0.0216833878373,0.13361715794,-0.0177862048062,-0.373932512581,0.101444585692,-0.509159360446,0.0666090934078,-0.314072309871,-11.0180988312,0.101838104427,0.552328705788,0.366531103849,-4.58228778839,1.05778217316
2017/07/09/10:00:02.356286,398702,1499565605,159675506,,0.808209344676,0.0745412493394,0.19923599082,0.719320025177,0.681033223325,-0.0233664407615,0.135005405644,-0.0138561291393,-0.333184844832,0.104505599056,-0.509204253121,0.0843991272905,-0.272525708407,-10.809223175,-0.015156686306,0.82781124115,0.39178493619,-4.48129034042,1.0637319088
2017/07/09/10:00:02.366022,398703,1499565605,169677302,,0.807746785545,0.0708642557131,0.200111671477,0.719773510759,0.680166965685,-0.0261591836806,0.136435659232,-0.0439962639252,-0.374169027947,0.114486013042,-0.54670730512,0.129365107926,-0.316831835223,-11.4571008682,0.0599188096821,0.369770109653,0.300075739622,-4.762570858,1.15977692604
2017/07/09/10:00:02.376054,398704,1499565605,179675784,,0.806891483395,0.0675630996863,0.200919980661,0.72078333205,0.67880001703,-0.0290344177951,0.137327811105,-0.0417426167387,-0.341716890547,0.0933912569363,-0.542201192252,0.162496295409,-0.260564308134,-11.1322860718,-0.102305717766,0.286293953657,0.28642103076,-4.66508054733,1.14402937889
2017/07/09/10:00:02.386085,398705,1499565605,189673633,,0.806461632032,0.0633125665803,0.202117730839,0.721207642386,0.6778839516,-0.0317119670371,0.13902242939,-0.0545682861445,-0.369839875924,0.096242810502,-0.558531210894,0.187196347182,-0.313499905233,-11.0670318604,-0.511502325535,0.679016292095,0.431158214808,-4.60741567612,1.18716037273
2017/07/09/10:00:02.396174,398706,1499565605,199673041,,0.806243299107,0.0595470810754,0.203063750054,0.721810837521,0.676779111157,-0.0342500443132,0.140663015763,-0.057858169195,-0.365361568978,0.0976466358119,-0.583552770116,0.214893083629,-0.281862440196,-10.0895729065,-0.423887699842,0.450882703066,0.339259058237,-4.28706932068,1.0635035038
2017/07/09/10:00:02.406073,398707,1499565605,209674610,,0.805141129694,0.0567579521237,0.203316211758,0.722215515428,0.676107228041,-0.0375007378588,0.140987446694,-0.0753134454044,-0.377835921305,0.0790210505582,-0.582242069219,0.253893281244,-0.305737635673,-10.2714290619,-0.0941624417901,0.390137404203,0.362234920263,-4.31327104568,1.1399589777
2017/07/09/10:00:02.416056,398708,1499565605,219681645,,0.804445406578,0.0528063109532,0.203834645744,0.722910574503,0.674927057239,-0.040520558625,0.142238718383,-0.0738241648941,-0.361496182148,0.0909245617284,-0.58699907786,0.25828404389,-0.304800469644,-11.0417222977,-0.374115586281,-0.144795909524,0.264729946852,-4.59634065628,1.19268250465
2017/07/09/10:00:02.426128,398709,1499565605,229676791,,0.803230648439,0.0486642193752,0.204735522252,0.723544095148,0.673778749088,-0.0442888089517,0.143334019184,-0.0874903527001,-0.358197963226,0.0766338500212,-0.600578712508,0.305940019247,-0.275477929976,-10.9576148987,-0.695662558079,0.048286203295,0.383595138788,-4.53941679001,1.24478256702
2017/07/09/10:00:02.436144,398710,1499565605,239687675,,0.803192062386,0.046574985568,0.206096329626,0.723395681382,0.673509133025,-0.0465497616045,0.144627990321,-0.0767864600687,-0.336465169388,0.0876244831802,-0.581022994604,0.277849557327,-0.26718495026,-10.6530828476,0.0748704224825,0.158221781254,0.187759786844,-4.55497455597,1.21518099308
2017/07/09/10:00:02.445894,398711,1499565605,249686511,,0.801932221806,0.0438341564214,0.206654347523,0.723813169817,0.672726341517,-0.0498996109104,0.145064790555,-0.0880858780718,-0.343002981018,0.0782809977638,-0.570253106549,0.315572168484,-0.278019010213,-10.560092926,-0.0107951387763,0.220730304718,0.232769399881,-4.44263458252,1.2299362421
2017/07/09/10:00:02.456047,398712,1499565605,259680617,,0.801425713304,0.039530358045,0.207695763583,0.72458374455,0.671331755891,-0.0528626798327,0.146620625245,-0.0868685085876,-0.337724308893,0.0889868058662,-0.569994945628,0.30571380207,-0.291836271919,-9.52674198151,-0.388757824898,0.126109182835,0.332789063454,-4.07061767578,1.1878606081
2017/07/09/10:00:02.466056,398713,1499565605,269677515,,0.80086010923,0.0371702392376,0.208154680287,0.724961590173,0.670606855661,-0.0555327875333,0.147082451105,-0.101586420902,-0.355033776597,0.0762290176345,-0.578394864645,0.350670675472,-0.315051913139,-7.96732759476,0.180670037866,-0.0987109616399,0.0905176028609,-3.56209564209,0.95281034708
2017/07/09/10:00:02.475996,398714,1499565605,279682855,,0.799461159734,0.0341551648328,0.208591136558,0.72535740772,0.669745698199,-0.0594609993335,0.147518542453,-0.116650090194,-0.345704642017,0.0641416386918,-0.570183610352,0.397157557157,-0.30955756595,-7.43514871597,0.12661151588,-0.191222921014,0.139012172818,-3.36015415192,0.926983952522
2017/07/09/10:00:02.486241,398715,1499565605,289680309,,0.797806861352,0.0305885235159,0.209036377995,0.725874031988,0.66883206228,-0.0633480685677,0.147504523187,-0.116815971543,-0.338061118521,0.0699337590566,-0.555373834857,0.39703929743,-0.339661189606,-8.00978088379,0.270151942968,-0.160660415888,0.0318488627672,-3.55754852295,0.989170432091
2017/07/09/10:00:02.495856,398716,1499565605,299682467,,0.797059519202,0.0271134346135,0.209721462351,0.726418237387,0.667712438459,-0.0666365037366,0.148446018094,-0.128199072433,-0.354689857315,0.0662818079812,-0.567417070158,0.434584748489,-0.343486014923,-7.75335407257,0.207964330912,-0.446756333113,0.0295622460544,-3.46145868301,0.995549440384
2017/07/09/10:00:02.505930,398717,1499565605,309685033,,0.795863703579,0.0248540250857,0.210272738208,0.726901634371,0.666905356132,-0.0697938831311,0.148256783281,-0.125840776989,-0.32834830307,0.0551182949999,-0.530851082392,0.439768815168,-0.347111464579,-7.9449930191,0.658689022064,-0.0525711551309,-0.00502629950643,-3.4805533886,1.01005530357
2017/07/09/10:00:02.516220,398718,1499565605,319678972,,0.794626991005,0.021173707348,0.21055173185,0.727442588864,0.665809866851,-0.0734979907702,0.148736500105,-0.115932699088,-0.290535845658,0.0671457422167,-0.518568733849,0.436373170829,-0.295659451622,-7.4978685379,0.226228892803,0.0083229765296,0.0993120670319,-3.27809000015,0.981874763966
2017/07/09/10:00:02.526347,398719,1499565605,329720874,,0.793334983437,0.0173440551238,0.211518970922,0.728421118827,0.664214596567,-0.0769398169515,0.149338233288,-0.104900732247,-0.305935210713,0.0754483341145,-0.505350212113,0.39230072281,-0.323308171911,-6.95874023438,-0.435798048973,-0.129692971706,0.136119917035,-3.02347970009,0.918073832989
2017/07/09/10:00:02.536072,398720,1499565605,339679173,,0.792157423989,0.0161534543241,0.211565203726,0.728813718023,0.663591587853,-0.0799728247817,0.148597160974,-0.13165140408,-0.314284807457,0.0707356823911,-0.514917330747,0.454366725247,-0.357819775049,-5.82251787186,0.966582536697,-0.838305592537,-0.1500531286,-2.64695239067,0.752215147018
2017/07/09/10:00:02.546034,398721,1499565605,349680476,,0.791058272627,0.0131137214464,0.212579739552,0.729282476313,0.662536019296,-0.0835183086594,0.149056314848,-0.136252737818,-0.27913167557,0.0435217126787,-0.46674453045,0.496791800228,-0.339213049034,-3.84687995911,0.917098283768,-0.545887589455,-0.192476242781,-1.9003995657,0.495091855526
2017/07/09/10:00:02.555831,398722,1499565605,359682318,,0.790184138405,0.0109192172318,0.212442352502,0.729456838704,0.662042631449,-0.0863606052948,0.148775402756,-0.128547014185,-0.302173640327,0.0683318328166,-0.48898889652,0.454661032242,-0.365969159774,-4.50567150116,1.1842520237,-0.466773450375,-0.218546941876,-2.10926222801,0.551145017147
2017/07/09/10:00:02.566024,398723,1499565605,369678161,,0.788543339731,0.00712220527866,0.213593461357,0.730396745908,0.660403952753,-0.0902266812465,0.149152132892,-0.119638011322,-0.277767528628,0.0627084038921,-0.461603333804,0.449032774418,-0.331475008466,-5.49904584885,0.250654488802,-0.0772631689906,0.0346150845289,-2.35129570961,0.686610400677
2017/07/09/10:00:02.576133,398724,1499565605,379682411,,0.787339826194,0.00493661329789,0.213984244911,0.73100796024,0.659350879413,-0.0933114538763,0.148918610184,-0.12499185109,-0.277502333365,0.0663468848929,-0.448413348964,0.444103064318,-0.372484837506,-5.53503990173,0.79785823822,-0.184587702155,-0.00970761850476,-2.32041931152,0.704429090023
2017/07/09/10:00:02.586207,398725,1499565605,389674581,,0.786528045418,0.00313259570305,0.214562957535,0.73133865118,0.658641899305,-0.0960773285644,0.148673375919,-0.137790950167,-0.267073679171,0.0578554772641,-0.443106436918,0.479607277379,-0.374446332873,-5.22544336319,0.791268289089,-0.0501692593098,-0.00336985290051,-2.17583918571,0.693663656712
2017/07/09/10:00:02.595856,398726,1499565605,399682487,,0.784799621443,-0.00054808530226,0.215256255632,0.732031996863,0.657185970388,-0.100387781953,0.14885579978,-0.141335641752,-0.276423726853,0.0622724629848,-0.466654105824,0.494204635629,-0.355641280557,-3.3157081604,0.482965320349,0.525172173977,-0.174425989389,-1.3582931757,0.388326466084
2017/07/09/10:00:02.606071,398727,1499565605,409680390,,0.78303546454,-0.00381649654889,0.216413795304,0.732649874927,0.65581815754,-0.104406887835,0.149083556381,-0.16726557176,-0.279493777302,0.0612193941485,-0.51096734269,0.573797067166,-0.362214905996,-2.4363822937,0.0361058115959,0.665443301201,-0.131210610271,-1.03487598896,0.242163002491
2017/07/09/10:00:02.616012,398728,1499565605,419686274,,0.781856458802,-0.00579630148012,0.216699887558,0.732932831221,0.654937058776,-0.108167240821,0.148885062965,-0.153465922599,-0.294446391793,0.0831340637852,-0.559041613973,0.540975497296,-0.359586264495,-2.40008187294,0.257092177868,0.246398106217,-0.0203700438142,-1.0725890398,0.268303990364
2017/07/09/10:00:02.625861,398729,1499565605,429675667,,0.779822734005,-0.00890450963827,0.216981219117,0.733129968895,0.653985039903,-0.112868336237,0.148609404032,-0.154982505679,-0.287103720763,0.0819964780814,-0.563652275434,0.563369372832,-0.344154824275,-1.771515131,0.526446163654,-0.676728785038,-0.22590239346,-0.836882472038,0.106539845467
2017/07/09/10:00:02.636075,398730,1499565605,439680974,,0.778774645649,-0.0117174328192,0.217845994009,0.733437802966,0.652852299667,-0.116720557364,0.14909451864,-0.164950500873,-0.284143151369,0.0723250139819,-0.583941261228,0.587755637175,-0.322420616565,-1.59918212891,0.539524912834,0.345221251249,-0.0516818761826,-0.853481590748,0.155896231532
2017/07/09/10:00:02.645813,398731,1499565605,449675557,,0.777502094157,-0.0144953939546,0.218967737402,0.733783051921,0.651754237994,-0.120212796741,0.149424661517,-0.147820802168,-0.29178863225,0.0934623725051,-0.596741378732,0.535750138329,-0.345992727062,-1.10998034477,0.42632317543,0.372468501329,0.0333002097905,-0.583902776241,0.0764082297683
2017/07/09/10:00:02.655982,398732,1499565605,459682443,,0.775769083157,-0.0178837371723,0.219628725966,0.734507427032,0.650068876678,-0.124570682201,0.149637696942,-0.138112920114,-0.279834825262,0.0817993709898,-0.579815980647,0.522011161951,-0.330126496896,0.0533283650875,-0.229501247406,0.342978239059,0.224140495062,-0.0904895961285,-0.122712507844
2017/07/09/10:00:02.665906,398733,1499565605,469678302,,0.774472256375,-0.0199565390091,0.220683025402,0.734485458769,0.649329626236,-0.128265912274,0.149833250976,-0.146604367903,-0.296330417015,0.101463830189,-0.59645321745,0.500437361142,-0.362071795848,-0.786294579506,0.777662456036,0.565669059753,0.0198336578906,-0.345064967871,0.0101777985692
2017/07/09/10:00:02.676464,398734,1499565605,479679793,,0.773201107093,-0.0224513570191,0.221196927287,0.734785053356,0.648304623688,-0.131786294088,0.149747831234,-0.154225156179,-0.321967064401,0.109448309406,-0.619442765182,0.499701944367,-0.386315835729,-0.751075088978,1.03992486,0.14590165019,-0.0722613036633,-0.410959750414,0.0339044556022
2017/07/09/10:00:02.686176,398735,1499565605,489682431,,0.771752718155,-0.0255932127341,0.222445811958,0.735742491542,0.646369987761,-0.135314706242,0.15026228847,-0.154512923352,-0.287245385841,0.0952956023613,-0.579145173562,0.523596493311,-0.358216136613,-0.557952463627,0.399507015944,0.101713098586,-0.070503115654,-0.32403215766,-0.010448615998
2017/07/09/10:00:02.696105,398736,1499565605,499679808,,0.769171790048,-0.028128961782,0.222774927063,0.735900371031,0.645266532298,-0.140445127936,0.149522280121,-0.162282497515,-0.275139507473,0.0893162558441,-0.546283400658,0.524107000709,-0.38722221066,-0.473492026329,0.316991448402,-0.0840893536806,-0.0234421119094,-0.244273930788,-0.0483264140785
2017/07/09/10:00:02.706250,398737,1499565605,509674841,,0.768477108912,-0.0300678188494,0.224169682385,0.735808341419,0.644584725105,-0.14342124634,0.150089849615,-0.175476541689,-0.260525426275,0.0879096369669,-0.533709418043,0.561982374457,-0.377617131048,1.64269852638,0.611102044582,0.62867051363,0.0371544361115,0.370873749256,-0.308336377144
2017/07/09/10:00:02.716285,398738,1499565605,519682605,,0.767656113353,-0.0318228281822,0.224834291932,0.736308058352,0.643377158363,-0.146181291975,0.150157601138,-0.160735960016,-0.232743420045,0.0861017111654,-0.499670649882,0.529847209053,-0.363246545204,2.00684380531,0.469551950693,0.251619130373,0.181457996368,0.520277023315,-0.328876703978
2017/07/09/10:00:02.726199,398739,1499565605,529687677,,0.765505947,-0.0347747573085,0.225210892623,0.736788652158,0.642059393799,-0.150167617071,0.149505530566,-0.140497015507,-0.243746126732,0.0994285469586,-0.523073190473,0.463174848581,-0.351620658804,2.15074777603,0.0313603281975,0.0697468668222,0.200544565916,0.605116665363,-0.427312016487
2017/07/09/10:00:02.736116,398740,1499565605,539680297,,0.76478209721,-0.0363009780562,0.226364034038,0.73692777933,0.641037488716,-0.153191898293,0.150135366949,-0.133043316913,-0.227282282955,0.0973786168832,-0.484069883302,0.444774978604,-0.334201806875,2.15540838242,0.291604608297,0.505911767483,0.141135126352,0.593755483627,-0.40679693222
2017/07/09/10:00:02.745853,398741,1499565605,549680523,,0.763691418922,-0.0393436625103,0.227623596156,0.737689674269,0.639259060785,-0.156333225897,0.150737255385,-0.127802115601,-0.236124275442,0.108953106108,-0.494152217833,0.411729595388,-0.346734493075,2.70131158829,0.291507512331,0.473864257336,0.185377106071,0.791625499725,-0.528874158859
2017/07/09/10:00:02.756004,398742,1499565605,559680366,,0.761953871964,-0.0412356606791,0.227810905926,0.737778975322,0.638390282917,-0.159924732044,0.150213549089,-0.143834731812,-0.247249381038,0.0832798821043,-0.495734933291,0.448998589595,-0.372242882557,2.12397432327,0.212915271521,-0.0303733050823,0.217938676476,0.701591670513,-0.469901323318
2017/07/09/10:00:02.765949,398743,1499565605,569678291,,0.761055234362,-0.0434532425067,0.229189623861,0.738362614905,0.636927991973,-0.162558234605,0.150725586129,-0.114752891249,-0.203372307048,0.0842081522029,-0.450267328581,0.395320637395,-0.311808194367,3.12477898598,0.179052710533,0.60190474987,0.233499675989,1.09193134308,-0.691535711288
2017/07/09/10:00:02.776102,398744,1499565605,579681151,,0.759521173732,-0.0460064599503,0.229775553591,0.739033201844,0.635456703002,-0.165457491671,0.150494264447,-0.115532574185,-0.220091328171,0.0905845861458,-0.422452722009,0.364179982371,-0.331683216745,3.15855884552,0.443739831448,0.347341358662,0.122299231589,1.12649679184,-0.711305856705
2017/07/09/10:00:02.786173,398745,1499565605,589674937,,0.75897226305,-0.0477748873436,0.230841017271,0.739219391554,0.634448043714,-0.167914598846,0.151112734318,-0.114905939321,-0.214977981517,0.0915032244049,-0.420354005915,0.339853327675,-0.370528653398,2.85774850845,0.319770276546,0.833432674408,0.139894202352,0.95216268301,-0.632283091545
2017/07/09/10:00:02.795829,398746,1499565605,599682700,,0.758007574641,-0.0500969454552,0.231748465757,0.740038871908,0.632803312289,-0.170256305518,0.151377760759,-0.098265387163,-0.194111554628,0.0918798125885,-0.388109612894,0.30604243703,-0.322996574708,4.62335348129,-0.302702069283,0.685541927814,0.268873035908,1.45258426666,-0.908384799957
2017/07/09/10:00:02.806141,398747,1499565605,609684909,,0.757054403279,-0.0516166404517,0.231943969648,0.740512704767,0.631598330518,-0.172815649631,0.151192705538,-0.0895439702748,-0.200460766067,0.0926786084857,-0.40121813066,0.277842419085,-0.316749841152,4.49054574966,-0.126195222139,0.0208427906036,0.176598399878,1.4017919302,-0.842643260956
2017/07/09/10:00:02.816055,398748,1499565605,619683817,,0.75645457114,-0.0538896761887,0.232910712356,0.740927614819,0.630434813799,-0.174596323402,0.151968217084,-0.085665927439,-0.221293411147,0.0931014415256,-0.381279048265,0.227167580085,-0.352399174484,4.88323545456,-0.124833002687,0.110136076808,0.137410834432,1.49272549152,-0.936257839203
2017/07/09/10:00:02.825996,398749,1499565605,629677534,,0.756449042371,-0.055097462892,0.234089825954,0.741182179659,0.629437410878,-0.176209127608,0.152996293062,-0.076740493494,-0.215424253283,0.0849007763489,-0.384193667599,0.223710740188,-0.301859481344,5.08897304535,0.287405878305,0.386626750231,0.224095851183,1.50452125072,-0.906914114952
2017/07/09/10:00:02.836227,398750,1499565605,639677424,,0.755875880471,-0.0569527626923,0.234547029084,0.741505077157,0.628529502917,-0.178061785843,0.15301923061,-0.0611938771571,-0.182412977787,0.0597066845856,-0.33746619568,0.204815101927,-0.264341595762,5.12491321564,-0.0439326912165,0.214973449707,0.200590789318,1.49616026878,-0.935197710991
2017/07/09/10:00:02.845775,398751,1499565605,649679224,,0.754905028671,-0.0590323998129,0.235203447686,0.742003033555,0.627317654227,-0.180068729962,0.153229603473,-0.0597830753969,-0.208620728861,0.0821450966708,-0.378849459167,0.161984001969,-0.292832017165,5.93971586227,-0.150072798133,-0.0511096864939,0.211390703917,1.85244452953,-1.12018537521
2017/07/09/10:00:02.855870,398752,1499565605,659675984,,0.754614723255,-0.060950877923,0.236378897037,0.742568934445,0.625954674119,-0.18161376053,0.154235422429,-0.0693410066388,-0.227200286453,0.0859138932001,-0.366368834872,0.16345879342,-0.298897333455,6.9165520668,1.19940161705,-0.135734841228,-0.0436830222607,2.16527199745,-1.28720068932
2017/07/09/10:00:02.865918,398753,1499565605,669676760,,0.753382467494,-0.0636214071747,0.236725418302,0.743365730563,0.624413651793,-0.183637470248,0.15424740387,-0.0526637954755,-0.203775334601,0.0772977772821,-0.333687207196,0.12918711144,-0.276332025052,6.69233226776,1.23066961765,0.0264784097672,-0.0185791403055,2.05669283867,-1.25663769245
2017/07/09/10:00:02.876037,398754,1499565605,679683027,,0.753335481143,-0.064840972872,0.237437380476,0.743765118865,0.623390701389,-0.184847695214,0.155012292918,-0.0587705405437,-0.211801844713,0.085937510553,-0.334782232054,0.117463052137,-0.288652098734,5.00290870667,0.974602282047,0.173737838864,0.0690399333835,1.46072793007,-0.944219648838
2017/07/09/10:00:02.886144,398755,1499565605,689678762,,0.752567576689,-0.0676213578844,0.238425171064,0.744054852202,0.622334749192,-0.186640853218,0.155714574694,-0.0686366340966,-0.228677789172,0.0858096265049,-0.341300226367,0.110747392531,-0.318660189762,4.33451652527,0.436993330717,0.602793097496,0.185933381319,1.25034165382,-0.859839320183
2017/07/09/10:00:02.896056,398756,1499565605,699682717,,0.75185904908,-0.0699073140737,0.239094775773,0.744649385828,0.620868331018,-0.188546830164,0.156428579745,-0.0623566388737,-0.231412597573,0.0894260445863,-0.350302016693,0.102737436639,-0.284173816172,4.33927202225,0.34615945816,0.930102407932,0.130640596151,1.22100245953,-0.872651219368
2017/07/09/10:00:02.905933,398757,1499565605,709677776,,0.751361172895,-0.0720851991188,0.239820957669,0.74461919065,0.619973419562,-0.190738490421,0.157461259439,-0.0658436661724,-0.244660688169,0.0862610430149,-0.377953689796,0.108236947329,-0.290198557428,4.36748409271,0.218961164355,0.878689169884,0.180790007114,1.17076468468,-0.831414341927
2017/07/09/10:00:02.916074,398758,1499565605,719683697,,0.750296807258,-0.0753488252912,0.241122166025,0.74618918103,0.617539221304,-0.191972171505,0.158093964569,-0.0801093719847,-0.234388122884,0.0649442540897,-0.358744267181,0.152033391619,-0.284859832469,5.4523267746,-0.00643117725849,0.625025689602,0.221179127693,1.5150821209,-1.02300310135
2017/07/09/10:00:02.926204,398759,1499565605,729678564,,0.75019733741,-0.0767410717427,0.2415274022,0.745745600447,0.617399965309,-0.193440675099,0.158938627992,-0.0700862567606,-0.239120303904,0.0876201775226,-0.367913943782,0.0976089949875,-0.280624291273,4.72436332703,0.160254120827,0.383890330791,0.28200763464,1.21612679958,-0.841901421547
2017/07/09/10:00:02.936065,398760,1499565605,739699846,,0.748722831234,-0.079725484275,0.241504294709,0.746338363684,0.615849893755,-0.19591137493,0.15914360945,-0.0712572951634,-0.271889558754,0.0872328263343,-0.417808960982,0.0888020041142,-0.275375043814,4.58120727539,0.205653727055,0.263480603695,0.275920838118,1.17604577541,-0.863209664822
2017/07/09/10:00:02.945813,398761,1499565605,749677803,,0.748033644459,-0.0823552393622,0.2427689924,0.746703155839,0.614576719959,-0.197515115734,0.16036717682,-0.0758160711206,-0.276499375984,0.0815678929735,-0.422961134603,0.10251546764,-0.263805089442,4.76125907898,0.204193413258,0.305831193924,0.352017492056,1.27105164528,-0.893078505993
2017/07/09/10:00:02.955885,398762,1499565605,759679443,,0.747807461814,-0.0847830306381,0.243334566842,0.747003779923,0.613405568404,-0.198934863917,0.161690696545,-0.0703239138383,-0.288657189308,0.0893889804367,-0.427336322558,0.0606799947436,-0.256003252618,4.54573583603,0.456419855356,0.454964369535,0.231696367264,1.20751833916,-0.910145938396
2017/07/09/10:00:02.966035,398763,1499565605,769675139,,0.747415576303,-0.0870982988211,0.244767441646,0.747230891966,0.612409525425,-0.200083950785,0.162993803253,-0.0695090668571,-0.25090481893,0.0834459405014,-0.393678398151,0.0778105141931,-0.221781443623,3.67590260506,0.605118870735,0.594765543938,0.186322838068,0.967815697193,-0.750516235828
2017/07/09/10:00:02.976278,398764,1499565605,779708622,,0.746196249701,-0.090227312103,0.245456463788,0.74776251998,0.610941554747,-0.20195302343,0.16375776844,-0.0697403158722,-0.291671392771,0.0991958565678,-0.416752500299,0.0210624789246,-0.265398691059,3.3703918457,0.603983044624,0.632658362389,0.182939425111,0.864762961864,-0.672272741795
2017/07/09/10:00:02.986125,398765,1499565605,789680434,,0.745920016394,-0.0926900518584,0.246150094534,0.74818846605,0.609820850189,-0.202881148396,0.164838677408,-0.0667021750575,-0.281985923361,0.0788858823986,-0.397405013614,0.0417106885047,-0.220956800083,3.57968330383,0.660398602486,0.598210513592,0.0863353163004,0.967953920364,-0.750720739365
2017/07/09/10:00:02.996034,398766,1499565605,799679880,,0.745568937501,-0.0949046355858,0.247069862671,0.748183551907,0.609135391108,-0.204007513439,0.16600115185,-0.0852741685909,-0.27373050899,0.0672770128155,-0.383111116925,0.0800998431616,-0.231181070982,3.73342394829,0.372425675392,0.605967640877,0.152641609311,0.978445649147,-0.78971850872
2017/07/09/10:00:03.005909,398767,1499565605,809677422,,0.743912157034,-0.0982793825551,0.247170364004,0.748559291651,0.60776045177,-0.20636208553,0.166435902987,-0.0895913111344,-0.281955877469,0.0805220118179,-0.388556624355,0.0714095556358,-0.223235108084,2.9135415554,-0.0375809967518,0.438325941563,0.35989394784,0.671849250793,-0.628473341465
2017/07/09/10:00:03.016033,398768,1499565605,819680006,,0.742969871241,-0.101642166964,0.248279871344,0.749042443929,0.606257836505,-0.20791230921,0.167807403137,-0.104897133359,-0.305440701687,0.0836206618769,-0.37362692326,0.0680674151732,-0.250061021884,2.94056034088,-0.619621574879,0.302856445312,0.543394804001,0.670160531998,-0.621181488037
2017/07/09/10:00:03.025888,398769,1499565605,829676617,,0.742717497054,-0.103484078112,0.248796751011,0.749120410212,0.605564433504,-0.208789142192,0.168871021732,-0.0817484623401,-0.281364669071,0.0749932105111,-0.353318296192,0.022456257857,-0.222527513138,2.00805330276,-0.477029055357,0.195944994688,0.463387846947,0.362716853619,-0.451626479626
2017/07/09/10:00:03.035976,398770,1499565605,839682539,,0.741154524719,-0.10630559336,0.249116001278,0.749594567839,0.604331522959,-0.210437479199,0.169137404414,-0.0840126532857,-0.275497819641,0.041864846252,-0.335030861934,0.0381648560868,-0.208055346293,-0.187039285898,-2.07327890396,0.479420363903,0.716731786728,-0.19970291853,-0.164278924465
2017/07/09/10:00:03.046004,398771,1499565605,849674867,,0.740585510186,-0.107720876041,0.249362134872,0.750007950713,0.603685318008,-0.210747599182,0.169226357664,-0.0949471753006,-0.260701112685,0.0467862540025,-0.299247908279,0.0579467452187,-0.204972759166,0.142352163792,-0.998896360397,0.75244808197,0.432650506496,-0.183144330978,-0.117402225733
2017/07/09/10:00:03.056014,398772,1499565605,859676013,,0.739211980436,-0.109796103691,0.249826063966,0.750840363176,0.602464879155,-0.211550888677,0.168881733504,-0.111307544997,-0.197986672307,0.0431062179387,-0.142644061675,0.0638210196559,-0.261416037252,-2.64827156067,-0.114589810371,-0.0967144072056,-0.147405087948,-1.25335204601,0.575729429722
2017/07/09/10:00:03.066051,398773,1499565605,869676000,,0.737607868274,-0.11119624414,0.249458901601,0.751450531225,0.601679475612,-0.212494034351,0.167780192855,-0.135240237842,-0.153684330472,0.0097803151986,0.0127579973056,0.113043052704,-0.287027269134,-2.08389759064,-0.867805600166,-0.888382554054,-0.0800789892673,-1.13345432281,0.529721140862
2017/07/09/10:00:03.076236,398774,1499565605,879681914,,0.737021946651,-0.113290146748,0.249903187457,0.752531107378,0.600310569868,-0.212221217279,0.168185335477,-0.136690845175,-0.156610153619,-0.0131375031876,0.0458496917784,0.0964778879807,-0.308380033671,0.549174189568,-1.63862848282,-0.857634186745,0.144483804703,-0.322647094727,-0.0163189247251
2017/07/09/10:00:03.086148,398775,1499565605,889680193,,0.736158519486,-0.114585449374,0.249744542178,0.7529980848,0.599776251618,-0.212426767679,0.1677414697,-0.111475941416,-0.167620043051,-0.0168044371242,0.0331066937264,0.0441473730947,-0.25384871684,1.57185912132,-1.89192533493,-0.0734382867813,0.468002676964,0.078369513154,-0.315247088671
2017/07/09/10:00:03.096170,398776,1499565605,899679306,,0.735678430298,-0.115442299481,0.249120472163,0.753647789794,0.599260987991,-0.212004549541,0.167198529252,-0.0855648498119,-0.144648197321,-0.0191256162944,0.0644268594273,-0.00868596016456,-0.217485766543,2.05523920059,-1.69400680065,-0.302156627178,0.572105288506,0.271347165108,-0.457856327295
2017/07/09/10:00:03.105941,398777,1499565605,909675679,,0.734607554576,-0.117364708693,0.249088476202,0.754434137894,0.598312167826,-0.212277551595,0.166703096852,-0.0820753289158,-0.148850694745,-0.0336891502992,0.0604584715554,-0.00995437947704,-0.224758988655,2.48217368126,-0.899787962437,0.418120205402,0.0425794422626,0.545715689659,-0.634885311127
2017/07/09/10:00:03.116106,398778,1499565605,919680482,,0.733862516175,-0.117912628937,0.248880980284,0.754801091177,0.597717483644,-0.212867476008,0.16642283546,-0.0730894755972,-0.135439784503,-0.0224009476652,0.0402967418078,-0.0197817496213,-0.221975405358,3.11665821075,1.53584837914,0.63213133812,-0.620580255985,0.757953703403,-0.689585924149
2017/07/09/10:00:03.126138,398779,1499565605,929688061,,0.733191556004,-0.119669938738,0.248939310397,0.755784592258,0.59677207808,-0.212291533901,0.166087451552,-0.0808056383715,-0.142442569751,0.00244181972299,0.00739505698108,-0.00410929665702,-0.227551478069,2.01122617722,1.6763958931,0.334835261106,-0.831200957298,0.421451359987,-0.512195050716
2017/07/09/10:00:03.136098,398780,1499565605,939682860,,0.732041976702,-0.121002356161,0.248917415012,0.756514198664,0.59567036241,-0.213109563078,0.165672570724,-0.108385609386,-0.150875694585,-0.00453612704289,0.0248410696909,0.0378264970382,-0.271945696486,1.45603752136,1.5144970417,0.255070149899,-0.593659222126,0.113787055016,-0.285970658064
2017/07/09/10:00:03.146067,398781,1499565605,949678623,,0.731053473753,-0.122175872299,0.248748759351,0.757199705373,0.59513066123,-0.212755517764,0.164933901634,-0.107086229064,-0.153432269927,-0.00528039014779,0.0240577735172,0.023782538291,-0.274839605296,0.58754658699,0.731740117073,0.0932103991508,-0.212919965386,-0.195728167892,-0.111151561141
2017/07/09/10:00:03.156021,398782,1499565605,959680595,,0.730110876937,-0.123726808321,0.248729744941,0.758147790924,0.593892418961,-0.212978678335,0.164753768978,-0.104268354238,-0.17210303069,-0.00111044438495,-0.00538312475663,0.0149045417757,-0.264793742412,0.831468641758,0.117913007736,0.286602675915,0.0838878750801,-0.145433291793,-0.161048710346
2017/07/09/10:00:03.166241,398783,1499565605,969684224,,0.728877757481,-0.126229660965,0.248649089364,0.758855111357,0.592784514862,-0.213627059559,0.164647861605,-0.0954417132714,-0.1480001323,-0.0107679588446,0.0353253194898,0.0106658850601,-0.241555971125,1.13893866539,-0.835985064507,0.203755289316,0.273045390844,0.0343638062477,-0.300717145205
2017/07/09/10:00:03.176071,398784,1499565605,979683034,,0.727921010556,-0.127266776911,0.247810375989,0.759384570689,0.592247430731,-0.213947222022,0.163721228866,-0.0923585772619,-0.152158168483,-0.0237555893234,0.0227944815791,0.0229981523075,-0.221030828551,0.520804166794,-0.581613063812,-0.119537979364,0.182902932167,-0.121747657657,-0.203247457743
2017/07/09/10:00:03.186119,398785,1499565605,989678548,,0.727130166656,-0.128658782142,0.247858899075,0.760167053441,0.591317780906,-0.213863111012,0.163560088641,-0.0852675106175,-0.158736279881,-0.00510487837402,-0.00564546288389,-0.0131251314927,-0.239619002336,0.251198768616,-0.243297070265,-0.0183855295181,0.0437015295029,-0.225171744823,-0.135527789593
2017/07/09/10:00:03.196253,398786,1499565605,999681543,,0.726995252238,-0.129759870376,0.248550952317,0.760633289077,0.590854547477,-0.213277160815,0.163831486439,-0.073636155071,-0.130531984936,-0.0181731218386,0.0354841645797,-0.0203699732284,-0.202492713317,-0.440798789263,0.506412267685,0.134456023574,-0.144754111767,-0.451231002808,0.0392729267478
2017/07/09/10:00:03.205937,398787,1499565606,9676446,,0.726225955652,-0.131484220688,0.248473612481,0.761305451725,0.589899422389,-0.213549151805,0.163796948694,-0.0708149938916,-0.137308967399,0.0106452830706,-0.00352460758636,-0.0303592722752,-0.20876711688,-1.86155605316,0.310775578022,-0.0157324969769,-0.153472855687,-0.956056237221,0.32893422246
2017/07/09/10:00:03.216128,398788,1499565606,19679231,,0.725555234236,-0.13255831076,0.248443871985,0.76162405508,0.589429513841,-0.213822669481,0.163650581891,-0.0833843612385,-0.153288181684,0.0032341288444,-0.00943867796705,-0.000586537175251,-0.214647921444,-1.49443840981,0.222688555717,-0.0268152058125,-0.0860591828823,-0.807939469814,0.218079209328
2017/07/09/10:00:03.225968,398789,1499565606,29678154,,0.72426795805,-0.134558129619,0.248018192587,0.762455671355,0.588337721081,-0.214247360236,0.163150678217,-0.0863662964742,-0.153396508076,0.00261329167664,-0.0276210283717,0.00557934756089,-0.219088125122,-1.61763393879,0.116486757994,0.191289931536,-0.0439615249634,-0.812113404274,0.244215726852
2017/07/09/10:00:03.235915,398790,1499565606,39672677,,0.723829748247,-0.135246248603,0.247949188912,0.762755255146,0.587931992207,-0.214444801087,0.162953430687,-0.0786966619365,-0.136764923729,-0.0224866511301,0.00234377546119,0.0147056396545,-0.192154432657,-0.296630233526,0.742389380932,0.285806357861,0.000454887747765,-0.480946004391,0.0183329209685
2017/07/09/10:00:03.246056,398791,1499565606,49683762,,0.723275254039,-0.136056497223,0.248231610827,0.76317511069,0.587265251427,-0.214782037407,0.162947694973,-0.0794925005691,-0.141297533768,-0.0112552109587,-0.0438414503829,0.0413146500386,-0.159295571572,-0.771094441414,0.705691277981,0.498311728239,-0.0916635990143,-0.567886590958,0.0340124815702
2017/07/09/10:00:03.256226,398792,1499565606,59682282,,0.722359549545,-0.137818801542,0.248399966719,0.763731734486,0.586489405048,-0.215049307655,0.162781481696,-0.0705812121297,-0.119403877181,-0.00359243183249,-0.0307856000438,0.0231839939251,-0.161852295419,-1.91961169243,0.276738882065,0.304895043373,-0.0203649699688,-0.91881364584,0.241628989577
2017/07/09/10:00:03.266100,398793,1499565606,69705210,,0.721195516397,-0.139337215975,0.247558179904,0.764427169015,0.585645364253,-0.215499436882,0.161958646897,-0.0896174721143,-0.137875291055,0.00500976491597,-0.0147156116286,0.0263325638705,-0.214602323994,-2.78733897209,0.508772373199,-0.424859195948,-0.0840188711882,-1.22135257721,0.440599650145
2017/07/09/10:00:03.276176,398794,1499565606,79683347,,0.721014534484,-0.139949134838,0.247784674375,0.764740670964,0.585173347845,-0.215433546136,0.162272136685,-0.0684591729442,-0.124613669626,0.00891543828664,-0.00270802161781,-0.0227542413198,-0.193777251949,-2.97837018967,0.795931100845,-0.550529062748,-0.196314051747,-1.31639313698,0.539804339409
2017/07/09/10:00:03.289609,398795,1499565606,89681072,,0.719347337632,-0.141462228418,0.247575260185,0.765632271578,0.584029532164,-0.216097633691,0.161302644094,-0.0704668552527,-0.108271645076,-0.000108215314751,0.0169129048996,-0.00845577159497,-0.188798026797,-2.24877905846,0.331039249897,-0.814246952534,-0.110533803701,-1.05342578888,0.36709946394
2017/07/09/10:00:03.296018,398796,1499565606,99701107,,0.719054224916,-0.142573346558,0.247576450106,0.766025358322,0.583545831462,-0.215990141815,0.161330938226,-0.0766467367315,-0.111812703539,-0.0163484353567,0.047960183016,-0.0016874554049,-0.201671175811,-1.37653589249,0.0174868702888,-0.344598919153,-0.0962832719088,-0.761320531368,0.203716829419
2017/07/09/10:00:03.306143,398797,1499565606,109706238,,0.718288849185,-0.143066095531,0.246501247009,0.766455943683,0.58341565242,-0.215666692513,0.160185332175,-0.0714425905782,-0.0974977502916,-0.0177706293505,0.0663953085528,-0.00343756507578,-0.192031100054,-1.32186496258,0.855538368225,-0.916298568249,-0.352284371853,-0.763408184052,0.22259233892
2017/07/09/10:00:03.316051,398798,1499565606,119682221,,0.717571879993,-0.143703354506,0.246678893081,0.767200309248,0.582550713683,-0.215615969951,0.159837745791,-0.08524192265,-0.098529063283,-0.0324745404749,0.0608071802434,0.0420345254961,-0.180974589117,-1.86981368065,0.426624238491,-0.275816440582,-0.157362282276,-0.975884914398,0.37275364995
2017/07/09/10:00:03.326209,398799,1499565606,129677084,,0.716764274195,-0.145317557775,0.246775347545,0.767431606674,0.581994556227,-0.216196168881,0.159969628871,-0.0794142613178,-0.0975239185229,-0.020258678029,0.034432779712,0.0436977400836,-0.160194491873,-2.07478523254,0.348644942045,-0.270511716604,-0.177397862077,-1.07563722134,0.403079003096
2017/07/09/10:00:03.336206,398800,1499565606,139698485,,0.716650361456,-0.145751260158,0.247034659772,0.767656372337,0.581656708899,-0.216264428478,0.160027697537,-0.0864978866761,-0.113800628832,0.00313038487648,-0.0264547822318,0.0465481181821,-0.189476891767,-1.89918649197,0.502763986588,0.120878517628,-0.0344577431679,-1.11629509926,0.415602117777
2017/07/09/10:00:03.346388,398801,1499565606,149674964,,0.715538527839,-0.146785734045,0.246973154024,0.76797931976,0.581090624543,-0.217012663959,0.159521014828,-0.0734705285057,-0.0964915306355,-0.00543999177792,-0.0297546730816,0.0571492865479,-0.146920953367,-1.74088954926,0.375752091408,0.0806787014008,0.0347567796707,-1.1019525528,0.391590297222
2017/07/09/10:00:03.356115,398802,1499565606,159682474,,0.715447235316,-0.147806760251,0.246871544236,0.768056796741,0.580797167586,-0.217197170296,0.159964984664,-0.0548180624103,-0.11836652348,0.00862288320065,-0.0682838999773,0.00479609828054,-0.137991961593,-1.69529151917,0.81593132019,-0.408765614033,-0.0146654546261,-1.04424834251,0.367005228996
2017/07/09/10:00:03.366224,398803,1499565606,169677103,,0.714737913674,-0.14894600026,0.247062010658,0.768795203689,0.579893528942,-0.217091948548,0.159839030753,-0.0281563186984,-0.0931435033176,-0.0063097680945,-0.0341277610945,-0.0259303859848,-0.0801082206781,-2.26791644096,0.475521326065,0.195835217834,0.091413795948,-1.15108966827,0.414478749037
2017/07/09/10:00:03.376177,398804,1499565606,179682914,,0.71435816925,-0.150116223229,0.246897963688,0.768859889069,0.57958933787,-0.217566073687,0.159986480641,-0.0493873225494,-0.101421681783,-0.00533270545715,-0.0356009763699,-0.00514649399263,-0.129319650577,-4.80251407623,1.13421630859,-0.34501349926,-0.354412198067,-1.96992838383,0.919231951237
2017/07/09/10:00:03.386301,398805,1499565606,189677707,,0.714076360043,-0.150279905361,0.246636266639,0.769279516234,0.579347694866,-0.217110993523,0.159461878977,-0.0535055393725,-0.082554554358,-0.0132078761581,0.0028190304441,0.0169383732809,-0.140478055049,-5.18182086945,1.78861999512,-0.786184310913,-0.542870879173,-2.12470221519,1.07849764824
2017/07/09/10:00:03.395877,398806,1499565606,199675577,,0.713412607961,-0.150943735636,0.246551497353,0.769745230667,0.578670526657,-0.217498132312,0.159145417415,-0.0359619793426,-0.0540904225661,-0.0165060015093,0.0337057242872,0.000252213862548,-0.11003961922,-5.47452783585,1.84020936489,-0.651089727879,-0.671961128712,-2.16969919205,1.11227953434
2017/07/09/10:00:03.406217,398807,1499565606,209679724,,0.713149030024,-0.15170219888,0.246569744672,0.769907618935,0.578495169731,-0.217395449856,0.159137724271,-0.0446254778072,-0.0575758350231,-0.0226740257003,0.0462949582168,0.0143272717658,-0.114084558888,-4.59971904755,1.43057453632,-0.481659322977,-0.506589531898,-1.89782583714,0.927695095539
2017/07/09/10:00:03.415919,398808,1499565606,219713957,,0.712148743443,-0.152482411543,0.245517132568,0.770445132012,0.577829617931,-0.217922328608,0.158231128086,-0.0581098870155,-0.076500901294,-0.0351703303308,0.0496295160037,0.0234926682536,-0.135177317327,-4.21759605408,1.08942329884,-0.961344122887,-0.351774781942,-1.75205409527,0.834485352039
2017/07/09/10:00:03.425915,398809,1499565606,229677831,,0.71177488851,-0.153040338442,0.245222934656,0.770621345385,0.577755813555,-0.217792425768,0.157820851657,-0.0680299553155,-0.0808872211858,-0.036931216607,0.0330735479852,0.0512594143971,-0.13830373154,-4.08161306381,0.917338490486,-0.594350337982,-0.332814127207,-1.75121283531,0.82408374548
2017/07/09/10:00:03.436060,398810,1499565606,239702010,,0.711571865316,-0.153658583412,0.24586022721,0.771007396035,0.57707324465,-0.217857597143,0.158341823075,-0.0516597198728,-0.0583913723194,-0.0195223539509,0.0108192428487,0.0444384023979,-0.0959619161637,-3.43051624298,0.639230787754,-0.130819261074,-0.133757263422,-1.60413193703,0.703935921192
2017/07/09/10:00:03.445909,398811,1499565606,249676767,,0.71066477574,-0.154209478197,0.244401259759,0.770938151817,0.577006154763,-0.218953446334,0.15740918581,-0.037312406215,-0.0434237027458,-0.0140310721454,-0.0109599170008,0.0498552261881,-0.049817851499,-3.84406852722,0.755483448505,-0.744896054268,-0.186342597008,-1.72961115837,0.803322553635
2017/07/09/10:00:03.455942,398812,1499565606,259682687,,0.710737150843,-0.154415793194,0.244494385848,0.771225512583,0.57676144738,-0.218622958851,0.157357692598,-0.039450904688,-0.0307672022312,-0.0382963353156,0.0252210040728,0.0655477766226,-0.0712418156947,-3.4965569973,0.590084433556,-0.782186210155,-0.203711882234,-1.66696727276,0.742103219032
2017/07/09/10:00:03.465998,398813,1499565606,269675428,,0.709976315831,-0.154284022333,0.244199845288,0.771179446484,0.576808357412,-0.219241358344,0.156549055991,-0.0547736719467,-0.0416685185823,-0.0445319373205,0.017410499036,0.107578977404,-0.0799666544349,-3.26649737358,0.519355475903,-0.482222914696,-0.00740970671177,-1.62076544762,0.743379771709
2017/07/09/10:00:03.476145,398814,1499565606,279682763,,0.710083871246,-0.155335507893,0.244128526072,0.771276999609,0.576451628543,-0.21939731625,0.157162741917,-0.0444266889758,-0.065655805127,-0.0355142821395,0.0278925562674,0.0374916652695,-0.0940284151779,-3.90229320526,0.568198084831,-0.50680577755,-0.133362293243,-1.81511044502,0.841678321362
2017/07/09/10:00:03.485927,398815,1499565606,289675886,,0.709791829848,-0.155553684167,0.243526341122,0.771548448012,0.576529279266,-0.218735755344,0.156466136445,-0.0446080860376,-0.0689163008927,-0.0305707305122,0.0110277048728,0.0381635062646,-0.0890232884985,-3.38750219345,0.972707152367,-0.460146546364,-0.21260201931,-1.6309568882,0.734275281429
2017/07/09/10:00:03.496006,398816,1499565606,299691607,,0.709695498381,-0.155644377126,0.243109564982,0.771527818679,0.576329803176,-0.219334018797,0.156465239506,-0.0138864816175,-0.0285668673249,-0.0319327660861,0.0140878146654,0.0191402357804,-0.0333339230817,-2.54768657684,1.65039002895,-0.78221321106,-0.401805281639,-1.35579323769,0.632372677326
2017/07/09/10:00:03.505969,398817,1499565606,309675963,,0.708970427282,-0.156777904396,0.243168354594,0.771736187735,0.575932393565,-0.219750581961,0.156316398088,-0.0373075271656,-0.0446338095887,-0.0366149743684,0.0234315527174,0.0389326334424,-0.0885160187648,-2.85395550728,0.772641181946,-0.865361332893,-0.295871078968,-1.3592441082,0.572975099087
2017/07/09/10:00:03.515996,398818,1499565606,319714244,,0.708808293629,-0.156910457855,0.242689946787,0.77181263937,0.575825193358,-0.219928461643,0.156083529442,-0.0328532078387,-0.031593652813,-0.0470819195399,0.0373776768425,0.0543405630312,-0.0601849706405,-2.90007257462,0.476596742868,-0.730484485626,-0.132996499538,-1.40066289902,0.633633077145
2017/07/09/10:00:03.526042,398819,1499565606,329677438,,0.708554267526,-0.156695164209,0.24205602914,0.771980385353,0.575861885215,-0.219742185166,0.155379361066,-0.0182742986936,-0.0333813098111,-0.0511805394545,0.0182277743627,0.034582336107,-0.061574199098,-2.89375352859,1.01015973091,-1.00220644474,-0.25609177351,-1.40231347084,0.616742968559
2017/07/09/10:00:03.536078,398820,1499565606,339679391,,0.708385047645,-0.156946653429,0.241232313473,0.772466263792,0.575430350717,-0.219493273663,0.154914446045,-0.0139375469655,-0.024942965419,-0.0260442822103,5.70972850474e-05,0.0303353954902,-0.0334103752129,-4.13132762909,0.458444297314,-1.00082302094,-0.203355133533,-1.77885901928,0.857902407646
2017/07/09/10:00:03.546116,398821,1499565606,349680367,,0.708148783556,-0.157681062609,0.241453605934,0.77239070384,0.575348642967,-0.219879891107,0.155046358053,-0.0305776044865,-0.0227433220549,-0.0387869816067,0.0195880995912,0.064447407965,-0.053281567156,-4.79068374634,0.675064325333,-0.728109478951,-0.260692417622,-2.00308847427,0.99055826664
2017/07/09/10:00:03.556202,398822,1499565606,359679023,,0.707926827695,-0.157727567184,0.240967116763,0.772327636624,0.575320995102,-0.220274383373,0.154903099812,-0.0358446344677,-0.0292873483644,-0.0428261838889,0.0375394107098,0.0529464555236,-0.0715319183703,-4.08347272873,0.933990001678,-0.795879006386,-0.185837909579,-1.79735422134,0.889746248722
2017/07/09/10:00:03.566170,398823,1499565606,369677052,,0.707877466482,-0.157347380713,0.240604822377,0.772435720037,0.575321555713,-0.220182892786,0.154491616821,-0.0247227553032,-0.023616013466,-0.0444521859459,0.0182585937393,0.0518375735672,-0.0321491346239,-2.9733080864,1.25141823292,-0.806806206703,-0.287936747074,-1.45501613617,0.677865624428
2017/07/09/10:00:03.576075,398824,1499565606,379682720,,0.707494434794,-0.15802295741,0.240526184361,0.772367550329,0.575192368185,-0.220738768353,0.154520234684,-0.00839053615523,0.000450341990233,-0.0388320918619,0.0263090366067,0.0473334744709,-0.00193397109995,-2.85711526871,0.521310865879,-0.825827240944,-0.223903983831,-1.35117089748,0.595319628716
2017/07/09/10:00:03.585909,398825,1499565606,389674764,,0.707159667935,-0.158650187573,0.240211140419,0.772436123371,0.575042362854,-0.221028249486,0.154321836318,-0.0115580170538,-0.0134976234535,-0.0309560007936,0.00104044016649,0.0462251062709,-0.0122029738215,-2.82885932922,-0.20628619194,-0.931995034218,-0.0407219231129,-1.30586528778,0.576687633991
2017/07/09/10:00:03.595953,398826,1499565606,399682041,,0.708072425493,-0.156850681352,0.239239259732,0.771934045909,0.576208826029,-0.220183851919,0.153688935605,-0.0196906649202,-0.0355701027296,-0.0238376239841,-0.0199639565935,0.0459321441283,-0.0381376445963,-3.5355887413,1.69539678097,-1.43093121052,-0.331399321556,-1.661896348,0.804462611675
2017/07/09/10:00:03.605908,398827,1499565606,409676628,,0.707408986976,-0.158196809395,0.239126750468,0.772480264033,0.575108484874,-0.221019975124,0.153865665114,-0.00983628354785,-0.00400133287215,-0.0341550894144,0.00500045235539,0.0602715221917,0.000120921017034,-3.28690242767,0.578479290009,-1.15572369099,-0.198123931885,-1.51483380795,0.729091763496
2017/07/09/10:00:03.616202,398828,1499565606,419681127,,0.707152199173,-0.157936185923,0.238516233541,0.77206022935,0.575753297111,-0.221278035346,0.153189993782,-0.0174700781882,-0.00677818104271,-0.0448961266568,0.00943797679729,0.0658536102002,-0.0215588362574,-3.46041989326,1.0548722744,-1.46015179157,-0.339744865894,-1.57322657108,0.763033509254
2017/07/09/10:00:03.626144,398829,1499565606,429678623,,0.707455288154,-0.157558965335,0.238180268773,0.771828699054,0.576084809815,-0.22119518571,0.153230026548,-0.00472186388233,0.0081587597204,-0.0440747557883,0.0169491764208,0.0531466788763,0.00483748555218,-3.00200343132,1.1378980875,-1.19145643711,-0.316459476948,-1.442933321,0.689888119698
2017/07/09/10:00:03.635991,398830,1499565606,439682529,,0.706622106844,-0.158760868415,0.238058685706,0.772154110172,0.5753593798,-0.221983287398,0.153176481017,-0.0120821988869,0.00107750988971,-0.0387159581746,0.0234710518171,0.0570307580769,0.00192626141312,-3.42669057846,0.0499742627144,-1.27937281132,-0.0877932906151,-1.4871379137,0.699051439762
2017/07/09/10:00:03.646380,398831,1499565606,449688447,,0.706756432798,-0.15817107881,0.237560153817,0.771986130858,0.575627511268,-0.222090892331,0.152859470029,-0.0206751218834,-0.0105898976865,-0.0397190262539,0.023788118737,0.0572923849794,-0.0326632458243,-2.62497448921,0.448269873857,-0.785562396049,-0.0880770161748,-1.3174585104,0.576032757759
2017/07/09/10:00:03.656104,398832,1499565606,459680449,,0.706570292686,-0.158216903901,0.237371395864,0.77205621997,0.575645851452,-0.221989784702,0.152583034442,-0.0293258989445,-0.0149736582325,-0.0386137520639,0.0341922002236,0.0604332308017,-0.048392514168,-1.47866070271,0.364999562502,-1.02906906605,-0.0240747928619,-0.96344524622,0.396589607
2017/07/09/10:00:03.666322,398833,1499565606,469679710,,0.70646551793,-0.158331656502,0.237168298264,0.772210809703,0.575447454106,-0.222065383439,0.152439031809,-0.00952867260259,0.00371878275749,-0.0301194857719,0.026450756044,0.0476564543537,0.0138511236298,-2.49713182449,0.212872758508,-0.721831977367,0.013494618237,-1.27985548973,0.541224420071
2017/07/09/10:00:03.676094,398834,1499565606,479683061,,0.706880439262,-0.15765631327,0.236737791382,0.771860851706,0.575884478757,-0.222159045797,0.15242457512,-0.0114756108805,0.0178281013747,-0.0314754914154,0.0222551264278,0.072604456434,0.00513126830227,-1.69437515736,0.721154689789,-0.798622727394,-0.0306985154748,-1.1179214716,0.517925262451
2017/07/09/10:00:03.686029,398835,1499565606,489676572,,0.706081259854,-0.158219632085,0.236395110687,0.772409927533,0.575400126538,-0.222112453618,0.151537639472,-0.00969751345103,-0.00187671331902,-0.0290389550063,0.00368492916689,0.0402480663783,-0.0234214092951,-1.74145591259,0.142447054386,-1.21611464024,-0.00798451155424,-1.05487251282,0.435777395964
2017/07/09/10:00:03.696101,398836,1499565606,499681522,,0.706279722059,-0.157391953885,0.235839842273,0.772199827703,0.5758542102,-0.221976658072,0.151081825382,-0.0102445712202,0.00238650965634,-0.0304950533999,0.0505474898549,0.024935073709,-0.0233160718717,-1.77328944206,0.706565320492,-1.58888077736,-0.239755421877,-1.08820796013,0.5090726614
2017/07/09/10:00:03.705931,398837,1499565606,509679138,,0.706760784405,-0.157747170651,0.236566618293,0.772235305866,0.575627746952,-0.221795997559,0.152025868784,0.00488235943453,-0.000424885293629,-0.0184744258055,0.00600230663119,0.000714340337069,-0.00891680987895,-1.97969043255,0.54691696167,-1.11877787113,-0.140090554953,-1.11999690533,0.532728672028
2017/07/09/10:00:03.715987,398838,1499565606,519701054,,0.706426424338,-0.158318364053,0.236113457427,0.772302230635,0.575388264801,-0.222250341861,0.151928913729,0.00408518559631,0.0122821654065,-0.0261308552975,0.0361473378809,0.00866465899415,-0.00115478780443,-2.11877179146,0.158326566219,-1.25396752357,-0.188361912966,-1.15758538246,0.539402544498
2017/07/09/10:00:03.725835,398839,1499565606,529679902,,0.706486569616,-0.158305153816,0.236005070707,0.772073908777,0.575532635809,-0.222584221484,0.15205370384,0.00327283025192,-0.00447138794516,-0.0312993584407,0.0122472968887,-0.001047742293,-0.0247875049357,-2.50669741631,0.318686425686,-1.53820729256,-0.186368405819,-1.22721636295,0.629515528679
2017/07/09/10:00:03.736064,398840,1499565606,539680446,,0.705989829205,-0.158403170668,0.235754734099,0.772294365703,0.575328851649,-0.222705155857,0.151527353039,-0.01169972738,-0.00956156326797,-0.0193586374532,0.00600904600459,0.0266485595057,-0.0267082603595,-2.15691065788,0.721724033356,-1.23933935165,-0.234032407403,-1.1285353899,0.564106345177
2017/07/09/10:00:03.745911,398841,1499565606,549674790,,0.706129183056,-0.15778667262,0.234683550155,0.7724180993,0.575399786459,-0.222458911772,0.150988073005,0.00229104130861,0.0223416675423,-0.0222119239528,0.012213800199,0.0307229991579,0.0150635405425,-2.91038799286,0.765938639641,-1.43041968346,-0.231226578355,-1.39082849026,0.72178542614
2017/07/09/10:00:03.755968,398842,1499565606,559680835,,0.706333808469,-0.157815963064,0.235108476014,0.772105233858,0.575758259146,-0.222454829383,0.151227589279,-0.00573593069858,0.00571790034957,-0.0178916019441,0.023415911716,0.0333787793365,0.0152133976594,-2.84882688522,0.194546476007,-0.930475413799,-0.0717944204807,-1.37961435318,0.67588943243
2017/07/09/10:00:03.766160,398843,1499565606,569675331,,0.706212998064,-0.157820525693,0.234982526556,0.771964521526,0.575833657039,-0.222805888168,0.151142029644,-0.00245962574781,0.00339473821452,-0.0136766022149,-0.00521552102784,0.0356716380477,0.0150060171355,-2.79194784164,0.427785128355,-1.11785888672,-0.11732647568,-1.36456406116,0.682069599628
2017/07/09/10:00:03.778242,398844,1499565606,579682740,,0.70517136176,-0.158837517484,0.234655747169,0.772555725364,0.574909102838,-0.223422914126,0.150729479949,-0.00158443260071,-0.0146344223274,-0.00754399208482,-0.0213499874846,0.0035907123343,-0.00668416234519,-2.67328739166,-0.165478974581,-1.485268116,-0.0479147061706,-1.26656639576,0.597295820713
2017/07/09/10:00:03.785893,398845,1499565606,589675898,,0.706312873197,-0.157577556242,0.234546496024,0.771921029016,0.57596473435,-0.222716012885,0.15099711041,-0.0119473172218,-0.0133812074648,-0.00857553975721,0.00162229830016,0.0127753214597,-0.0278083737868,-2.12122797966,0.395928263664,-1.2605714798,-0.111802645028,-1.16969180107,0.540615558624
2017/07/09/10:00:03.796144,398846,1499565606,599678310,,0.705728865838,-0.158770043219,0.234774177184,0.772254551025,0.575239676881,-0.223307808376,0.151181497818,-0.00253505892819,-0.0040073430755,-0.0168710233015,0.00602398672385,0.0123621417032,-0.010162178717,-2.10298728943,0.0582335889339,-1.54548168182,-0.0915387272835,-1.11109280586,0.543953001499
2017/07/09/10:00:03.805742,398847,1499565606,609677453,,0.705176640981,-0.158709492178,0.233752161592,0.77264632563,0.575091388446,-0.22309398015,0.150055411253,-0.0101870099082,0.000798639544061,-0.0305314561766,0.0309231212749,0.0312522139173,-0.0194668075191,-2.92333936691,-0.149788469076,-1.51979506016,-0.106735520065,-1.32345581055,0.650953173637
2017/07/09/10:00:03.816269,398848,1499565606,619674138,,0.705837217613,-0.158852124878,0.234735898236,0.772402694987,0.575112797377,-0.223049425603,0.15128879935,-0.00364504426192,-0.00052520104668,-0.00783367580865,-0.00866049227188,0.0233481498899,0.00390209179834,-2.45151495934,0.165941804647,-1.15111505985,-0.0742593184114,-1.23474740982,0.611676931381
2017/07/09/10:00:03.826116,398849,1499565606,629676630,,0.706355563154,-0.158241934565,0.234502284531,0.77212273382,0.575589174105,-0.222718123544,0.151394266789,0.0128517161655,0.0120625385301,-0.00526958758263,0.0211605815077,-0.0145791936613,0.0265611811282,-2.51286268234,0.0837199911475,-1.19300961494,-0.0296738296747,-1.29185295105,0.617519974709
2017/07/09/10:00:03.836025,398850,1499565606,639682416,,0.705615824372,-0.158183225307,0.234059028909,0.772052367593,0.575735084317,-0.223233392703,0.150436387761,-0.0118070072358,-0.000673192135855,-0.00250245877736,0.010678920414,0.0130259832612,-0.0269846985311,-3.04848909378,0.0178959369659,-0.869313657284,-0.0501278340816,-1.42475998402,0.707305669785
2017/07/09/10:00:03.846309,398851,1499565606,649677093,,0.705890436446,-0.157992133123,0.234191040644,0.772217847075,0.575521335271,-0.223037151847,0.150695780308,-0.0155092514107,-0.00672637999187,-0.00576636700446,-0.00426815931799,0.0436449490502,-0.00458507230493,-2.52117538452,0.63464319706,-1.0016617775,-0.0951020643115,-1.36202573776,0.669836580753
2017/07/09/10:00:03.855884,398852,1499565606,659674410,,0.705817080211,-0.157883428765,0.23421626924,0.772187149144,0.575690970694,-0.222845296237,0.150488826508,-0.0120868198606,0.0116467775069,-0.0188468005571,0.0291266174878,0.0424533316077,-0.0028072783341,-2.57091617584,0.183743059635,-1.02377963066,-0.0711315199733,-1.35384511948,0.654035568237
2017/07/09/10:00:03.866224,398853,1499565606,669677691,,0.704920623736,-0.158356322959,0.234065291922,0.772183499753,0.575368960917,-0.223956680391,0.150088663234,-0.010182039057,0.00163931253124,-0.00798185900196,0.0053647137513,0.0268485074248,-0.0184979213832,-3.19785785675,0.0422043800354,-0.853377401829,-0.0640882030129,-1.5082243681,0.736140906811
2017/07/09/10:00:03.876087,398854,1499565606,679676650,,0.705927050245,-0.157985189323,0.234196115724,0.772302447115,0.575526922377,-0.222815094818,0.150569337252,-0.000383831645927,-0.0111028254166,0.00362573864793,-0.00692157207127,-0.0113084834629,-0.012139605368,-2.99479627609,0.428269922733,-0.579661488533,-0.14804700017,-1.48935174942,0.744063436985
2017/07/09/10:00:03.885975,398855,1499565606,689674965,,0.705515838592,-0.158458462744,0.233928603418,0.772412750168,0.575268903261,-0.223180833534,0.150447824383,0.000762907962476,-0.0068840612181,0.00109443724536,0.00368764852614,-0.0111298937141,0.000108081219501,-3.57033967972,0.106399908662,-1.05041646957,-0.0989732667804,-1.63306295872,0.86376196146
2017/07/09/10:00:03.896065,398856,1499565606,699686979,,0.705614550474,-0.158081686908,0.233728919445,0.772292073759,0.57552177612,-0.223143522972,0.150155273555,-0.000992835266874,0.00413369343124,-0.0108860876948,0.017294305706,0.00446279637557,-0.00377456583437,-3.03385686874,0.799389600754,-0.841809391975,-0.253546237946,-1.48549187183,0.753319144249
2017/07/09/10:00:03.905981,398857,1499565606,709674998,,0.705123523948,-0.158860360357,0.233973684224,0.77256994126,0.575104955819,-0.223273744576,0.150129313049,0.00874781374317,0.00159943241944,0.001855486033,0.00736856069516,-0.0243398381047,0.00503196607372,-3.15306210518,0.473331987858,-0.870816290379,-0.219193175435,-1.53039097786,0.76687169075
2017/07/09/10:00:03.915947,398858,1499565606,719677147,,0.705737359843,-0.157677727422,0.23378120885,0.772198413306,0.575715509131,-0.223000682303,0.150106491287,-0.00203555727776,0.0026107555225,-0.0154183173328,0.0118412771282,0.00664230787947,-0.0137121824425,-2.65993261337,0.966707646847,-0.965845584869,-0.263763606548,-1.37261915207,0.699714660645
2017/07/09/10:00:03.926012,398859,1499565606,729677048,,0.705277423948,-0.157933231726,0.233479262759,0.77240128928,0.57546545162,-0.223235978302,0.149671173915,-0.00185317112363,0.0177124392698,-0.0256088110032,0.0311874890898,0.0255026896742,-0.00788301306131,-2.21282029152,0.797126293182,-1.04900312424,-0.26274138689,-1.19449007511,0.579872012138
2017/07/09/10:00:03.936170,398860,1499565606,739683931,,0.704984099929,-0.158049532634,0.233111540628,0.772367491245,0.575450671955,-0.223567567041,0.14940724742,-0.00913789722914,-0.0259923033477,0.0152079211203,-0.0276916963527,-0.00872146863846,-0.0306102611349,-3.4533290863,0.632369756699,-1.31053674221,-0.192347124219,-1.57512104511,0.821631968021
2017/07/09/10:00:03.945994,398861,1499565606,749673188,,0.706030993224,-0.157538812339,0.233445722792,0.772105909748,0.575897334645,-0.222809607791,0.150168581124,-0.00299725034513,-0.00662794759322,-0.00160767031091,-0.0311475189986,0.0191005101621,0.0100889732496,-1.81003475189,0.84628868103,-1.08858382702,-0.206383302808,-1.12216162682,0.529495477676
2017/07/09/10:00:03.955828,398862,1499565606,759696629,,0.705969618892,-0.157062371103,0.233311101563,0.771972789512,0.576212577687,-0.222812143737,0.149638986137,0.0135085644346,0.0116650431382,0.00699897015488,-0.00490096990316,-0.00712961655039,0.0357684642156,-1.35638093948,1.13386940956,-1.44705879688,-0.249951303005,-0.927032053471,0.453648775816
2017/07/09/10:00:03.966015,398863,1499565606,769681038,,0.706131842301,-0.158047129887,0.23405448386,0.772417032161,0.575402106991,-0.222639751418,0.150717898032,0.000634489041469,0.00825271717659,-0.0187051646889,0.0325649524495,0.0179859956971,0.014476469976,-0.753224611282,0.172808527946,-0.895125031471,0.000150516629219,-0.724881947041,0.299722313881
2017/07/09/10:00:03.976284,398864,1499565606,779680452,,0.705696557792,-0.158515295028,0.234101377101,0.772404026386,0.575242355376,-0.223195888517,0.1505717369,0.00707751286504,-0.00779346079579,0.00036273102913,-0.00807071987369,-0.0170661225014,0.0107962321934,-1.20424330235,-0.185749277472,-1.02390682697,0.0240911394358,-0.834996283054,0.339262008667
2017/07/09/10:00:03.986251,398865,1499565606,789674949,,0.706018998412,-0.15766774717,0.233258978317,0.772260870646,0.575827229158,-0.222573527732,0.149990581642,0.000540565720011,-0.00308013153783,-0.00378097371359,-0.00627181895013,-0.00148228624711,-0.00765454456743,-2.31703138351,0.378465086222,-1.58298623562,-0.26223808527,-1.14955818653,0.583502709866
2017/07/09/10:00:03.996234,398866,1499565606,799682637,,0.705716333221,-0.158610560217,0.233611226441,0.77251409678,0.575323503766,-0.222814887492,0.150260980303,-0.00807225022479,-0.026761494672,0.00119669599124,-0.0271997182022,-0.00847533504575,-0.0339439636766,-3.54371476173,0.128403529525,-1.58550357819,-0.258096277714,-1.51507329941,0.770816266537
2017/07/09/10:00:04.005945,398867,1499565606,809700850,,0.706093665171,-0.15737683921,0.233160051104,0.772056863953,0.575927004889,-0.222973778389,0.150063246712,0.00974465570658,0.0115690202035,-0.00353424115513,0.00933436381866,-0.0147184820013,0.00237307026247,-2.9972474575,0.894315481186,-1.78925848007,-0.335670232773,-1.37388491631,0.731896400452
2017/07/09/10:00:04.016150,398868,1499565606,819682046,,0.70554049779,-0.157774294614,0.233309870856,0.772241351422,0.575554981754,-0.223386785251,0.149926989923,0.00304138294249,0.00287966649946,-0.0127702380747,0.0170880618145,-0.00448172627965,-0.00928528816159,-3.1484837532,1.30227518082,-1.57479941845,-0.447934806347,-1.43056726456,0.75529384613
2017/07/09/10:00:04.026022,398869,1499565606,829675782,,0.705649585912,-0.158021391155,0.233213183568,0.771956994105,0.575821389589,-0.223551127452,0.150123349148,0.00125978461055,0.000623020829389,0.0050559196818,-0.0265505862625,0.0157272064686,0.0196170511268,-3.71009802818,0.341873735189,-1.64436352253,-0.213884323835,-1.57287454605,0.819399297237
2017/07/09/10:00:04.036288,398870,1499565606,839683580,,0.705365854867,-0.15850548538,0.233219764305,0.772373136947,0.575382434349,-0.223357007031,0.149954789773,-0.00789942348067,-0.00781993224039,-0.00574078367532,-0.00154725668922,0.0144908068231,-0.000973028650756,-3.70199632645,0.29485809803,-1.61936128139,-0.225219160318,-1.57447886467,0.805843174458
2017/07/09/10:00:04.045767,398871,1499565606,849677089,,0.705523907534,-0.15810643172,0.23343712828,0.772328905686,0.575541560819,-0.223123908753,0.149918959958,-0.00811183634068,-0.000343773710228,-0.00666773098201,0.00342056056606,0.0183918574624,-0.007987723913,-2.69470191002,0.540510773659,-1.21454405785,-0.226866900921,-1.29750430584,0.633154153824
2017/07/09/10:00:04.056015,398872,1499565606,859680807,,0.705733322219,-0.158121178745,0.233448369592,0.772162995375,0.575811136558,-0.222925947443,0.15003288155,-0.00923766942129,-0.00428675277757,0.0037433029389,0.00381982997234,0.0142256418633,-0.0132940366696,-3.30505156517,0.689626276493,-1.52669513226,-0.221630856395,-1.50707387924,0.798073649406
2017/07/09/10:00:04.065889,398873,1499565606,869676758,,0.705347150994,-0.159128595706,0.23350801347,0.772218508247,0.575118368881,-0.224100290612,0.150653566314,-0.0135336840261,-0.0136898125571,-0.0107533068749,0.00515911063985,0.0139204136175,-0.0273766166223,-3.1548306942,0.673106074333,-1.37638020515,-0.237312674522,-1.48300361633,0.760831236839
2017/07/09/10:00:04.076171,398874,1499565606,879682469,,0.705357471568,-0.158388314078,0.232741260399,0.772116880318,0.575718711204,-0.223562252367,0.149677680413,0.00240145727744,0.00521642231658,-0.01813580888,0.00955518671353,0.0143709692986,0.00790611428874,-2.69516444206,0.319325059652,-0.990157961845,-0.0683734863997,-1.31009542942,0.668232142925
2017/07/09/10:00:04.085827,398875,1499565606,889679031,,0.705147769735,-0.158948975884,0.233289378218,0.772577173594,0.575001350234,-0.223616591164,0.149978592563,-0.000450239354157,-0.000713190149664,-0.00348490526633,0.00794231689645,0.00739705361763,0.0030474542414,-3.46454668045,0.643482089043,-1.30285608768,-0.256421625614,-1.55833411217,0.814032196999
2017/07/09/10:00:04.095910,398876,1499565606,899681527,,0.705515916352,-0.15800918901,0.232232258417,0.772314834154,0.575730098434,-0.223083718664,0.149326170416,-0.00642812596063,-0.000995403039277,-0.0251831820894,0.0123816,0.0301452128697,0.000938980681996,-3.11489486694,0.502904713154,-1.68651366234,-0.218564406037,-1.40573203564,0.73215675354
2017/07/09/10:00:04.106145,398877,1499565606,909680915,,0.705696916217,-0.158157092691,0.232190876157,0.771904522992,0.576045003518,-0.223460979804,0.149668807076,-0.0171099963289,-0.0213279716205,-0.0239874035297,0.00804021198714,0.0271627905259,-0.0289174103192,-2.24564027786,1.33134484291,-1.55690348148,-0.380619466305,-1.23795521259,0.6444247365
2017/07/09/10:00:04.116018,398878,1499565606,919694602,,0.705426937038,-0.15757962937,0.231730332087,0.772114839026,0.575929352429,-0.223440430335,0.149058479995,0.0143986185103,0.022046309582,-0.0101005531127,0.00499631462981,0.0042827197686,0.0276609879977,-2.68102407455,0.844572305679,-2.03195118904,-0.336643397808,-1.24910914898,0.627615988255
2017/07/09/10:00:04.126199,398879,1499565606,929675942,,0.705088908383,-0.158551808165,0.232780800117,0.772299434567,0.575401280751,-0.223791593458,0.149613743267,0.00395297781431,-0.00137384706281,0.00392327104135,-0.0139993758526,-0.00505575420571,0.00755750099104,-3.46918654442,0.349373936653,-1.33119726181,-0.163526833057,-1.47008895874,0.752283096313
2017/07/09/10:00:04.136042,398880,1499565606,939682210,,0.705627407041,-0.158244657597,0.232720220302,0.772342154229,0.575406753945,-0.223447039122,0.149886907444,-0.0165472986588,-0.00458629023596,-0.0126702245354,-0.00175354227487,0.0484152321382,-0.00868723437379,-3.16197657585,0.461313635111,-0.915227890015,-0.146253526211,-1.48779511452,0.738185822964
2017/07/09/10:00:04.146137,398881,1499565606,949676932,,0.70576677845,-0.157371020403,0.231883561866,0.772028997379,0.576088335842,-0.223198442733,0.149251169758,-0.00715258013449,-0.0027209999012,0.000965711031392,0.0160809357836,0.0112188536111,-0.00607581500867,-1.98305106163,0.841008365154,-1.47072148323,-0.263686180115,-1.13843691349,0.547816991806
2017/07/09/10:00:04.156090,398882,1499565606,959678963,,0.705428403099,-0.158320841892,0.232230434031,0.77219749483,0.575579671234,-0.223661767428,0.149647869453,0.00567889364636,0.0222783258082,-0.0140325354509,0.01965006511,0.0210028918906,0.0258335756111,-1.62051153183,0.374871730804,-1.35409259796,-0.159432917833,-1.00620162487,0.456409156322
2017/07/09/10:00:04.165992,398883,1499565606,969677017,,0.705479360691,-0.157460321578,0.231687141592,0.771790895118,0.576282966871,-0.223707341651,0.148969062555,-0.00792044557748,-0.0093210099372,-0.0125474109117,-0.00302759521158,0.0212461310156,-0.00920452334668,-1.83129942417,0.527802050114,-1.57488512993,-0.153320878744,-1.02929604053,0.496483981609
2017/07/09/10:00:04.176162,398884,1499565606,979682939,,0.705533465491,-0.158050224473,0.231965665703,0.772060765406,0.575771636331,-0.223720372714,0.149527228792,-0.0076349470382,-0.0148778960464,-0.00792248134336,-0.00943152309336,0.00122136636064,-0.0426185251296,-2.42654776573,0.0878481715918,-1.28731930256,-0.183115705848,-1.20438575745,0.602076292038
2017/07/09/10:00:04.185864,398885,1499565606,989678328,,0.705138860512,-0.157722990991,0.231671080348,0.772210029759,0.575769379341,-0.223694925342,0.148801452043,0.00847424445588,0.0076704324612,-0.012099546259,0.0244342698934,-0.00768197642018,0.00881528924769,-2.97906541824,0.803824663162,-1.4537576437,-0.30847042799,-1.36586916447,0.696814715862
2017/07/09/10:00:04.199858,398886,1499565606,999682642,,0.705104064676,-0.158479059477,0.231279829106,0.772154273928,0.575750560801,-0.223847541728,0.148934035917,0.0062536614307,0.0192783433782,-0.0152781260136,0.0316496220864,0.00481356327228,0.0103523908628,-3.55487108231,0.119649350643,-1.37337565422,-0.21326225996,-1.5359402895,0.793872833252
2017/07/09/10:00:04.206152,398887,1499565607,9680344,,0.705171351239,-0.158104268856,0.231205250302,0.772368006846,0.575632836625,-0.22353710175,0.148746978259,-0.000232608668014,0.000765318959366,-0.0173199757299,0.0124495681594,0.00910537372016,0.00529538453045,-4.16272878647,0.527445912361,-1.47897517681,-0.376656323671,-1.70978784561,0.895130813122
2017/07/09/10:00:04.215957,398888,1499565607,19682587,,0.704930035246,-0.157557807687,0.230739473347,0.772279124252,0.576013071345,-0.223391436368,0.147953242754,-0.0117950403688,-0.00914820315597,-0.0238343136101,0.0126294158693,0.0247182898289,-0.0253863145752,-3.04615926743,0.217568039894,-1.3444070816,-0.172178089619,-1.32159376144,0.659978628159
2017/07/09/10:00:04.225879,398889,1499565607,29678151,,0.70568986719,-0.158235737269,0.231471126469,0.772060780991,0.575907330078,-0.223456545585,0.149399028958,0.0065284477497,0.006220084829,-0.00170646593305,-0.00915709063485,0.00570853495993,0.0270288638539,-2.25684261322,0.365315377712,-1.08190405369,-0.210422635078,-1.16105353832,0.564808547497
2017/07/09/10:00:04.235995,398890,1499565607,39681014,,0.705338057323,-0.15796513283,0.231139029878,0.771910398236,0.576164714211,-0.22369044743,0.148832600333,-0.00158191676995,-0.01035557321,-0.000802035686997,-0.00155798616334,-0.0166070622236,-0.0142139838651,-2.92231297493,0.727556943893,-1.39109325409,-0.282134473324,-1.34014511108,0.676768958569
2017/07/09/10:00:04.246043,398891,1499565607,49673789,,0.704893755952,-0.158651787144,0.231169406095,0.772178945852,0.57574450215,-0.223881526911,0.148778377913,-0.00536248068847,-0.000449058691018,-0.00491782034737,0.0051910157525,0.0156037594791,-0.00826855234441,-2.628926754,-0.16787545383,-1.05725622177,-0.0720833018422,-1.2122323513,0.571959733963
2017/07/09/10:00:04.256128,398892,1499565607,59684239,,0.705316069341,-0.158301706624,0.231135713372,0.771910274468,0.576071995148,-0.223835944409,0.148973335089,-0.0161787604656,-0.00453448204914,-0.0130017970664,0.0129227354105,0.0409576404104,-0.00668769803156,-2.28976345062,0.278041541576,-1.00465595722,-0.215714156628,-1.14257848263,0.526877582073
2017/07/09/10:00:04.266075,398893,1499565607,69676999,,0.704824662677,-0.158371349106,0.231059276561,0.772367372423,0.575483935916,-0.224019833511,0.148600120168,-0.0088176440794,-0.00248889166899,-0.00874488011557,-0.0101198323374,0.0256770640579,-0.0122534442987,-1.92365944386,0.0782284140587,-0.877596080303,-0.0696571916342,-0.994361460209,0.444931417704
2017/07/09/10:00:04.276354,398894,1499565607,79680951,,0.705516905236,-0.157335171473,0.230948792379,0.772152007718,0.576133019496,-0.223230146694,0.148392460826,-0.00823509970499,-0.000374929412083,-0.00560631498657,-0.00254115995161,0.0120498691374,-0.0319388819216,-1.62216186523,0.415023833513,-0.734196722507,-0.198825895786,-0.973715543747,0.416671454906
2017/07/09/10:00:04.285991,398895,1499565607,89675199,,0.705001311718,-0.158515170631,0.231413263827,0.771953923595,0.575777445536,-0.224333316437,0.149137641781,0.00556047980915,0.0130028488777,-0.0103975498102,0.0309902283111,0.000685917263319,0.00966456653508,-1.93431913853,0.0558637678623,-0.888850748539,-0.108647979796,-1.02313673496,0.469143927097
2017/07/09/10:00:04.296035,398896,1499565607,99682614,,0.705060497453,-0.15805356795,0.23067757015,0.772205084357,0.575868215668,-0.223739102054,0.148377626644,0.0169651536737,0.00350845686522,-0.00388469101929,0.00856162523973,-0.0265313073754,0.0307953643213,-2.46231365204,-0.0808716118336,-0.814248621464,-0.0286892130971,-1.17309916019,0.518803119659
2017/07/09/10:00:04.306113,398897,1499565607,109675174,,0.704582156364,-0.158335656759,0.23047063908,0.772188857634,0.575751409685,-0.224228657596,0.148176217744,0.0042805256925,-0.0047068933505,-0.00868994110248,0.00667422868541,-0.0218721671693,-0.00712520116068,-2.58705210686,0.371211320162,-1.13051974773,-0.247160434723,-1.14007818699,0.529380261898
2017/07/09/10:00:04.315988,398898,1499565607,119678663,,0.704963587839,-0.158584028757,0.230658625795,0.77214901148,0.575753401222,-0.224010054089,0.148705819387,-0.00604878383275,-0.0175315677857,0.00119308817179,-0.0122485284025,-0.000669346870418,-0.00373418930523,-2.73780345917,0.638454914093,-1.03134834766,-0.252780139446,-1.23990511894,0.595461606979
2017/07/09/10:00:04.326348,398899,1499565607,129679319,,0.705601760864,-0.157337856806,0.231069263804,0.77231917801,0.575904075183,-0.223073017948,0.148647274206,0.00924312983501,0.0106366207598,-0.0030152087629,0.000900672784394,0.000389817956667,0.0230762733118,-2.7629609108,0.994061172009,-0.685230076313,-0.275806605816,-1.27388989925,0.623848617077
2017/07/09/10:00:04.336076,398900,1499565607,139681733,,0.704877558661,-0.158427709565,0.230756359451,0.772269387685,0.575696814224,-0.22390487513,0.148458000226,0.00684171966145,0.00921238953935,-0.00318405194649,0.00660528692169,0.00598383444135,0.020103185581,-3.2446846962,0.184728682041,-1.0950949192,-0.158828362823,-1.35712718964,0.685035407543
2017/07/09/10:00:04.346342,398901,1499565607,149681368,,0.705058805024,-0.158618387977,0.230691746383,0.772338153247,0.575548854457,-0.223867742592,0.148729711222,-0.0110658812623,-0.0159939157301,-0.00853567997845,0.00304101371658,0.00105215119535,-0.0381144745351,-2.77630519867,-0.087621152401,-0.632599651814,-0.0781020596623,-1.24022054672,0.562002360821
2017/07/09/10:00:04.356302,398902,1499565607,159683685,,0.705133473591,-0.15816251454,0.230652012148,0.772014342825,0.575995317125,-0.223989171854,0.148499495001,-0.00583518954823,-0.000147487509507,-0.0141685002494,0.00278487956724,0.0193363639061,-0.002208174329,-2.65938639641,0.798987329006,-0.718586862087,-0.227623462677,-1.23391366005,0.632507383823
2017/07/09/10:00:04.366632,398903,1499565607,169684439,,0.704773902956,-0.158851838193,0.230802892644,0.772339454983,0.575494272081,-0.224051553745,0.148657358858,-0.00473331100744,0.00650266725895,-0.00658752623566,0.00581708520183,0.0321708708647,0.0147802685394,-2.3598446846,0.240236312151,-0.507502377033,-0.163489818573,-1.12145018578,0.483947306871
