time,.header.seq,.header.stamp.secs,.header.stamp.nsecs,.header.frame_id,.pose.position.x,.pose.position.y,.pose.position.z,.pose.orientation.x,.pose.orientation.y,.pose.orientation.z,.pose.orientation.w,.twist.linear.x,.twist.linear.y,.twist.linear.z,.twist.angular.x,.twist.angular.y,.twist.angular.z,.wrench.force.x,.wrench.force.y,.wrench.force.z,.wrench.torque.x,.wrench.torque.y,.wrench.torque.z
2017/07/09/10:01:08.365201,405303,1499565671,168931038,,0.786141081628,0.392962570821,0.166964496158,0.625659541651,0.777289813545,0.0566787464651,0.0340323875035,0.0411888509608,-0.046084738275,-0.000983800593883,0.0291484376904,-0.0540336733215,-0.0808254600994,0.773472249508,1.55698359013,-0.459939360619,-0.520705521107,0.642188072205,-0.189580261707
2017/07/09/10:01:08.375357,405304,1499565671,178920542,,0.786845489798,0.392585506069,0.167676504111,0.626205571102,0.776786293712,0.0573317952214,0.0343904329577,0.0388398308153,-0.0648599340296,0.00847234600093,0.0235754476878,-0.057573450309,-0.103833029189,0.789574623108,1.6456515789,-0.108590438962,-0.677914261818,0.677568852901,-0.241833865643
2017/07/09/10:01:08.385111,405305,1499565671,188918925,,0.787151021649,0.392261483787,0.167622721698,0.626385800757,0.776602910354,0.0578293261337,0.0344168168069,0.0561953868688,-0.0730893837256,0.0245894752592,0.0289627580231,-0.0974508995709,-0.12352638457,0.52967941761,1.50630795956,-0.0293837152421,-0.658878684044,0.55541062355,-0.28447496891
2017/07/09/10:01:08.395128,405306,1499565671,198914027,,0.787801409121,0.390448293054,0.167688246042,0.627501233705,0.775680129077,0.057838053464,0.034889806899,0.0460840466993,-0.091399347358,0.00782985326658,0.0201905263323,-0.0581406997219,-0.145678405728,0.356687903404,1.61735570431,0.180513814092,-0.679221093655,0.519431829453,-0.254741132259
2017/07/09/10:01:08.405287,405307,1499565671,208915530,,0.787990242105,0.389096437255,0.167404844134,0.627986125552,0.77530781953,0.05741189855,0.0351437760524,0.0495880777274,-0.0774126465093,0.00897247110015,0.0231295244589,-0.0781878930422,-0.125290933868,-0.212753266096,1.60360276699,0.269234508276,-0.684318065643,0.300920903683,-0.284439265728
2017/07/09/10:01:08.415203,405308,1499565671,218912411,,0.789029401097,0.388848492498,0.167931849212,0.628221380861,0.775017223159,0.058415907088,0.0356900859515,0.0569243313549,-0.0892235194599,0.00752373497775,0.0013726863069,-0.0863606895795,-0.135958593621,0.609524428844,2.40037035942,0.379421651363,-1.10077321529,0.613397359848,-0.381254732609
2017/07/09/10:01:08.425248,405309,1499565671,228918729,,0.789072324338,0.388624855455,0.167910799219,0.628448365374,0.774816750003,0.0585474137103,0.0358309408264,0.0645533664348,-0.0892269826534,0.0253576280497,-0.0192944208718,-0.114227733317,-0.126493399707,1.63240110874,2.6985681057,1.05638623238,-1.25445866585,1.02192163467,-0.326059788465
2017/07/09/10:01:08.435181,405310,1499565671,238917156,,0.790135173408,0.387376849564,0.168328378385,0.629070903117,0.774255113007,0.0588775631639,0.0365000190291,0.0728315271128,-0.0913201855801,0.0245747715263,0.00685247673994,-0.120888878927,-0.126034846485,2.21093773842,2.14578771591,1.56674313545,-1.04393279552,1.27277541161,-0.27569887042
2017/07/09/10:01:08.445027,405311,1499565671,248916479,,0.790307163713,0.386091038197,0.168619244106,0.629972451307,0.773530162995,0.058720547419,0.036574510817,0.0691817536959,-0.132848616534,0.0276166769292,-0.0247329463962,-0.0968083810811,-0.181850051707,2.432980299,1.71302545071,1.50633621216,-0.819194614887,1.36220300198,-0.236688837409
2017/07/09/10:01:08.455138,405312,1499565671,258919624,,0.791431527009,0.383855814744,0.168980154277,0.630878265314,0.772756667427,0.058490791957,0.0376639689585,0.0651652614269,-0.154421954544,0.0317571312891,-0.0459820400814,-0.0772756752203,-0.217555499429,0.832989215851,1.42677557468,0.663555085659,-0.663682103157,0.457915276289,-0.259060889482
2017/07/09/10:01:08.465271,405313,1499565671,268913152,,0.792658022074,0.381820612806,0.169059407927,0.631790824038,0.771924451799,0.0590193840348,0.0385967315158,0.0805911089047,-0.150001103709,0.0345000879823,-0.0503480206222,-0.110414446948,-0.226890686183,0.469434678555,1.55874681473,0.298043698072,-0.670347988605,0.196248069406,-0.284898847342
2017/07/09/10:01:08.475226,405314,1499565671,278923025,,0.793712197402,0.381651212509,0.170067872868,0.632254488804,0.771424790821,0.0600089933292,0.0394585125702,0.111800878232,-0.153899954847,0.0546254230397,-0.0164262127978,-0.202576868107,-0.228083410427,1.24081265926,1.56172728539,0.458856523037,-0.619183003902,0.614083945751,-0.224799245596
2017/07/09/10:01:08.484900,405315,1499565671,288918555,,0.794543774523,0.380573559542,0.170369723707,0.632814806916,0.770879978378,0.0607236467099,0.040026463933,0.126484140141,-0.122077118819,0.0562887617445,0.0228980630962,-0.243889211395,-0.219527406787,1.98433113098,1.71798837185,0.611759483814,-0.771302640438,0.996381103992,-0.231706112623
2017/07/09/10:01:08.495168,405316,1499565671,298919297,,0.796312482261,0.378313594125,0.171112803054,0.634036356132,0.769742682036,0.0614182924248,0.0414957336498,0.131028349664,-0.147307278277,0.0525594459036,0.0124087480377,-0.245019960595,-0.254875069994,2.20333337784,1.71516859531,0.540439248085,-0.72909873724,1.13365280628,-0.218794897199
2017/07/09/10:01:08.505155,405317,1499565671,308919004,,0.797293752778,0.376533605412,0.171579068283,0.635196935264,0.768708717641,0.061936443593,0.0421383175958,0.12755150469,-0.152493145476,0.0499495962234,0.00111419029969,-0.234945431779,-0.239190560656,2.69761276245,1.84735965729,0.113453865051,-0.809462666512,1.23203837872,-0.243259429932
2017/07/09/10:01:08.515090,405318,1499565671,318913096,,0.798198435961,0.375370098017,0.172039871981,0.635465523904,0.768416458102,0.0622990157104,0.042878286917,0.120273012068,-0.159975996589,0.0700513020613,-0.0278634520295,-0.226127424262,-0.227208983938,1.8158005476,1.56327581406,-0.161676734686,-0.646399199963,0.795273303986,-0.222419783473
2017/07/09/10:01:08.525246,405319,1499565671,328920844,,0.799373866604,0.374062758686,0.172911259952,0.636521721412,0.767434080174,0.0630464381791,0.0437055762081,0.107736430035,-0.152999005271,0.0682181182292,-0.0195100492144,-0.193956458143,-0.234329610294,1.27447354794,0.258558422327,-0.0981176793575,-0.00990948826075,0.621245503426,-0.0948734283447
2017/07/09/10:01:08.535302,405320,1499565671,338921032,,0.800797900513,0.37199386351,0.173736561827,0.637505703639,0.766495291446,0.0637265376812,0.0448371989996,0.120308030712,-0.173547318224,0.0813612379205,0.00424053572937,-0.226862883034,-0.27461553727,1.27015948296,-1.12480342388,0.042501501739,0.639703571796,0.676708340645,0.0975263789296
2017/07/09/10:01:08.545100,405321,1499565671,348920095,,0.801792346942,0.369832510444,0.174107092301,0.638992575915,0.765178275024,0.0642861698214,0.0453650055284,0.123572620408,-0.202892795162,0.0755148075203,0.00203811448059,-0.22268933134,-0.294022656629,1.57824337482,-1.38897311687,0.244659349322,0.824378669262,0.818232238293,0.157512098551
2017/07/09/10:01:08.555243,405322,1499565671,358920980,,0.802628685449,0.368463737972,0.174802494231,0.639592308383,0.764603799461,0.0646994313973,0.0460075263865,0.11552126963,-0.205074877962,0.056764824405,0.00928479817171,-0.179683485279,-0.299667459629,2.07243728638,-0.599752783775,0.138585448265,0.423617959023,0.973256230354,0.058740645647
2017/07/09/10:01:08.565386,405323,1499565671,368917660,,0.803576457296,0.36668179673,0.175309235202,0.640855799576,0.763466210318,0.0653503301083,0.0463953037235,0.0929557257162,-0.202757522606,0.0598785478412,0.0254808566456,-0.144660294824,-0.302438593059,2.14587903023,0.530208408833,0.274329125881,-0.279732942581,0.974926173687,-0.149698168039
2017/07/09/10:01:08.575156,405324,1499565671,378917966,,0.804515992036,0.364865132903,0.176205391188,0.641641740479,0.762739498799,0.0656456802208,0.0470635582454,0.0905408579053,-0.193280516789,0.0668938289885,0.021224443057,-0.13670413129,-0.321914020395,1.33398962021,1.3573577404,0.126800075173,-0.661893963814,0.604336559772,-0.266251862049
2017/07/09/10:01:08.585199,405325,1499565671,388916643,,0.804874040868,0.363329025893,0.176579490703,0.64241727108,0.762047104346,0.0657360915752,0.0475712816734,0.0880994074784,-0.177053597092,0.0772014251404,0.011499275264,-0.142109227262,-0.278022389079,0.425193876028,1.31281864643,0.0594908706844,-0.699342370033,0.214271843433,-0.286675959826
2017/07/09/10:01:08.595871,405326,1499565671,398920381,,0.806497079676,0.360871400578,0.178040816649,0.643867459875,0.760677270147,0.0664061479364,0.0489388221376,0.0959369451703,-0.182686515881,0.075597705811,0.00573848379442,-0.155705003512,-0.275502724,1.05921161175,1.29779231548,-0.0269513148814,-0.579254209995,0.499228388071,-0.240667998791
2017/07/09/10:01:08.604913,405327,1499565671,408916174,,0.807091393051,0.358615362921,0.178115254556,0.644937673279,0.75974854112,0.0665074119428,0.0491356897572,0.0996114752528,-0.225432631725,0.0723794629588,-0.0433822300941,-0.159391005031,-0.305413658222,1.6075886488,1.1746635437,-0.0508813261986,-0.413360029459,0.720177531242,-0.146514967084
2017/07/09/10:01:08.615082,405328,1499565671,418912603,,0.807830698018,0.356768543956,0.178385395212,0.645864338875,0.758914730091,0.0667630495751,0.0495013477812,0.0830737666186,-0.221111704059,0.055618496854,-0.0202059483725,-0.110401953996,-0.302657655831,2.28995227814,1.17361593246,-0.0488478653133,-0.393693983555,0.968352437019,-0.156925693154
2017/07/09/10:01:08.625107,405329,1499565671,428920944,,0.808477673286,0.355426403166,0.179136143395,0.646570694679,0.758248596779,0.0672910024463,0.0497727159691,0.0804457937709,-0.210836742532,0.0558313454431,-0.0119171390945,-0.107334399778,-0.28624911503,2.76056647301,0.752165675163,-0.180501297116,-0.0743390917778,1.13033556938,-0.039266847074
2017/07/09/10:01:08.635108,405330,1499565671,438920781,,0.809650014057,0.352111124742,0.179679957477,0.648205772219,0.756777820652,0.0673088507889,0.0508539638118,0.107404685979,-0.240486441107,0.084446999345,-0.0109776497888,-0.174022148421,-0.338033105799,2.48474097252,0.73562592268,-0.363480567932,-0.185408771038,0.935781478882,-0.116917453706
2017/07/09/10:01:08.645167,405331,1499565671,448912997,,0.810194205399,0.349750608551,0.180218762934,0.649527227851,0.755628483177,0.067455538823,0.0508893502914,0.0912983539516,-0.233126800516,0.0669515993177,0.00201533643298,-0.131307354617,-0.332910626623,2.203104496,0.904505848885,-0.503085315228,-0.265496641397,0.763705253601,-0.133867666125
2017/07/09/10:01:08.655424,405332,1499565671,458914888,,0.811002744408,0.347965073872,0.180441969488,0.650610707302,0.754635414512,0.0678919215136,0.0512033758799,0.0770548859148,-0.238400709319,0.0533939826184,0.00985776001586,-0.0831834440728,-0.368450871402,2.31916117668,0.85210865736,-0.51111805439,-0.214594334364,0.788170099258,-0.0861614570022
2017/07/09/10:01:08.665093,405333,1499565671,468918096,,0.811595748111,0.345809855603,0.181063351467,0.651578654933,0.753765573479,0.0677780031335,0.0518542087367,0.0768247152601,-0.235452475081,0.0515270007974,0.0108560936477,-0.0876630927045,-0.358375977089,2.56379723549,0.819229125977,-0.629846870899,-0.237986207008,0.832747280598,-0.105190739036
2017/07/09/10:01:08.675054,405334,1499565671,478921536,,0.812721880489,0.342933491993,0.18185465458,0.65317645865,0.752294520434,0.0680669683507,0.0527290831438,0.0731421069991,-0.228338248007,0.0471553861075,0.00104986131121,-0.0793834883352,-0.323890621396,2.85468697548,0.875770449638,-0.556838333607,-0.224243566394,0.911656558514,-0.0764187350869
2017/07/09/10:01:08.684977,405335,1499565671,488952666,,0.813828253278,0.341042369418,0.182705153347,0.654200174065,0.751292859046,0.0689067250444,0.0532262664865,0.0897591466354,-0.245524222946,0.0539448470191,0.00671016213725,-0.116391072946,-0.351533097046,3.1729054451,1.00701415539,-0.42479711771,-0.264944672585,1.03860425949,-0.11322632432
2017/07/09/10:01:08.695115,405336,1499565671,498919938,,0.814553553685,0.338056492856,0.183102325667,0.655598265926,0.750036281911,0.0688049989533,0.0538735709853,0.0814960519438,-0.253965545486,0.0461074564796,0.00327734950111,-0.0992062944163,-0.349534736467,3.47582983971,1.06957066059,-0.387954503298,-0.319293886423,1.13288927078,-0.134559854865
2017/07/09/10:01:08.705003,405337,1499565671,508917101,,0.815053213249,0.335876108866,0.18321404451,0.656869331604,0.748897118067,0.069101811117,0.0538584018466,0.089908824082,-0.277756952449,0.0611336744543,-0.00758763287886,-0.11802180382,-0.396916899497,2.47964692116,0.598293125629,-0.463580071926,-0.112803258002,0.705685555935,-0.0838279724121
2017/07/09/10:01:08.715133,405338,1499565671,518920077,,0.816088706688,0.33288565846,0.18383646463,0.658297586771,0.747556242761,0.0693826044744,0.0546809414408,0.0934422856304,-0.253570091316,0.0604378785474,0.0304097875142,-0.136467750994,-0.373250551872,2.3242149353,0.625236332417,-0.307472139597,-0.0893746614456,0.678481280804,-0.0834062322974
2017/07/09/10:01:08.725135,405339,1499565671,528921352,,0.817423942371,0.330455319034,0.185001629391,0.660025320903,0.745884731313,0.0704131717103,0.0553581846778,0.0807724911975,-0.264012707368,0.0555379701495,0.0308587712525,-0.107496226024,-0.383381494142,2.48955106735,0.693260729313,-0.378405362368,-0.218174502254,0.749311208725,-0.0992309898138
2017/07/09/10:01:08.734921,405340,1499565671,538920455,,0.818226234516,0.328307450059,0.185204549754,0.660923621892,0.745010405218,0.070884733335,0.0558105431033,0.0910451608605,-0.263343030805,0.049060753533,0.032696121648,-0.138992380077,-0.39038905814,2.01505708694,0.730954229832,-0.103382661939,-0.17002800107,0.651345670223,-0.0928796902299
2017/07/09/10:01:08.745317,405341,1499565671,548913101,,0.818797030494,0.325450386865,0.185941541319,0.662622277466,0.743451868241,0.0712188296761,0.0560260235434,0.0975885032969,-0.269227239048,0.0543707893662,0.0243223527632,-0.15089950811,-0.388351439253,1.82747101784,0.836429238319,-0.134363591671,-0.276165962219,0.538355886936,-0.134421631694
2017/07/09/10:01:08.755165,405342,1499565671,558926489,,0.819681665145,0.322206348359,0.18602018825,0.663669756486,0.742475026058,0.0709497032586,0.0569159873335,0.0812649847244,-0.29089147393,0.0404883329037,0.0062847248681,-0.103358011554,-0.391890186623,1.51546943188,0.524981617928,-0.115442752838,-0.091588050127,0.452632278204,-0.0872801318765
2017/07/09/10:01:08.765188,405343,1499565671,568943698,,0.819853378363,0.320307163545,0.185712291482,0.665068902808,0.74123986512,0.0710265098997,0.0565866748087,0.0751913039532,-0.288441182281,0.0372840267035,0.0140997696631,-0.0940225469422,-0.372728222079,1.09321451187,0.599658370018,-0.0450361669064,-0.15572360158,0.270426601171,-0.122437596321
2017/07/09/10:01:08.775135,405344,1499565671,578916475,,0.820951123708,0.31721955937,0.186888823822,0.666704835619,0.739631183623,0.0718035832111,0.0573987788402,0.0838770486575,-0.292979962538,0.0611344166401,0.0260205045906,-0.12729248223,-0.422555889699,0.975470006466,0.598202824593,0.0646522343159,-0.186666488647,0.267226904631,-0.117131717503
2017/07/09/10:01:08.785155,405345,1499565671,588917543,,0.821712214035,0.314608614413,0.187037843699,0.668074031369,0.738345906864,0.0720673156597,0.0576949949444,0.0832386515837,-0.291117038173,0.0561766710599,0.0209209366801,-0.126921949082,-0.419949682493,0.669841706753,0.634529769421,0.116757139564,-0.207263559103,0.123453125358,-0.170857384801
2017/07/09/10:01:08.795181,405346,1499565671,598921743,,0.822772517884,0.310978414138,0.187926176775,0.669745281378,0.736715573609,0.0724140902487,0.0587164475059,0.0616451405838,-0.293760909607,0.0276184059729,0.0287155518218,-0.0732388979539,-0.414564656128,0.250797390938,-0.408100873232,0.450639635324,0.0210731774569,-0.0836259052157,-0.0843938142061
2017/07/09/10:01:08.805079,405347,1499565671,608920672,,0.822753391967,0.308998958773,0.187977485835,0.670987700798,0.735600185784,0.0724844790153,0.058428352312,0.0754782117718,-0.319955267934,0.0550665012585,-0.00294296410083,-0.123201514706,-0.418519089051,0.313721954823,-0.140263915062,0.35661816597,-0.0486044511199,-0.0052201487124,-0.116873562336
2017/07/09/10:01:08.815051,405348,1499565671,618920347,,0.823581861554,0.30568638542,0.188665368339,0.672325630146,0.734289705503,0.0725961519373,0.0593858077785,0.0638305443472,-0.302115908943,0.0447906442843,0.011670942653,-0.0984405926437,-0.422178169292,0.506577551365,0.292645871639,0.430022656918,-0.178311273456,0.0914504155517,-0.118057690561
2017/07/09/10:01:08.825353,405349,1499565671,628918002,,0.824837321539,0.302203391353,0.189548212077,0.674033317567,0.732547626397,0.0735356437789,0.0603785637701,0.0624680461961,-0.318293271602,0.0440823005889,-0.0271530585933,-0.100152355518,-0.408796123031,0.623434603214,0.342004239559,0.600869059563,-0.210115149617,0.146721348166,-0.150840833783
2017/07/09/10:01:08.834977,405350,1499565671,638920662,,0.825557814717,0.298908645179,0.189529057577,0.67556992546,0.731082703644,0.0735793294157,0.0609051601158,0.071809976444,-0.326954175973,0.0403624563606,-0.00599620666927,-0.124365613736,-0.440231951193,-0.125191152096,-0.0114848166704,0.419687271118,-0.0769157633185,-0.0925292372704,-0.140467822552
2017/07/09/10:01:08.845224,405351,1499565671,648913282,,0.825580592226,0.294566471327,0.189221171985,0.677306537068,0.729524217373,0.0728414518218,0.0611914537175,0.0635334763677,-0.352445390124,0.033252892845,-0.00963217703995,-0.102869506276,-0.469487388928,-0.656421244144,-0.175275862217,0.273746728897,0.0677823722363,-0.283766448498,-0.0590200461447
2017/07/09/10:01:08.855119,405352,1499565671,658914722,,0.82586327905,0.292618444188,0.189528059978,0.678508337622,0.728382918547,0.0730170280731,0.0612639645991,0.0548054008746,-0.336834647799,0.0337066704473,-0.022351439145,-0.0871988216563,-0.433993353754,-0.875007748604,-0.0995957255363,0.323392033577,0.054499514401,-0.356280386448,-0.0892202109098
2017/07/09/10:01:08.865424,405353,1499565671,668914009,,0.826888782329,0.288488729736,0.190681667831,0.680456678399,0.72641925561,0.0735363224403,0.0623392587577,0.0559822326074,-0.34645064868,0.047474137033,-0.0165880317671,-0.0978110681736,-0.463637083379,-1.19784164429,-0.261387646198,0.218371331692,0.172907024622,-0.509096562862,-0.0409548208117
2017/07/09/10:01:08.875119,405354,1499565671,678919158,,0.827432494969,0.285943204472,0.191316054771,0.681431464722,0.7254248368,0.0737900800945,0.0629681595694,0.052075219899,-0.347826779439,0.0418002641386,-0.0162211759977,-0.0866845574567,-0.450760746403,-1.14729714394,-0.280817240477,0.567414939404,0.159032672644,-0.507005870342,-0.0457009971142
2017/07/09/10:01:08.885022,405355,1499565671,688923290,,0.827603991129,0.282444016969,0.191075302095,0.68300527778,0.723970758307,0.0734741265889,0.0630213008641,0.0562346323435,-0.348456630516,0.047555614933,0.00505923641061,-0.0964645205596,-0.473596078255,-1.02814054489,-0.38296893239,0.330848425627,0.230306908488,-0.443830758333,-0.00824607908726
2017/07/09/10:01:08.895104,405356,1499565671,698921835,,0.828182180462,0.279542657331,0.192005349945,0.684901525223,0.722069194624,0.074168684115,0.0634427712082,0.0401781310125,-0.34818861337,0.0295794584588,0.00428946518674,-0.0577206819999,-0.464917458382,-0.795850098133,-0.324353426695,0.479321151972,0.193639785051,-0.37669685483,-0.0414251200855
2017/07/09/10:01:08.905190,405357,1499565671,708917081,,0.828799182707,0.275440023772,0.191905049545,0.686309894272,0.720700361132,0.0740027902819,0.0639789459073,0.050196506396,-0.34495246109,0.0402822924012,0.0199603329369,-0.0949192925377,-0.46999740259,-1.36849200726,-0.78859680891,0.515330731869,0.296692281961,-0.582519948483,-0.00571871548891
2017/07/09/10:01:08.915144,405358,1499565671,718921725,,0.82905034214,0.272036793968,0.192115795183,0.68802391985,0.718997071658,0.0742708545651,0.0644215555801,0.0465897567476,-0.362815524185,0.0359397268604,0.00962811107946,-0.0840823731224,-0.482929012894,-1.40734779835,-0.292153537273,0.27448657155,0.0758551210165,-0.59382635355,-0.103966847062
2017/07/09/10:01:08.925255,405359,1499565671,728924990,,0.829462110336,0.268845704753,0.192508903374,0.689764044943,0.717296295238,0.0743066525969,0.0647310475838,0.0333007938441,-0.362698023742,0.0196090692627,0.00527380393172,-0.060228511179,-0.470214809393,-1.30960679054,0.202140673995,0.601122319698,-0.175378218293,-0.505928456783,-0.184241771698
2017/07/09/10:01:08.935130,405360,1499565671,738919863,,0.82954339432,0.265738967117,0.192656293329,0.690712941511,0.716381233607,0.0740234891009,0.0650698365317,0.0427385855769,-0.335434047704,0.0358758838994,0.00607630051719,-0.0872532606523,-0.451744318669,-0.504899978638,1.72510647774,0.506874144077,-0.974506735802,-0.169711261988,-0.418764770031
2017/07/09/10:01:08.945123,405361,1499565671,748920157,,0.830096881761,0.262791349862,0.193248777623,0.692543402094,0.714513848577,0.0745824384398,0.0655061545507,0.0410469433363,-0.350046357998,0.0336934701368,-0.0103205431853,-0.085688597066,-0.464378131881,-1.2499089241,2.29373121262,0.63304746151,-1.23707318306,-0.431319475174,-0.530685663223
2017/07/09/10:01:08.955197,405362,1499565671,758921390,,0.830450335487,0.258296581071,0.193964244475,0.694429340388,0.712627114439,0.0743970889362,0.0662990206,0.0366900353256,-0.369018681544,0.0515558019072,-0.0080170919725,-0.0911790033208,-0.503394744703,-1.58794045448,1.62610030174,0.811455488205,-0.916021227837,-0.555165231228,-0.407655775547
2017/07/09/10:01:08.965209,405363,1499565671,768913288,,0.83131570242,0.255800491919,0.194299721796,0.695712308692,0.711241138292,0.0751595093429,0.066869087706,0.0414099112082,-0.376613273604,0.0565386177114,-0.0173129099686,-0.10602948083,-0.487639038787,-2.21399784088,0.905600786209,0.758384883404,-0.434078454971,-0.832927286625,-0.25788345933
2017/07/09/10:01:08.975245,405364,1499565671,778919416,,0.831225410328,0.251547124118,0.194508164656,0.697546688281,0.70944541188,0.0747304686296,0.0673140571446,0.0221580195582,-0.366404347487,0.032984996095,-0.0254563889272,-0.0582007640941,-0.466280357502,-2.72713136673,-0.214207231998,0.792567670345,0.0765943527222,-0.996999561787,-0.0854824632406
2017/07/09/10:01:08.985031,405365,1499565671,788916808,,0.831687126503,0.247344851314,0.195354810718,0.699267398401,0.707671793253,0.0745958385636,0.0682729773562,0.037553443274,-0.383715762189,0.0449066135075,-0.0448293301237,-0.102080605376,-0.49081107275,-2.30239748955,-0.631627321243,0.733593523502,0.18508708477,-0.834380030632,-0.105300992727
2017/07/09/10:01:08.994910,405366,1499565671,798914858,,0.831959841876,0.244414130096,0.195106254173,0.700670384167,0.7062484694,0.0747925201865,0.0684119225364,0.0288359056118,-0.367574952974,0.0341142674879,-0.0256297381362,-0.0770913371408,-0.447761019264,-3.04299783707,-0.538240134716,0.492837131023,0.204420655966,-1.13548469543,-0.109964758158
2017/07/09/10:01:09.005096,405367,1499565671,808919835,,0.832107442982,0.240723680521,0.195508344803,0.70243378642,0.704445807249,0.0748893166548,0.0688074893915,0.0342402521918,-0.345121039166,0.0354864795414,0.0102395983935,-0.0900844236186,-0.466762205955,-3.68660593033,-0.252480655909,0.494304507971,0.070606186986,-1.37635362148,-0.111582927406
2017/07/09/10:01:09.015240,405368,1499565671,818927335,,0.832894247217,0.237804959867,0.196708999902,0.703488717425,0.703228161247,0.0753828864921,0.0699371010992,0.0286712429085,-0.363203131549,0.0463505415873,-0.00643000101374,-0.0910760162066,-0.481770903671,-4.15348148346,0.0327775925398,0.658594250679,-0.0923814624548,-1.56647765636,-0.178394719958
2017/07/09/10:01:09.025079,405369,1499565671,828920828,,0.832803211964,0.234811156102,0.196853636843,0.705074813643,0.701639978359,0.0754666077546,0.0698257763949,0.0297095686339,-0.374142038753,0.0486874988527,-0.00687945825956,-0.0984331834049,-0.505925354818,-4.68521547318,0.0939908325672,0.419710248709,-0.110655292869,-1.75810039043,-0.193896979094
2017/07/09/10:01:09.035136,405370,1499565671,838932450,,0.833049202488,0.231057929166,0.19663862769,0.706865644918,0.699811798072,0.0751422395515,0.0704134301727,0.0234537237251,-0.346126258693,0.0312335196341,-0.0108611620952,-0.0676318330342,-0.457081853638,-4.90329694748,0.179098293185,0.251157909632,-0.032237611711,-1.89225614071,-0.113797552884
2017/07/09/10:01:09.045495,405371,1499565671,848918871,,0.833328236292,0.227255742918,0.197261115829,0.708244959443,0.698359036912,0.0750888071206,0.0710310075336,0.0294768872056,-0.363378671147,0.041560907489,-0.0373676045435,-0.0867145766323,-0.488028215575,-4.84224653244,0.3600949049,0.707729637623,-0.102454528213,-1.83879578114,-0.149001464248
2017/07/09/10:01:09.055205,405372,1499565671,858918678,,0.833505160286,0.223872223116,0.197534095508,0.709988494179,0.696539998043,0.0751524632939,0.0714176205179,0.0213348017432,-0.381571748619,0.0391169172586,-0.0670795776854,-0.0696665039718,-0.467500061371,-5.30580091476,0.263613820076,0.558667123318,-0.0185168795288,-2.02013993263,-0.128920942545
2017/07/09/10:01:09.065293,405373,1499565671,868916993,,0.834037934914,0.221132428288,0.198533755198,0.711159914173,0.695208578686,0.075539481612,0.0723214719988,0.0209460968218,-0.348235385285,0.037680690058,-0.0197997239388,-0.0752632929027,-0.44919988744,-5.80481100082,0.595607936382,0.743284225464,-0.0715947374701,-2.2775914669,-0.146150588989
2017/07/09/10:01:09.074929,405374,1499565671,878944933,,0.833976857149,0.217271122773,0.198490860694,0.712605482038,0.693717590084,0.0752526356565,0.0727074480656,0.0271151170586,-0.342838137075,0.0416974376628,-0.0234326433041,-0.0928519904603,-0.443493591015,-6.92146730423,0.00326427817345,0.926511406898,0.0238634832203,-2.63251900673,-0.118155248463
2017/07/09/10:01:09.085090,405375,1499565671,888952165,,0.83443205166,0.213567727218,0.198487077953,0.714481510652,0.691733095827,0.0752002163247,0.0732558703345,0.034734383352,-0.37551500138,0.0446509292105,-0.038968762162,-0.12017491567,-0.473655682596,-7.41022968292,-0.0876775234938,0.967549324036,0.0818039774895,-2.84829378128,-0.108726337552
2017/07/09/10:01:09.095153,405376,1499565671,898933560,,0.834844519425,0.20993711739,0.199390905403,0.715909301755,0.690111810524,0.075624787391,0.0741650333274,0.0316295331097,-0.376703762032,0.0399838125547,-0.0298000911808,-0.106218650366,-0.489315626697,-7.17009496689,-0.0709706097841,0.803586363792,0.0508675910532,-2.69676089287,-0.0985512658954
2017/07/09/10:01:09.105186,405377,1499565671,908916662,,0.835251719479,0.206318404282,0.199880082759,0.717527712238,0.688350134558,0.0757062281126,0.0748107041068,0.033846657254,-0.370906923214,0.044956688409,-0.0387766811819,-0.118077269717,-0.479101099053,-7.59218740463,-0.18225671351,1.07632410526,0.0698450505733,-2.84923839569,-0.10360314697
2017/07/09/10:01:09.115035,405378,1499565671,918915253,,0.835011476417,0.203291000811,0.199595996751,0.718458431644,0.687405262459,0.0750161446024,0.0752599840012,0.0238742139527,-0.359504253637,0.0384062036007,-0.0814538455271,-0.0966621302467,-0.43424146693,-7.78495788574,0.456881344318,1.02314174175,-0.123044423759,-2.9180662632,-0.143911421299
2017/07/09/10:01:09.125104,405379,1499565671,928917124,,0.835597437545,0.199986913726,0.200241964907,0.720140529201,0.685504484196,0.075384259771,0.0761474472792,0.0191908590551,-0.344133542444,0.0400840992404,-0.084139287325,-0.0816176970185,-0.399357940016,-8.43389129639,0.0309349521995,0.875150024891,0.100471049547,-3.22036528587,-0.0514779575169
2017/07/09/10:01:09.135206,405380,1499565671,938912688,,0.835389313999,0.196514052831,0.20040738025,0.721438557706,0.684161581637,0.0747507547689,0.076561493773,0.029728685027,-0.352031480081,0.0463992252901,-0.0883607169454,-0.102682330651,-0.440610062667,-8.52240180969,0.0433987751603,0.853885173798,0.0879835113883,-3.3077545166,-0.0594732947648
2017/07/09/10:01:09.145037,405381,1499565671,948916189,,0.836075038565,0.193376687459,0.200926737358,0.722420131768,0.682986798868,0.0748935796123,0.077647521029,0.0161694468359,-0.359987405572,0.0372731586957,-0.104463077353,-0.0694913034983,-0.430004565748,-8.79022121429,-0.261805027723,0.684707760811,0.263197958469,-3.53514862061,0.0406510159373
2017/07/09/10:01:09.155095,405382,1499565671,958926629,,0.836213097863,0.189204160332,0.201617843376,0.723811361075,0.681421840006,0.0743936039355,0.0789112237529,0.0161945820159,-0.388272174941,0.0406422450878,-0.1516303293,-0.0686969133415,-0.439766318212,-8.75819015503,-0.42578804493,0.600859284401,0.229519844055,-3.56659436226,0.0274040624499
2017/07/09/10:01:09.165251,405383,1499565671,968932548,,0.836307424792,0.186298222885,0.201925350454,0.724851998424,0.680315720988,0.0737588171306,0.0794967738524,0.0179229359122,-0.360610535213,0.0335501553583,-0.154393567403,-0.0642334649535,-0.3895282734,-9.26250076294,-0.215970993042,0.515966594219,0.29766446352,-3.82891702652,0.0735435262322
2017/07/09/10:01:09.175184,405384,1499565671,978926241,,0.836528879597,0.182063634648,0.201899914935,0.726147226321,0.678859173435,0.0729141854875,0.0808946840291,0.0113041214553,-0.36361656878,0.0369677260362,-0.195660855121,-0.0529597533598,-0.375743558133,-9.59815979004,-0.643151760101,0.40013679862,0.319915682077,-3.99238991737,0.0754705369473
2017/07/09/10:01:09.185481,405385,1499565671,988913652,,0.836757956556,0.179505020379,0.202589405612,0.726917360941,0.677942148353,0.0726000422708,0.0819440523293,0.0164335834287,-0.378896215095,0.0353902356578,-0.236575488224,-0.0658801331616,-0.37688633684,-9.4708480835,-0.152164131403,0.749153494835,0.227524355054,-3.92211818695,0.0465478301048
2017/07/09/10:01:09.195270,405386,1499565671,998926489,,0.83702832449,0.174647148657,0.202683380646,0.728361608164,0.676318833483,0.0715319281382,0.0834588909986,0.0306393349439,-0.391030518607,0.0481638317418,-0.253943154869,-0.103659692003,-0.374902886085,-9.65427207947,-0.373148202896,0.451071768999,0.176932260394,-3.95246386528,0.0336002260447
2017/07/09/10:01:09.205186,405387,1499565672,8913278,,0.837340965223,0.170783336416,0.203537829696,0.729309739436,0.675152252244,0.07061256833,0.0853850422985,0.0146966436184,-0.403991948755,0.0331641832558,-0.285568491276,-0.0616711741945,-0.378547500656,-9.60900115967,-0.137519866228,0.785633981228,0.211745783687,-3.85803961754,0.0942378118634
2017/07/09/10:01:09.215050,405388,1499565672,18937120,,0.837820665999,0.167251698966,0.20356056556,0.730120175508,0.67416631088,0.0699449823886,0.0867871766405,0.0311489865691,-0.388383527884,0.0406563459604,-0.29708094922,-0.0934368168887,-0.352558364246,-10.0062541962,-0.270687311888,0.653208136559,0.234974592924,-3.88422322273,0.12349729985
2017/07/09/10:01:09.225526,405389,1499565672,28914231,,0.837378464173,0.163410425356,0.203392105443,0.731293239067,0.672968068344,0.0684250521599,0.0874196186325,0.0274585229178,-0.394502129521,0.0342783420654,-0.323530080105,-0.0749838788494,-0.344221124664,-10.475643158,-0.230794534087,0.778626382351,0.295574843884,-3.93269658089,0.161094874144
2017/07/09/10:01:09.235166,405390,1499565672,38924857,,0.837531493883,0.159090063148,0.204034837158,0.732114789911,0.671940051611,0.0673111109376,0.0892956649493,0.0014242834443,-0.438632922679,0.0285117882002,-0.365157375617,-0.0135370359116,-0.372768061681,-10.9286851883,0.0107924342155,0.736385047436,0.203033208847,-4.17460536957,0.133932679892
2017/07/09/10:01:09.245121,405391,1499565672,48920499,,0.837145475009,0.155047760159,0.203575115298,0.733119292899,0.670927823641,0.0649708765445,0.0903921625163,-0.00927717683259,-0.411088896918,0.0238822012111,-0.375909133747,0.0255732585415,-0.332348847718,-11.4006223679,-0.154242813587,0.484210580587,0.294475138187,-4.36687421799,0.199786961079
2017/07/09/10:01:09.255145,405392,1499565672,58915735,,0.837669035238,0.151102525448,0.204749254532,0.733967096353,0.669823494446,0.064117981871,0.0922912355529,-0.0171067487645,-0.435082208521,0.0329650704922,-0.431282968561,0.0480813763746,-0.339790857052,-11.3914480209,0.234973728657,1.01316690445,0.107034906745,-4.41402673721,0.145058751106
2017/07/09/10:01:09.264765,405393,1499565672,68914014,,0.836925637254,0.146883735866,0.204758382869,0.734980458716,0.668784357426,0.0618256098041,0.0933209651737,-0.0193365053857,-0.439640743999,0.033247324538,-0.446040533818,0.0614091024062,-0.358205848871,-11.0067272186,0.256653606892,0.617957890034,0.139469966292,-4.40189552307,0.20362174511
2017/07/09/10:01:09.275218,405394,1499565672,78913584,,0.836478993096,0.141874964605,0.204891379424,0.735975070478,0.667686583063,0.0596342553049,0.0947579971708,-0.0212112987902,-0.43565702633,0.0331783695871,-0.480129485985,0.0714541326258,-0.321963952333,-11.1407012939,-0.122848138213,0.558380544186,0.295433372259,-4.49665355682,0.294669032097
2017/07/09/10:01:09.285048,405395,1499565672,88927492,,0.836225542165,0.137884602856,0.205085669529,0.736884929516,0.6666455343,0.0573263637886,0.0964262426133,-0.0314482071715,-0.455054960679,0.0289992517759,-0.526592785051,0.110366985644,-0.309571310315,-10.7906665802,-0.327214986086,0.65355193615,0.355113863945,-4.42165565491,0.326557576656
2017/07/09/10:01:09.295185,405396,1499565672,98920109,,0.8364157787,0.133730261911,0.206199758973,0.737431810081,0.665866318328,0.0554881188265,0.0986784691113,-0.0267940569754,-0.465348400269,0.0327507402478,-0.549375807091,0.0953241563804,-0.329555812477,-10.2776508331,-0.334610939026,0.90697234869,0.345915704966,-4.24364376068,0.324031621218
2017/07/09/10:01:09.305246,405397,1499565672,108926502,,0.835735472361,0.129439455752,0.205533480055,0.737924758803,0.665377743769,0.0523441303179,0.0999980023026,-0.0278311817436,-0.467311712454,0.0231307584601,-0.574819178545,0.115535134717,-0.318624841373,-9.9556646347,0.27619317174,0.567383050919,0.141477122903,-4.08602952957,0.273863881826
2017/07/09/10:01:09.316365,405398,1499565672,118926525,,0.835717652404,0.125111086942,0.205599210208,0.738611847291,0.664516218954,0.0501490893854,0.101763464083,-0.0208616470087,-0.463593120648,0.0317767568027,-0.594095684261,0.106676252932,-0.316947583384,-10.5568122864,0.254888176918,0.482272952795,0.113439783454,-4.3388261795,0.329633384943
2017/07/09/10:01:09.325204,405399,1499565672,128916751,,0.835532583968,0.121087185526,0.205965583891,0.739291154652,0.663676323708,0.0475982886451,0.103521635038,-0.0234591176257,-0.458128233347,0.0295685254371,-0.582601786265,0.124290869172,-0.295231474363,-9.80253887177,0.52732270956,0.179803341627,-0.0273164473474,-4.03960943222,0.283623188734
2017/07/09/10:01:09.335041,405400,1499565672,138913530,,0.835069603646,0.116747027741,0.206280557406,0.740209089896,0.662636818902,0.045256388647,0.104665222291,-0.0297581928866,-0.467275106087,0.0289738153466,-0.592188629542,0.142629568163,-0.314166632405,-9.67347717285,0.863127946854,0.0852161720395,-0.221874922514,-4.01198816299,0.242782592773
2017/07/09/10:01:09.345369,405401,1499565672,148913570,,0.835061242301,0.112238328865,0.207259323766,0.740672694932,0.661901047898,0.0428215714448,0.107038660271,-0.0337773986642,-0.453818018864,0.0332347075459,-0.598544615972,0.169482944222,-0.305422144797,-9.30418777466,0.601004242897,0.497240483761,-0.0991800501943,-3.81878519058,0.278313815594
2017/07/09/10:01:09.355164,405402,1499565672,158915579,,0.834533133732,0.107502656852,0.207124260264,0.741520882592,0.660908720158,0.0396593375361,0.108506134598,-0.041032950065,-0.431643884323,0.0236846486278,-0.588127858881,0.197375233588,-0.279381003333,-9.11389255524,0.335851788521,0.198074474931,-0.134552925825,-3.77964639664,0.287926971912
2017/07/09/10:01:09.365269,405403,1499565672,168913176,,0.834355427134,0.103043317912,0.207377950412,0.742501255087,0.659710575572,0.0370953509254,0.109989897775,-0.0480899635002,-0.452334182687,0.0316440368664,-0.604135443322,0.223412044918,-0.30636710897,-8.98535633087,0.252534478903,0.0309005193412,-0.0907078832388,-3.76294660568,0.318280160427
2017/07/09/10:01:09.375299,405404,1499565672,178918182,,0.833663948035,0.0984801497014,0.207704171352,0.743025608432,0.659048483453,0.0336595099377,0.111512685656,-0.0433299767013,-0.45133962537,0.0272793979868,-0.606925034137,0.2268020398,-0.307843167339,-9.07678413391,-0.0535365045071,-0.208777710795,-0.043020632118,-3.82056450844,0.356540292501
2017/07/09/10:01:09.385121,405405,1499565672,188925692,,0.832808147254,0.0952720803325,0.20727155717,0.743664951298,0.658418173559,0.0307136784494,0.11182405329,-0.0629083470825,-0.444566403468,0.0260108251395,-0.588056091096,0.276417719147,-0.328728715939,-9.61643314362,0.321403026581,-0.59600353241,-0.0997234880924,-4.06484222412,0.41016960144
2017/07/09/10:01:09.394847,405406,1499565672,198911827,,0.832120942993,0.0916069095036,0.20769668499,0.744243242253,0.657689148911,0.0275732658039,0.113078268375,-0.0672520784246,-0.415449883783,0.0146602147756,-0.583576271732,0.30419786352,-0.288249179552,-9.08428573608,0.926726102829,0.346543103456,-0.216074422002,-3.84278059006,0.347841113806
2017/07/09/10:01:09.404845,405407,1499565672,208918088,,0.831960957038,0.0868075319763,0.208288163062,0.745121723434,0.656508122435,0.0249242150559,0.11475838073,-0.0550188753652,-0.408302034255,0.0451812160158,-0.566783903725,0.273048095996,-0.305408984341,-9.01200866699,0.744637668133,-0.00897223874927,-0.254689604044,-3.82290077209,0.398195326328
2017/07/09/10:01:09.414907,405408,1499565672,218914641,,0.831880637131,0.0831110060591,0.208903209853,0.745719491085,0.655670667082,0.0224237530739,0.116170530867,-0.0680362811932,-0.428725553793,0.0167403348646,-0.551480011962,0.310564252492,-0.342844994027,-7.74535369873,1.30622565746,0.156899511814,-0.47414958477,-3.37683129311,0.278466522694
2017/07/09/10:01:09.425212,405409,1499565672,228917963,,0.830856575252,0.0786310245503,0.209350824598,0.746739063804,0.654462815997,0.0189695370838,0.117044221258,-0.0707745196147,-0.41836216633,0.0374211485097,-0.556749482511,0.322102233118,-0.335152652752,-7.63030958176,0.815993189812,0.0416632220149,-0.412513673306,-3.24554085732,0.307537943125
2017/07/09/10:01:09.435080,405410,1499565672,238920434,,0.829870870657,0.0756885555589,0.208708259387,0.747237940854,0.65398289961,0.0157769235983,0.117016731487,-0.0847282527567,-0.397318907918,0.0127592684476,-0.50199535458,0.375213605088,-0.344560583753,-8.0117855072,0.967910706997,-0.969095408916,-0.404898881912,-3.40751862526,0.378566086292
2017/07/09/10:01:09.445037,405411,1499565672,248915301,,0.829224031595,0.0720319370054,0.209002707025,0.748052434812,0.652966047288,0.0127700224693,0.117855090629,-0.0732139401586,-0.398178389527,0.0199284069458,-0.507037638353,0.339103770393,-0.351295880536,-6.28527069092,1.01725554466,-0.726950407028,-0.504745960236,-2.72506952286,0.196654841304
2017/07/09/10:01:09.455158,405412,1499565672,258920381,,0.828593427798,0.0686861074057,0.209541361288,0.748977160573,0.651878374454,0.0102004549751,0.118252900927,-0.0852200579654,-0.38670082108,0.00373304292928,-0.482990788961,0.390327351846,-0.336038963565,-5.51380157471,1.34222269058,-0.284013539553,-0.574231445789,-2.42423725128,0.14925417304
2017/07/09/10:01:09.465069,405413,1499565672,268915763,,0.827377374288,0.0653826634049,0.2088055238,0.749874423443,0.650954919638,0.00676453957955,0.117899460001,-0.0680163789089,-0.355789042225,0.036391000814,-0.453535945731,0.354325284072,-0.330950889359,-4.53308725357,0.988282680511,-0.687621593475,-0.411101430655,-1.97007215023,0.116552956402
2017/07/09/10:01:09.475211,405414,1499565672,278920918,,0.826491796357,0.0621547253499,0.208903734026,0.750635053931,0.650075598012,0.00384919086521,0.118042011202,-0.0802929038189,-0.328231937876,0.0047968317354,-0.3992334897,0.406136418425,-0.347736869745,-4.03775691986,0.592809081078,0.118115514517,-0.281286388636,-1.79564642906,0.129919558764
2017/07/09/10:01:09.485095,405415,1499565672,288915359,,0.826419385853,0.0588457512329,0.209862315128,0.751708122848,0.648669780467,0.001503621323,0.118996441443,-0.0888485481653,-0.331895268415,0.022668657663,-0.387450341779,0.403770733677,-0.363758608237,-5.59911251068,0.580541908741,0.284292459488,-0.217080876231,-2.4106361866,0.272099554539
2017/07/09/10:01:09.495178,405416,1499565672,298924131,,0.825694709465,0.0552436143594,0.2106928076,0.752605535349,0.647517809317,-0.0011344744915,0.119600617665,-0.0777091951734,-0.33446115442,0.0353367112312,-0.387900946675,0.366881584323,-0.368254627763,-6.13852548599,0.647228658199,0.808083415031,-0.234831601381,-2.57885074615,0.314487636089
2017/07/09/10:01:09.505207,405417,1499565672,308919549,,0.824722820645,0.0524282073455,0.210014547961,0.753547786621,0.646516465242,-0.00405171137687,0.119020070091,-0.0647419422528,-0.324109887916,0.0489712476012,-0.382386367617,0.339411855265,-0.356128736281,-5.07496738434,0.241309165955,-0.459249973297,-0.225162863731,-2.13021469116,0.212455257773
2017/07/09/10:01:09.515153,405418,1499565672,318917301,,0.823771572899,0.0504601490143,0.210101037747,0.754237481572,0.645759214018,-0.00679313104486,0.118636892546,-0.0796163459939,-0.33702381246,0.0244124611044,-0.367070055893,0.374915165221,-0.379792600463,-4.06153964996,1.18420028687,-0.288770526648,-0.376559942961,-1.74319398403,0.140314012766
2017/07/09/10:01:09.525194,405419,1499565672,328921105,,0.82342781006,0.0469118421914,0.210456412445,0.755464198465,0.644259945911,-0.00880748323292,0.118850305726,-0.0819727987351,-0.30679897263,0.0266134637848,-0.315267404968,0.377993439306,-0.384858410766,-2.87762498856,0.729874491692,-0.458374738693,-0.269275337458,-1.30176615715,0.102312624454
2017/07/09/10:01:09.534899,405420,1499565672,338920420,,0.822138889709,0.0440276680018,0.210566310811,0.756379202921,0.643240444249,-0.0117852654855,0.118293447786,-0.0908659681954,-0.292436975558,0.0110514652443,-0.29897740721,0.42155223099,-0.372423168533,-2.60953235626,0.799268364906,-0.549933075905,-0.331485837698,-1.1435277462,0.0371453911066
2017/07/09/10:01:09.545453,405421,1499565672,348920576,,0.821616434983,0.0415076492803,0.21086474729,0.757026226273,0.642366940086,-0.0144154509387,0.118609450694,-0.104783243445,-0.284713000792,0.00422634282644,-0.289825615264,0.45903408637,-0.367189789351,-3.36339688301,0.898834824562,-0.0286073051393,-0.291482508183,-1.45468056202,0.164502382278
2017/07/09/10:01:09.555217,405422,1499565672,358920181,,0.819967063569,0.0369653415201,0.210982841915,0.758546164897,0.640483475042,-0.0180070577367,0.118593337885,-0.097467435544,-0.316365840183,0.0320292882614,-0.334346388646,0.409167035258,-0.399798279286,-3.81831073761,0.479868173599,0.0973119437695,-0.285153359175,-1.51858091354,0.125437110662
2017/07/09/10:01:09.565132,405423,1499565672,368912524,,0.819523476723,0.0353074101374,0.211083812564,0.759499767012,0.6394340101,-0.0196887493833,0.117883857178,-0.105162818859,-0.319078325664,0.0252723300619,-0.305939317541,0.417659374586,-0.433473142525,-2.9609105587,0.759532570839,0.430997043848,-0.31133210659,-1.24893510342,0.0667243748903
2017/07/09/10:01:09.575188,405424,1499565672,378921229,,0.819129949259,0.0329361746149,0.211485938438,0.760433301781,0.638294450328,-0.0215902774941,0.117708318057,-0.0726843673195,-0.276706623094,0.034135113461,-0.248363016902,0.35432264947,-0.405425075522,-2.56526327133,1.02668559551,0.270328462124,-0.245510146022,-1.05848264694,0.0757115259767
2017/07/09/10:01:09.585076,405425,1499565672,388931061,,0.818413974739,0.0302507124599,0.21147139689,0.761279361934,0.637254457349,-0.0239918972962,0.117409022422,-0.0767989582255,-0.262147974662,0.0350833194885,-0.249927243416,0.366159990308,-0.386507078556,-1.53453242779,0.63173776865,-0.624487817287,-0.214483350515,-0.653797090054,-0.00919358432293
2017/07/09/10:01:09.595129,405426,1499565672,398921194,,0.817808886786,0.0288033503305,0.211889497578,0.762184614181,0.636223022435,-0.0258523991559,0.11673274214,-0.091929152377,-0.247364627754,0.00776461033305,-0.201114310672,0.413464331595,-0.39059634364,-0.12062779814,0.859633207321,-0.226966932416,-0.147757261992,-0.125068858266,-0.111676320434
2017/07/09/10:01:09.605182,405427,1499565672,408920358,,0.816513506532,0.0247207122872,0.212188097063,0.763656544998,0.634413032599,-0.0285350234108,0.116338032425,-0.0989459057201,-0.268612166535,0.0277939003037,-0.214113509211,0.404114204999,-0.428132710861,0.122378610075,0.476924806833,-0.0522158071399,-0.161883324385,-0.0151565186679,-0.168039008975
2017/07/09/10:01:09.615173,405428,1499565672,418922979,,0.815477789372,0.0223124263393,0.212830767395,0.764899997744,0.632879072032,-0.0309285293493,0.115911602992,-0.0864555712081,-0.279138923885,0.054737754154,-0.22599181817,0.355955594531,-0.429996494239,0.0594175830483,0.595547318459,0.0751249417663,-0.0678802132607,-0.0871878936887,-0.104692384601
2017/07/09/10:01:09.625202,405429,1499565672,428920200,,0.815017386636,0.0204229632574,0.212931601528,0.76577626106,0.631816749124,-0.0327674290962,0.115414943202,-0.0839141300514,-0.26383297573,0.0415509864766,-0.195368501291,0.35650303285,-0.411967403392,0.112311571836,0.662620544434,-0.388013362885,-0.232620343566,-0.141647428274,-0.136092960835
2017/07/09/10:01:09.635201,405430,1499565672,438930977,,0.814769719359,0.0173219245755,0.213509818966,0.767227359705,0.629939818139,-0.0343759251197,0.115569458836,-0.0684647902244,-0.260625648718,0.0402392253119,-0.17537435661,0.313082765597,-0.418954567389,1.45655047894,0.66540813446,-0.0647521615028,-0.261882662773,0.300292760134,-0.21156732738
2017/07/09/10:01:09.645236,405431,1499565672,448921188,,0.813806798914,0.0152994535363,0.213934892825,0.768128859395,0.628809256032,-0.036554004114,0.115068586838,-0.0649871619187,-0.23954276118,0.0319418972023,-0.161124524971,0.31178677708,-0.421229431202,1.48196280003,0.177146553993,0.293001711369,-0.0973099917173,0.410494029522,-0.222186982632
2017/07/09/10:01:09.655169,405432,1499565672,458920940,,0.813658816604,0.0126518516951,0.214667328261,0.769366353894,0.627208516805,-0.0379455798627,0.115087023211,-0.0667090916627,-0.281278516504,0.0482148889585,-0.20639330674,0.291506475276,-0.439031772,3.0534119606,0.0651674345136,0.576969087124,0.0365221761167,0.948181271553,-0.345081031322
2017/07/09/10:01:09.665153,405433,1499565672,468922414,,0.812567333001,0.0103380793583,0.214569292578,0.77030485615,0.626064119795,-0.0401200534567,0.114300165387,-0.0708113161278,-0.292440116822,0.0529599984727,-0.210382022603,0.284716341699,-0.4597996843,3.07511091232,-0.345838338137,0.201047375798,0.197375625372,1.03688168526,-0.361457467079
2017/07/09/10:01:09.675205,405434,1499565672,478931024,,0.812213749394,0.00726345457564,0.215141922817,0.771653309611,0.624271951178,-0.0417530733336,0.114421945472,-0.0573449507887,-0.229030288653,0.0539014950108,-0.153873613872,0.266956333405,-0.394015206835,2.91392707825,-0.395461916924,0.214650020003,0.0963647440076,0.939895391464,-0.366129428148
2017/07/09/10:01:09.685201,405435,1499565672,488938385,,0.811733051875,0.00546080270349,0.215145181888,0.772658789966,0.623084301085,-0.0431211858833,0.113599785906,-0.0604703458716,-0.247011286705,0.0380358962986,-0.119849034437,0.251900274338,-0.451861246162,3.01776432991,-0.0386155247688,-0.349921584129,0.000985290855169,0.998733818531,-0.335139900446
2017/07/09/10:01:09.694929,405436,1499565672,498913257,,0.811696668839,0.00357190181426,0.216294005568,0.773806057869,0.621611475901,-0.043895124094,0.113563092218,-0.0607917289494,-0.254845888842,0.0326014023221,-0.114472588469,0.247951373609,-0.446395263834,3.14112734795,0.255473405123,0.80539226532,-0.0154412649572,1.09509122372,-0.409228920937
2017/07/09/10:01:09.705296,405437,1499565672,508931405,,0.810813491253,0.00108005051081,0.216069987912,0.775012814739,0.620108365886,-0.0456344971538,0.112863830423,-0.0551185626887,-0.251116390761,0.0576733154161,-0.0972494371278,0.201714966062,-0.466990456894,3.00720047951,0.159115180373,0.905105888844,0.0308542661369,1.14135396481,-0.388210594654
2017/07/09/10:01:09.714859,405438,1499565672,518912604,,0.809901668391,-0.00237629806958,0.21705664462,0.776535898927,0.618065601923,-0.0473725119959,0.112883809754,-0.0649524166263,-0.264479090742,0.0491263572618,-0.115345139526,0.218114212695,-0.471070318348,3.91003251076,0.162256523967,1.468957901,0.0489107780159,1.50139808655,-0.496469438076
2017/07/09/10:01:09.725119,405439,1499565672,528918384,,0.809898617328,-0.00396971672613,0.217784008014,0.777525258628,0.616814135269,-0.0478791001791,0.112704864548,-0.0571087174989,-0.253757009838,0.0581767474723,-0.113348192711,0.197945575127,-0.441406056585,6.02388572693,0.409700900316,1.2185087204,-0.015794172883,2.22315311432,-0.696269989014
2017/07/09/10:01:09.736111,405440,1499565672,538920007,,0.809524354766,-0.00632492608163,0.218018321827,0.77877538975,0.615183461038,-0.0489842865952,0.112511071686,-0.0517687000906,-0.250229196033,0.060012272737,-0.0820343536158,0.164450275506,-0.452456835182,7.02955532074,1.59165787697,0.488511711359,-0.179214805365,2.6105401516,-0.755975365639
2017/07/09/10:01:09.745253,405441,1499565672,548913903,,0.808749753655,-0.00877406449652,0.217950015789,0.780515435185,0.613033149858,-0.0501301534668,0.111682497855,-0.0396468711118,-0.25675547598,0.048471048588,-0.0844500367879,0.122727021279,-0.46910802107,6.83904886246,1.19498598576,0.519551634789,-0.00667806714773,2.49248695374,-0.727825641632
2017/07/09/10:01:09.755093,405442,1499565672,558915346,,0.808874959873,-0.0117381801596,0.219501719224,0.781502879111,0.611553049821,-0.0506882328979,0.112635785793,-0.0372857631318,-0.251836380485,0.0457891814247,-0.0638733149976,0.107521661323,-0.469793387255,6.19487380981,0.361768513918,0.921259880066,0.260682195425,2.27874088287,-0.665809988976
2017/07/09/10:01:09.765279,405443,1499565672,568918338,,0.808754057272,-0.0149596085963,0.220069813091,0.78333253805,0.609155756332,-0.0510345436641,0.112760253246,-0.0215357128327,-0.262330258482,0.0734094208129,-0.0689909951516,0.0417303061028,-0.47450427231,5.50022506714,0.00446376204491,1.70547771454,0.405772209167,2.10675382614,-0.655870318413
2017/07/09/10:01:09.774909,405444,1499565672,578918164,,0.807892234756,-0.0160703682232,0.219576715091,0.784133176254,0.608291525291,-0.0520873153234,0.111370973504,-0.0337491090854,-0.259362029731,0.0641464389622,-0.030473216183,0.0497122347934,-0.492555153227,4.43817090988,0.29960283637,1.80483400822,0.202889114618,1.70836138725,-0.607577979565
2017/07/09/10:01:09.785101,405445,1499565672,588923745,,0.808161874333,-0.018632706814,0.22065524659,0.785700369961,0.606207121807,-0.0518338667768,0.111808337654,-0.0235086530188,-0.241042751001,0.0545731533584,0.0176715951977,0.0172280419476,-0.48787610287,4.78171825409,0.327137887478,1.75749790668,0.264609873295,1.81529927254,-0.594724357128
2017/07/09/10:01:09.795023,405446,1499565672,598918655,,0.808406766965,-0.0202922891563,0.220954378234,0.787093984159,0.604490154541,-0.0514633991856,0.111473008879,-0.0148690191644,-0.223485424597,0.050437814903,0.0563298454044,-0.0109976595288,-0.463928335281,4.84481048584,0.238624840975,1.24179327488,0.226852938533,1.79800081253,-0.581721961498
2017/07/09/10:01:09.805090,405447,1499565672,608914171,,0.807842640667,-0.0241062532123,0.221160264852,0.788347511308,0.602725640183,-0.0523547536262,0.111754122308,-0.00912980376705,-0.240012005731,0.054352427171,-0.003592189564,-0.0263492377505,-0.439163993066,6.6631526947,-0.0579375326633,1.07494020462,0.0754477456212,2.50416135788,-0.691495358944
2017/07/09/10:01:09.815209,405448,1499565672,618922623,,0.807026828,-0.0268419662344,0.222340416135,0.789592134919,0.600872417276,-0.0537418124103,0.112287204213,-0.0263033807434,-0.289354991317,0.0602089606452,-0.116128870742,0.000189166878527,-0.44821072781,7.65227174759,-0.497132897377,1.0377035141,0.166250318289,2.84956741333,-0.83205395937
2017/07/09/10:01:09.825901,405449,1499565672,628921776,,0.80693576043,-0.029997924407,0.223048119421,0.790823925006,0.599056102862,-0.0543324641925,0.113036669261,-0.0460856930666,-0.31559947798,0.0762905433598,-0.20044317972,0.026381007644,-0.465801966873,7.6247048378,-1.26457631588,1.2240653038,0.562322795391,2.80775928497,-0.822819054127
2017/07/09/10:01:09.835186,405450,1499565672,638942100,,0.807251675524,-0.0335772012336,0.224007907385,0.791959556822,0.597239633347,-0.0546119639206,0.114553106087,-0.0375265691364,-0.338103205854,0.0811816670044,-0.211329822044,-0.0196295885139,-0.474457694779,8.09373950958,-2.607421875,1.63527405262,1.21416068077,2.94146323204,-0.818342268467
2017/07/09/10:01:09.844919,405451,1499565672,648916442,,0.80723834641,-0.0356636916686,0.224783028111,0.793012436998,0.595816027884,-0.0545439180736,0.114714849449,-0.0329056268292,-0.356461954217,0.0821563392313,-0.221491698853,-0.0432582176864,-0.486229226036,6.87194633484,-2.80418014526,1.47194159031,1.38531041145,2.44899272919,-0.695740878582
2017/07/09/10:01:09.856291,405452,1499565672,658916459,,0.806634895116,-0.0394752473524,0.225552354587,0.794413263024,0.593673315632,-0.0555693216461,0.115635687956,-0.00680404242179,-0.291904484401,0.0718231402372,-0.150835397056,-0.0793184665575,-0.417894973158,5.84217357635,-2.55371761322,1.33645868301,1.34471786022,2.07492113113,-0.556323230267
2017/07/09/10:01:09.865215,405453,1499565672,668924355,,0.806160139626,-0.0424769760469,0.226136934404,0.795784637232,0.59170988503,-0.0560442724128,0.116039918273,-0.0176015678262,-0.29769223735,0.0807774801679,-0.144588485149,-0.0755810203805,-0.423407790742,6.4358253479,-1.94625425339,1.41386687756,1.03573715687,2.34859466553,-0.716590940952
2017/07/09/10:01:09.875126,405454,1499565672,678930076,,0.806110552671,-0.0454122031764,0.227005590068,0.796705214319,0.59031219778,-0.0562103029344,0.116759207228,-0.0155360887468,-0.30821640035,0.0892288521152,-0.16112953792,-0.101563610083,-0.429427642746,6.74869060516,-1.38909697533,1.53096556664,0.787915885448,2.56673240662,-0.814532399178
2017/07/09/10:01:09.885090,405455,1499565672,688916006,,0.806124683698,-0.0476268773143,0.227121934907,0.797735123154,0.588887794658,-0.0561068190442,0.116969497928,-0.0124531443774,-0.292309164733,0.0782203893356,-0.104728932249,-0.119804657278,-0.435191355221,8.13199901581,-1.16332602501,1.55034708977,0.594752430916,3.09628295898,-1.02802729607
2017/07/09/10:01:09.895344,405456,1499565672,698929006,,0.80558258282,-0.0510536681893,0.22792178649,0.799526077031,0.586290395108,-0.0564314303236,0.117631281652,-0.0369486313578,-0.308395322026,0.0548278412194,-0.08620269339,-0.0809863265991,-0.473795890815,9.24349212646,-1.31355786324,1.57247686386,0.615437507629,3.49399781227,-1.13949012756
2017/07/09/10:01:09.905093,405457,1499565672,708919134,,0.806071628635,-0.0530061919287,0.228869761368,0.800406110297,0.585016159292,-0.0557522850103,0.118312445173,-0.0426435016627,-0.29945158161,0.057137914383,-0.0733654794669,-0.0764588755343,-0.487343402678,8.71354198456,-1.06985604763,1.35538077354,0.569776654243,3.20055174828,-1.04618179798
2017/07/09/10:01:09.915234,405458,1499565672,718939864,,0.804714073563,-0.0565989734151,0.229101926483,0.802088182027,0.582625651768,-0.0566310898292,0.118299694928,-0.0252351541626,-0.297493185106,0.0779647197982,-0.0762407810616,-0.138700102866,-0.459506844794,6.82444763184,-0.946900248528,1.09519124031,0.517416775227,2.37875342369,-0.829666852951
2017/07/09/10:01:09.924984,405459,1499565672,728918453,,0.80472155737,-0.058940743911,0.229737462356,0.802967284915,0.581346893614,-0.0563734666306,0.118749151164,-0.027771605066,-0.275678438406,0.0692892213029,-0.0227522366224,-0.141140934448,-0.456958029344,5.53436946869,-0.919659733772,0.906885445118,0.557043433189,1.82306659222,-0.652817070484
2017/07/09/10:01:09.938284,405460,1499565672,738914174,,0.804695075605,-0.0610682824078,0.230288728537,0.804133840384,0.579787124205,-0.0555746438869,0.118857546299,-0.041199738427,-0.275069174258,0.0486774592234,0.00285710843095,-0.111633340252,-0.451298271566,6.59794282913,-1.30029511452,1.36288666725,0.721594274044,2.23071527481,-0.767106473446
2017/07/09/10:01:09.945136,405461,1499565672,748913843,,0.804017812868,-0.0642022506125,0.230927580156,0.805725438971,0.577581119072,-0.0553228642637,0.118936741908,-0.0477182950812,-0.279281746156,0.0519996535843,0.0156718503487,-0.112696894709,-0.448979592716,6.48079586029,-1.38858151436,1.43796944618,0.735920786858,2.18528318405,-0.74195098877
2017/07/09/10:01:09.955111,405462,1499565672,758928474,,0.803523443491,-0.0672753149674,0.231441461,0.807295452539,0.575346876916,-0.0550331411664,0.119253414654,-0.0446150463547,-0.267298187766,0.0563609707078,0.028170879509,-0.129450229879,-0.444988924049,5.92460250854,-1.26252937317,1.37122809887,0.6902526021,1.98549842834,-0.69342237711
2017/07/09/10:01:09.965107,405463,1499565672,768936610,,0.803144110505,-0.0697709062538,0.232246146627,0.80850878346,0.573625840457,-0.0545506680051,0.119545668464,-0.0403464563649,-0.263774888239,0.0606836271262,0.0295703345195,-0.150323863249,-0.439131139628,6.4530582428,-1.33375072479,1.32192254066,0.638476848602,2.18754887581,-0.766652882099
2017/07/09/10:01:09.975078,405464,1499565672,778926049,,0.802357633352,-0.0719044843884,0.232014805691,0.809529798577,0.572218152799,-0.0548446619241,0.119247448116,-0.0512932141275,-0.265200316707,0.0498290211604,0.0311191318689,-0.129353145206,-0.445892101037,6.66645479202,-1.36619758606,1.23460423946,0.66836130619,2.31253814697,-0.778075098991
2017/07/09/10:01:09.984960,405465,1499565672,788914016,,0.802283332117,-0.0744140521008,0.232966298653,0.810834174125,0.57036543686,-0.0539567539143,0.119665697728,-0.0455283063356,-0.250584548548,0.0509955386593,0.013939115528,-0.126869322058,-0.416753243824,6.87120246887,-1.26135456562,1.32708287239,0.596966266632,2.44881272316,-0.838660955429
2017/07/09/10:01:09.995157,405466,1499565672,798918480,,0.801292553544,-0.0768987872773,0.232698416186,0.811920437075,0.568865776335,-0.054286124761,0.119289350042,-0.0513918562008,-0.264701708452,0.0536871992157,0.00315306503882,-0.12574153721,-0.408752071332,6.88823699951,-1.45440745354,1.38389003277,0.722435474396,2.47175359726,-0.827219545841
2017/07/09/10:01:10.005194,405467,1499565672,808931000,,0.800385691327,-0.0795879171713,0.233244782083,0.81322010683,0.566991954917,-0.0543183349255,0.119342781086,-0.0742093903501,-0.267373256558,0.0235327355675,0.0100865338602,-0.0627298934902,-0.418550175701,7.08930778503,-1.46536386013,1.42675471306,0.803638756275,2.52888560295,-0.859867632389
2017/07/09/10:01:10.015279,405468,1499565672,818920252,,0.800140446193,-0.0817078894911,0.233906245003,0.8140972195,0.565687926878,-0.0539473712148,0.119718702488,-0.0838656914091,-0.286485129496,0.0543802770854,-0.0192124287685,-0.0823067700603,-0.442107630272,5.96353816986,-1.32850110531,1.36684441566,0.757465004921,2.10828018188,-0.737374842167
2017/07/09/10:01:10.025160,405469,1499565672,828919373,,0.799486955776,-0.0837360994151,0.234239318508,0.814995362721,0.564430569951,-0.0538203509388,0.119599583082,-0.0831187415133,-0.258428899919,0.04939194836,0.00412240962172,-0.065098347517,-0.408063811156,4.42053365707,-0.802242875099,1.00841236115,0.53574359417,1.51094651222,-0.631466984749
2017/07/09/10:01:10.035233,405470,1499565672,838914289,,0.798366717188,-0.0866645442346,0.234952394091,0.816472338416,0.56230878123,-0.053631379492,0.119605310447,-0.0934671309565,-0.262937233883,0.0339569974609,0.0287240431118,-0.0530884302011,-0.399100080321,5.59871387482,-1.19438052177,1.23101508617,0.660566210747,1.99141967297,-0.756915569305
2017/07/09/10:01:10.045164,405471,1499565672,848920779,,0.79785121175,-0.0890703199489,0.235006953139,0.817616465117,0.560652037146,-0.0532209174702,0.119750336771,-0.0792036017003,-0.242818751205,0.0380690660083,0.0343837442519,-0.0778914698262,-0.387562348186,2.91000771523,-2.70655298233,1.21653020382,0.816140413284,1.10397791862,-0.506301701069
2017/07/09/10:01:10.054996,405472,1499565672,858940641,,0.796366253113,-0.0914304494553,0.234744253317,0.818591024266,0.559274236354,-0.0540864023181,0.119145812453,-0.0859333145875,-0.259435167203,0.0404044924337,0.00650863815397,-0.0773262846639,-0.400229193811,2.64619660378,-3.23234963417,0.877792418003,0.918759286404,1.08825612068,-0.487155079842
2017/07/09/10:01:10.065166,405473,1499565672,868914022,,0.796167532498,-0.0938073623491,0.235593540825,0.819403447058,0.557994740001,-0.0534349941774,0.119852252704,-0.0820678366753,-0.233902227944,0.0274518033147,0.0120883063571,-0.052871782971,-0.360330276417,3.14509487152,-1.64288902283,0.615341424942,0.554176807404,1.13981950283,-0.486883014441
2017/07/09/10:01:10.075231,405474,1499565672,878925858,,0.795008388468,-0.0962249915797,0.235889056583,0.8205898328,0.556287734886,-0.0534639589595,0.11965737509,-0.079811819068,-0.232921941783,0.0252647848549,0.0285314215855,-0.0716546380283,-0.364584879874,1.92376112938,-1.89790773392,0.240649104118,0.592970132828,0.707568764687,-0.355033248663
2017/07/09/10:01:10.085343,405475,1499565672,888951658,,0.793898354132,-0.0983800720481,0.235724938445,0.82158056094,0.5549006948,-0.053573873989,0.119249489821,-0.102928709259,-0.248262680417,0.0281057445452,0.0323731939935,-0.0403460669892,-0.365082524087,0.261973500252,-1.44115328789,-0.293648958206,0.33375865221,0.0728183239698,-0.213349848986
2017/07/09/10:01:10.095144,405476,1499565672,898920903,,0.792451205403,-0.100826087212,0.235917824636,0.822516993397,0.553563581573,-0.0539256515491,0.118849404014,-0.102810511021,-0.2293739614,0.0195835558894,0.0356022979405,-0.0247363592997,-0.340644917267,-0.521908283234,-1.47194778919,-0.00576542317867,0.281388342381,-0.233399987221,-0.17619690299
2017/07/09/10:01:10.105392,405477,1499565672,908914411,,0.791599408088,-0.10293789025,0.235856062738,0.823639839194,0.551956353941,-0.0537317898436,0.118635970081,-0.108649062559,-0.247839540779,0.0244247780961,0.0224219195656,-0.0393222126962,-0.369093710036,0.452904582024,-0.366853863001,0.328400462866,-0.062636770308,0.0713833719492,-0.276147633791
2017/07/09/10:01:10.115178,405478,1499565672,918919831,,0.791705983536,-0.103476190545,0.236256538669,0.823904732611,0.551611774209,-0.053037304744,0.118711778866,-0.0878987728178,-0.194177640214,0.0180178621917,0.0598906408191,-0.0468441585082,-0.318097069932,3.75605082512,0.668226003647,0.898238837719,-0.562986552715,1.34562826157,-0.661344647408
2017/07/09/10:01:10.125573,405479,1499565672,928912708,,0.790320359215,-0.106131793732,0.235739515847,0.825023754616,0.549959076962,-0.0535309668088,0.118386036248,-0.0801741640838,-0.195944233759,0.0104391324989,0.0566302443574,-0.0627652741238,-0.304478963167,3.75116634369,1.13079738617,0.63571536541,-1.06208217144,1.46762096882,-0.762793004513
2017/07/09/10:01:10.135288,405480,1499565672,938919044,,0.789176833991,-0.108663050245,0.23666364933,0.825770394055,0.54867943598,-0.0539644318784,0.118920027443,-0.105081228578,-0.238318003683,0.00504825319402,-0.00473599571899,-0.0227128290473,-0.343270835259,0.926456928253,1.38189864159,0.343248784542,-1.13880336285,0.411600261927,-0.463969379663
2017/07/09/10:01:10.145199,405481,1499565672,948918243,,0.788577799787,-0.110496684162,0.23629048967,0.826439615979,0.547691603029,-0.05381522244,0.118892350239,-0.119012282586,-0.249788643011,0.0165231319498,-0.0456225729167,0.00118950723354,-0.344871832393,0.021438896656,1.4484910965,-0.490934848785,-0.923685789108,-0.07233902812,-0.300510436296
2017/07/09/10:01:10.155473,405482,1499565672,958919704,,0.787087232655,-0.113455727101,0.236681483412,0.827539312487,0.545909972873,-0.0544463714168,0.119149403887,-0.115015497182,-0.224593221647,-0.00189963349335,-0.0383527081424,0.0286640073078,-0.304129101045,-1.72461950779,0.553223967552,-0.553252696991,-0.63954770565,-0.761633872986,-0.081600472331
2017/07/09/10:01:10.165373,405483,1499565672,968920744,,0.785886495644,-0.115367993179,0.23677380749,0.828143033399,0.545001507931,-0.0548753357723,0.118916651945,-0.110634258583,-0.222984435833,-0.00764175488145,-0.0367883133927,0.0203198720347,-0.293720812014,-1.31245613098,0.300362676382,-0.32935076952,-0.308882266283,-0.637517809868,-0.0850150883198
2017/07/09/10:01:10.175227,405484,1499565672,978920383,,0.785428132058,-0.117002252224,0.237099307201,0.828622757909,0.544258213316,-0.0544483341245,0.119175086422,-0.0942940495684,-0.19662647628,0.0193212910483,-0.0241326071107,-0.0250429950339,-0.267120214999,-2.51954722404,0.372577369213,-0.559648752213,-0.431908279657,-1.10236573219,0.0360336303711
2017/07/09/10:01:10.184996,405485,1499565672,988919642,,0.784557200657,-0.118491738967,0.236784349362,0.829472919755,0.543029447584,-0.0544793646512,0.118851559841,-0.0988604788555,-0.178374686855,-0.000377701371957,0.0189015272273,0.000184407727293,-0.262480520178,-2.02163696289,0.641462683678,-0.808581531048,-0.580654799938,-0.896985173225,-0.00558279454708
2017/07/09/10:01:10.195147,405486,1499565672,998921294,,0.78341435515,-0.120091981806,0.23602866127,0.830036817841,0.542253424488,-0.054923897818,0.118251723488,-0.0973388920167,-0.171019632515,-0.000998919648528,0.0437477271212,-0.00393226484793,-0.251514107949,-1.66691350937,0.7109375,-0.997929930687,-0.615757346153,-0.828233003616,-0.0064405053854
2017/07/09/10:01:10.205198,405487,1499565673,8920632,,0.782456557989,-0.121177191594,0.235989216006,0.830736974971,0.541266825729,-0.0549884450977,0.117824329774,-0.104237812513,-0.160337419388,-0.0158417671422,0.0425079483325,0.0302138084841,-0.261694509594,-1.07459235191,0.862276434898,-0.55734539032,-0.660130679607,-0.659437060356,-0.0596125125885
2017/07/09/10:01:10.215508,405488,1499565673,18919322,,0.780915282725,-0.122968812226,0.235858158418,0.831423182075,0.540238224213,-0.0557704359711,0.117336319518,-0.111700857681,-0.167187701107,-0.015965419818,0.0268006109641,0.051249498684,-0.256989041969,-1.87555122375,1.33807885647,-0.47922706604,-0.79484796524,-1.03193962574,0.0275501459837
2017/07/09/10:01:10.225014,405489,1499565673,28913890,,0.779550162001,-0.125042186559,0.235701712013,0.832164018915,0.539117154072,-0.0562973044928,0.116988688836,-0.128726372267,-0.174389013057,-0.0114570309731,0.000581493676722,0.0942898745009,-0.255868583442,-4.19542980194,1.3558743,-1.47191607952,-0.915008187294,-1.97186911106,0.303364634514
2017/07/09/10:01:10.234951,405490,1499565673,38912547,,0.779278941833,-0.125591807914,0.235738912263,0.832359145758,0.538830351973,-0.0562348944563,0.116951874341,-0.134316363035,-0.171700198468,-0.0274439575034,0.00958952806195,0.119333927917,-0.267006281955,-2.79339361191,1.51292526722,-1.04226458073,-0.859055876732,-1.6327662468,0.20683413744
2017/07/09/10:01:10.245063,405491,1499565673,48919894,,0.777804165526,-0.127841153047,0.235409144682,0.833422447258,0.537160492155,-0.0569363217329,0.116721400528,-0.115044020992,-0.177612261828,-0.0110052486255,-0.0161771533166,0.0632116561165,-0.280317058135,-3.27951860428,1.29741215706,-1.16336560249,-0.799558639526,-1.78783857822,0.260477483273
2017/07/09/10:01:10.255071,405492,1499565673,58921222,,0.776724692666,-0.129131174839,0.234957379865,0.833987925315,0.536375195123,-0.0572498895924,0.116138885082,-0.0981881611664,-0.157924085917,-0.0212276635047,0.0141061215137,0.0376749317231,-0.236084077872,-2.76170492172,0.897400975227,-1.01371717453,-0.679990768433,-1.45382964611,0.188115417957
2017/07/09/10:01:10.265440,405493,1499565673,68942772,,0.776304629716,-0.130593916644,0.235591928585,0.834280465371,0.535843113225,-0.0570961767267,0.116568819643,-0.106422404075,-0.148225761628,-0.0253398566707,0.0246065337865,0.0686054662665,-0.212839365012,-2.64613103867,1.04075288773,-0.141754806042,-0.62222725153,-1.43258440495,0.183820873499
2017/07/09/10:01:10.275306,405494,1499565673,78920534,,0.774887789273,-0.132052889592,0.234666180021,0.835140270856,0.534625490554,-0.0576962597798,0.115704167826,-0.0987345243347,-0.15216490594,-0.022433484611,0.010072887894,0.0528054142311,-0.220012080263,-3.97804117203,0.887910723686,-0.484845936298,-0.647805392742,-1.82264614105,0.290547460318
2017/07/09/10:01:10.285132,405495,1499565673,88919792,,0.774553087879,-0.133320144606,0.234851131425,0.835523671353,0.533997334881,-0.0575551155378,0.115907073233,-0.108632991312,-0.139408606312,-0.0225691439536,0.0271690687105,0.0847869337523,-0.219043884068,-3.34027051926,1.14615154266,-0.281837701797,-0.698750853539,-1.53506660461,0.191555351019
2017/07/09/10:01:10.295053,405496,1499565673,98912391,,0.772694172256,-0.133974477663,0.234180554259,0.83596429433,0.533438677677,-0.0590408389569,0.114547174118,-0.100128199422,-0.121562402003,-0.0119843703531,0.0321821669812,0.0776768828678,-0.202341068773,-4.1936416626,1.93637418747,-0.592423439026,-0.817895948887,-1.83402359486,0.291082143784
2017/07/09/10:01:10.305521,405497,1499565673,108915508,,0.771283425557,-0.136158961798,0.234136962068,0.83686659344,0.532054599524,-0.0593168718008,0.114252862669,-0.106737394473,-0.101518298972,-0.0275370475476,0.0627395565573,0.115465064693,-0.196294882014,-4.36659812927,1.46938455105,-1.06430339813,-0.780852198601,-1.84577929974,0.290169119835
2017/07/09/10:01:10.315229,405498,1499565673,118919147,,0.770123445621,-0.136998553593,0.233689275713,0.837199608886,0.531646988174,-0.0598680711148,0.113420055141,-0.125262992277,-0.12593350866,-0.0240853636057,0.0532019564302,0.132930188749,-0.219350463029,-4.01433181763,1.5556486845,-1.31203055382,-0.657097041607,-1.71207094193,0.259192973375
2017/07/09/10:01:10.325207,405499,1499565673,128924148,,0.768748918224,-0.138696372636,0.23386589746,0.838059420168,0.53021819557,-0.0608198923387,0.113251993582,-0.120817297865,-0.132784544975,-0.0139095228759,0.0349898373632,0.111682250206,-0.24223790784,-5.02413129807,1.73934054375,-1.19156873226,-0.805823385715,-2.0535197258,0.334662437439
2017/07/09/10:01:10.335257,405500,1499565673,138918207,,0.768117510686,-0.138298347704,0.233167045457,0.838175065091,0.530302273273,-0.0609443962898,0.11192783292,-0.13576994121,-0.118971746657,-0.0312345008893,0.0360585527585,0.182132218233,-0.225358386169,-3.92428994179,2.31897187233,-1.44011414051,-0.872013151646,-1.74257147312,0.236297667027
2017/07/09/10:01:10.345383,405501,1499565673,148916644,,0.766911665099,-0.139411035299,0.233428394024,0.838598792454,0.529667859671,-0.0614543214949,0.111478204578,-0.111248362578,-0.0698070102457,-0.0192035402704,0.0711141612894,0.155111243517,-0.167356835862,-5.11674165726,2.08343672752,-1.36871981621,-0.890768647194,-2.1069009304,0.346261292696
2017/07/09/10:01:10.355046,405502,1499565673,158913935,,0.765867677945,-0.140241183445,0.233103706963,0.839115062227,0.528900523558,-0.0620706346695,0.110893574364,-0.120341232903,-0.100959903499,-0.00178861766004,0.0563452472062,0.12673183472,-0.211974333486,-6.22517585754,2.72697806358,-1.45681154728,-1.03206849098,-2.54870986938,0.457857310772
2017/07/09/10:01:10.364882,405503,1499565673,168918288,,0.764755098415,-0.141097050862,0.232944101591,0.839645652709,0.528144135481,-0.0624840875044,0.110248305443,-0.134307085555,-0.112221195808,-0.0195080610793,0.0506621667413,0.167382582307,-0.206852524055,-4.96358585358,2.62371778488,-1.86816561222,-0.895811319351,-2.0901529789,0.347616523504
2017/07/09/10:01:10.375376,405504,1499565673,178913826,,0.763584991013,-0.142475302839,0.232438335743,0.84014184542,0.52744884234,-0.0629013273077,0.109557388209,-0.138304751748,-0.0937058621487,-0.0510369023123,0.0860085132518,0.198823633073,-0.220137542077,-5.46287918091,1.97809362411,-1.68931663036,-0.782263040543,-2.24376416206,0.397613525391
2017/07/09/10:01:10.385258,405505,1499565673,188919256,,0.762165578422,-0.143030092121,0.232211533145,0.840661376885,0.526780360677,-0.063624535301,0.108364290829,-0.119820822289,-0.0664197532991,-0.0497988055037,0.110570293984,0.183785032708,-0.166197838624,-5.17273521423,2.55250549316,-1.32681524754,-0.946336865425,-2.11161661148,0.335065752268
2017/07/09/10:01:10.395092,405506,1499565673,198914121,,0.761572558462,-0.143441744454,0.231972495385,0.840773524495,0.526575459332,-0.0642669461486,0.108110710715,-0.099164462915,-0.0560477177267,-0.033667567808,0.0805133913316,0.151065750192,-0.14407648425,-5.4924325943,2.19730019569,-1.43855881691,-0.866766631603,-2.22815155983,0.397527515888
2017/07/09/10:01:10.405375,405507,1499565673,208920712,,0.760368996282,-0.143965682145,0.232247715763,0.841377755088,0.525746980581,-0.0645318759853,0.107281045092,-0.109898439294,-0.0604672607483,-0.0218834044575,0.0744338383924,0.163250090465,-0.154319594705,-5.07485580444,2.57622480392,-0.716686785221,-0.911540567875,-2.03788781166,0.294796288013
2017/07/09/10:01:10.415195,405508,1499565673,218916538,,0.759023900547,-0.144472967068,0.230754015089,0.84181860314,0.525235474598,-0.0654832946797,0.105740596503,-0.11576325357,-0.0653343460628,-0.0418016127923,0.0745602796804,0.182087030503,-0.173642978931,-5.36382341385,2.42432928085,-1.48585820198,-0.891124784946,-2.11227703094,0.347709059715
2017/07/09/10:01:10.425287,405509,1499565673,228912768,,0.758752335551,-0.144869593973,0.230681620694,0.841738169764,0.525363132585,-0.0656791702916,0.105625182003,-0.0993048195098,-0.0607839341006,-0.0444951898922,0.107095644508,0.138346665714,-0.146476774456,-4.22888660431,2.08550310135,-1.05935287476,-0.651787757874,-1.74384152889,0.251680582762
2017/07/09/10:01:10.435173,405510,1499565673,238947376,,0.757668754156,-0.144976408517,0.230258428079,0.842240826547,0.524704628448,-0.0661970392171,0.104562875731,-0.0874969976486,-0.0536333769013,-0.0397983360433,0.0782909250242,0.136280449048,-0.106591701213,-4.25397253036,2.01108503342,-1.01130783558,-0.600532054901,-1.73675966263,0.234298676252
2017/07/09/10:01:10.445387,405511,1499565673,248921021,,0.757279954553,-0.145572194837,0.230187122361,0.84230961496,0.524563342865,-0.0665113984497,0.104518159877,-0.0802536614236,-0.0462863884761,-0.0297661905872,0.051325859712,0.128778494481,-0.125804105711,-4.50526618958,2.34832310677,-1.31818294525,-0.739466190338,-1.8578338623,0.280207276344
2017/07/09/10:01:10.455253,405512,1499565673,258915231,,0.756809484248,-0.145554302377,0.23018404045,0.842452717732,0.524338370713,-0.0669866854904,0.104189612487,-0.0734972409706,-0.0472367140939,-0.0406530723207,0.0468991151364,0.124731268038,-0.115955285852,-4.28643894196,2.23550844193,-0.87698841095,-0.620393335819,-1.81135547161,0.244789645076
2017/07/09/10:01:10.465294,405513,1499565673,268915850,,0.75590533542,-0.146823115918,0.229705200209,0.843145643971,0.523333900979,-0.0670774223755,0.103574468604,-0.0576959861145,-0.0491438240873,-0.0142880944346,0.0321917473483,0.0692101578466,-0.106870232112,-5.74026727676,2.09165787697,-1.45420753956,-0.683318138123,-2.28648948669,0.400778055191
2017/07/09/10:01:10.475159,405514,1499565673,278920320,,0.755487969961,-0.147280974764,0.229555705742,0.84331999098,0.52306668103,-0.0672283507282,0.103406909192,-0.0658088863064,-0.0522199745787,-0.0249335883871,0.0271736065941,0.0962218454372,-0.0915370052139,-4.85685300827,1.91813623905,-1.32639205456,-0.625292181969,-1.97278547287,0.308392465115
2017/07/09/10:01:10.485677,405515,1499565673,288913387,,0.754970213424,-0.148166258629,0.229732173162,0.843600140032,0.522544608947,-0.0675605212195,0.103544731256,-0.0474095269423,-0.041790573369,-0.0284273962743,0.0215349702003,0.0705906937873,-0.080771454155,-3.95217609406,1.53695249557,-1.01013302803,-0.410650640726,-1.64036345482,0.22609756887
2017/07/09/10:01:10.495181,405516,1499565673,298919512,,0.75392140723,-0.147965816056,0.228401619662,0.843573295411,0.522738443494,-0.0685439659281,0.102129034545,-0.0433694849426,-0.0094717981071,-0.0297820895196,0.0635828565926,0.089305840999,-0.0508005280361,-5.20203876495,2.48786449432,-2.36763930321,-0.882794439793,-2.25869035721,0.364015936852
2017/07/09/10:01:10.504992,405517,1499565673,308913052,,0.753714661627,-0.147585136651,0.228235415825,0.843753877446,0.522499118804,-0.068804826434,0.101685598798,-0.0645130027107,-0.00867731301158,-0.057715631072,0.0679154673294,0.162926511628,-0.0606301553305,-4.68964338303,2.78741884232,-2.13632822037,-0.977847397327,-2.13776159286,0.328437060118
2017/07/09/10:01:10.515182,405518,1499565673,318914719,,0.752912270846,-0.148488796409,0.227913355869,0.8439296841,0.522203731242,-0.0693505395052,0.101372846671,-0.0588542688862,-0.0291590448368,-0.0390727716391,0.0285296088265,0.121448194749,-0.0728892059466,-6.80013465881,2.00152134895,-2.22999787331,-0.964625298977,-2.89527583122,0.557674884796
2017/07/09/10:01:10.525226,405519,1499565673,328914088,,0.752309276594,-0.148189873755,0.227611763944,0.843920141876,0.522304505825,-0.0698090786791,0.100615554787,-0.0486067088621,-0.03854349083,-0.0254761667454,0.0271024186629,0.0669741517137,-0.0838576673799,-6.65749549866,2.37539553642,-2.29954767227,-1.00147509575,-2.9454870224,0.53534257412
2017/07/09/10:01:10.535087,405520,1499565673,338920750,,0.752700976247,-0.148350316386,0.227201054162,0.844107786786,0.522089258814,-0.069119038144,0.100635027123,-0.0294515561396,-0.0107864635462,-0.0256447578242,0.0439067913748,0.0489752901888,-0.040197961863,-4.41868448257,1.94492006302,-1.66481399536,-0.776454508305,-2.13694262505,0.354251593351
2017/07/09/10:01:10.545280,405521,1499565673,348921620,,0.752266457132,-0.148709461732,0.226772520122,0.844228006512,0.521898476546,-0.0694776600463,0.100368859479,-0.0237746704038,-0.0298292391201,-0.0300296535501,0.0229215932574,0.026252742373,-0.0378603424902,-4.05622005463,1.30770134926,-1.84550285339,-0.588056564331,-1.97777378559,0.292628824711
2017/07/09/10:01:10.555207,405522,1499565673,358919951,,0.7524839855,-0.149131248456,0.226735749156,0.844189606463,0.521855806165,-0.06953020937,0.100876042237,-0.0313399470679,-0.0196523460766,-0.0484667141312,0.0229984377625,0.0757015821129,-0.0342384476466,-3.59329128265,1.73206019402,-1.52960371971,-0.628954291344,-1.88623046875,0.313390135765
2017/07/09/10:01:10.565361,405523,1499565673,368917732,,0.752149229494,-0.148627433565,0.226001760572,0.843995600828,0.522251425731,-0.0700474993637,0.10009106822,0.000349761721399,0.0036608219923,-0.0272605035064,0.00319468934192,0.031949746374,0.0107501916119,-5.12832450867,2.37594604492,-2.32228422165,-0.893317461014,-2.45077943802,0.446657478809
2017/07/09/10:01:10.575139,405524,1499565673,378920212,,0.752433207111,-0.148519157463,0.225848260535,0.843965104856,0.522307330363,-0.069878623792,0.100174509586,0.00492747808858,0.005743071748,-0.029292989831,0.0106582520817,0.0249812229699,0.0141937788601,-4.7214512825,1.61324286461,-2.22427916527,-0.681232690811,-2.23011779785,0.380411744118
2017/07/09/10:01:10.585202,405525,1499565673,388920568,,0.751889144927,-0.149571710552,0.225894626372,0.844573945695,0.521319502284,-0.0699061423415,0.100169646369,-0.0222507435269,-0.0218979388606,-0.0332850465629,0.00640713150055,0.0470897614375,-0.0512636847378,-4.7590470314,1.22631502151,-1.65795350075,-0.52989512682,-2.29237699509,0.397763252258
2017/07/09/10:01:10.595263,405526,1499565673,398943127,,0.752098068651,-0.148925232218,0.225357825676,0.844190431424,0.521989021341,-0.0699775566443,0.099865502841,-0.0154098466312,-0.0333531674275,-0.0308896852385,-0.0113818541262,0.0321228292636,-0.0223824359571,-4.7757101059,1.70071101189,-1.91448092461,-0.60929441452,-2.25998449326,0.392839431763
2017/07/09/10:01:10.605215,405527,1499565673,408915641,,0.752770643404,-0.148694260617,0.225425009064,0.843822080802,0.522500213786,-0.0697691953592,0.10044939982,-0.00279338025417,-0.0123098430028,-0.0101655161672,-0.0186998720735,0.0130359914696,0.00906464952103,-3.71468234062,2.17279720306,-1.61082708836,-0.614638745785,-1.9676232338,0.329951196909
2017/07/09/10:01:10.614935,405528,1499565673,418928298,,0.75139291072,-0.149587554738,0.224614521904,0.844257205218,0.521768483432,-0.0710923052205,0.0996659684788,0.00884442512527,0.0158377767496,-0.0247060794361,-6.08453248099e-05,0.0268427359509,0.0462368733732,-3.38511252403,1.27398681641,-1.98078465462,-0.448610574007,-1.75370907784,0.309635162354
2017/07/09/10:01:10.625244,405529,1499565673,428919045,,0.752061140029,-0.149080496854,0.225018472565,0.844082077336,0.522048185121,-0.0705886194654,0.100041920889,0.00523511949554,0.0221424172355,-0.0287020136738,0.00918621489634,0.0441082083691,0.0316069884253,-3.68016147614,0.934885203838,-1.75353741646,-0.442034065723,-1.83942222595,0.336843132973
2017/07/09/10:01:10.635302,405530,1499565673,438926085,,0.751850007763,-0.148622640264,0.224669119184,0.843850434919,0.522414809082,-0.07117531832,0.0996658657752,-0.0142471804461,-0.0234850564603,-0.0178003007503,-0.041790805131,0.0446632204285,-0.0222746674437,-3.75286388397,2.2423620224,-1.82335793972,-0.766633689404,-1.91936790943,0.34447619319
2017/07/09/10:01:10.645360,405531,1499565673,448913653,,0.751875247679,-0.149150867642,0.224344228689,0.843787196163,0.522393125895,-0.0714769794722,0.100098106946,-0.015124574358,-0.0100058215965,-0.020399692337,-0.0420469050132,0.0717766406276,0.0125322452079,-3.93603229523,1.2915968895,-1.72634363174,-0.559358119965,-1.95196557045,0.349065691233
2017/07/09/10:01:10.655086,405532,1499565673,458914644,,0.751727105078,-0.149866705363,0.224435238904,0.844064162572,0.521886397363,-0.07152413071,0.100372189551,-0.0217147503987,-0.0321615726631,-0.0169296281577,-0.0655197720588,0.0636296878192,-0.0197642942708,-3.57022857666,1.07599425316,-1.10981822014,-0.463160216808,-1.81339812279,0.310826599598
2017/07/09/10:01:10.664948,405533,1499565673,468923369,,0.751422622764,-0.149511652993,0.223879458123,0.843910921247,0.522148949303,-0.0720836594963,0.0998938325201,-0.0333651756024,-0.0468134117832,-0.0246429540339,-0.0575508854889,0.070766570812,-0.0430138881445,-2.67556524277,0.952271044254,-1.62879681587,-0.386173963547,-1.48816180229,0.195170655847
2017/07/09/10:01:10.675349,405534,1499565673,478921297,,0.75129156146,-0.150037516638,0.223892570312,0.843826157514,0.522091598054,-0.0727894282155,0.100396604907,-0.00873327493349,-0.0251265762768,-0.026811442092,-0.0622852889859,0.0534936756322,0.00749199921414,-2.66043329239,1.31517410278,-1.55899572372,-0.48600178957,-1.46524620056,0.218993932009
2017/07/09/10:01:10.685113,405535,1499565673,488926629,,0.751299545383,-0.149944640884,0.223646811781,0.843561767135,0.522526226647,-0.0729283705572,0.100256372678,0.0061699272,0.0042416516942,-0.020527883966,-0.0403659880029,0.0406891321068,0.0422843333373,-4.22892951965,1.44034957886,-1.34643006325,-0.545188784599,-2.04706764221,0.383566945791
2017/07/09/10:01:10.695186,405536,1499565673,498921593,,0.75118918109,-0.149773389667,0.223625248896,0.843451066209,0.522649138877,-0.0733232336932,0.100259064141,-0.016426873243,-0.017918767448,-0.0168743493642,-0.0543229490808,0.0656673460428,-0.00518303201723,-4.38395166397,1.38518881798,-1.40633690357,-0.548796534538,-2.08847641945,0.406314611435
2017/07/09/10:01:10.704909,405537,1499565673,508917195,,0.750656329909,-0.150713587325,0.223257923924,0.843649946127,0.522189355633,-0.0741000354523,0.100410308285,-0.0210721374041,-0.0240764091661,-0.00315672730387,-0.0830620673916,0.075674673373,0.0148270501352,-3.97827172279,1.223290205,-1.52915680408,-0.545491337776,-1.95056545734,0.35389059782
2017/07/09/10:01:10.715086,405538,1499565673,518919456,,0.750857005114,-0.150662387552,0.222922351074,0.843401342006,0.522477788222,-0.0744783796243,0.100717963074,-0.0149551989295,-0.0055292717907,-0.034213378301,-0.0634044736199,0.108414193199,0.0386784106684,-2.28515839577,0.737129867077,-1.0154696703,-0.261607915163,-1.34772157669,0.211557716131
2017/07/09/10:01:10.725153,405539,1499565673,528921171,,0.750902599697,-0.150640017892,0.223191026759,0.84322689445,0.522700591768,-0.0745681262289,0.100955883398,-0.0107217233444,-0.0331494719777,-0.00946457834185,-0.102799077173,0.0493827631648,-0.00933306566753,-1.70134365559,0.513888776302,-1.20648372173,-0.138431608677,-1.14537370205,0.144419029355
2017/07/09/10:01:10.735052,405540,1499565673,538920938,,0.750826351497,-0.150689833471,0.222538089937,0.843080024257,0.522910607929,-0.0750139457208,0.100764461799,-0.0209828527405,-0.043408462807,0.0113172895283,-0.0994829291094,0.037608662121,-0.0390567015199,-2.37170410156,0.464016854763,-1.54676520824,-0.116772890091,-1.41177260876,0.205202907324
2017/07/09/10:01:10.744962,405541,1499565673,548917377,,0.750266225611,-0.151476612609,0.223398474697,0.843502938669,0.522087816229,-0.0753894103298,0.101210381936,-0.00836945237578,-0.0193996928548,0.00307051321364,-0.0623566046574,0.0344510316284,0.0123370287565,-1.38226270676,0.00726628303528,-0.837264418602,-0.00689031928778,-0.996244370937,0.130807429552
2017/07/09/10:01:10.755653,405542,1499565673,558947373,,0.751003747164,-0.150994269055,0.223494972983,0.843113679013,0.522674682221,-0.0751453301134,0.101605512592,-0.00314399673707,-0.0160706419031,0.00170280799566,-0.0402561531168,0.0117607489844,0.000279314813042,-1.47820150852,0.86847192049,-1.38681387901,-0.322181284428,-1.10669481754,0.127184838057
2017/07/09/10:01:10.765107,405543,1499565673,568951347,,0.7507008469,-0.151206379315,0.222965559952,0.843069213439,0.522700789758,-0.0756351434517,0.101476651569,-0.00188960198514,-0.0225904701608,-0.00322217772769,-0.055423993753,0.0161679610735,0.00249359098908,-3.0631415844,0.831972897053,-1.66513454914,-0.503381848335,-1.51866769791,0.24954944849
2017/07/09/10:01:10.775097,405544,1499565673,578922905,,0.750477466951,-0.15182889501,0.222768959252,0.843171851967,0.522485221914,-0.0758109137727,0.101602786801,-0.00334111055135,-0.012100568111,-0.0115899467771,-0.0346919723454,0.0301201817188,0.031186485514,-2.41154623032,0.886953055859,-1.35084235668,-0.418954610825,-1.32700288296,0.173207566142
2017/07/09/10:01:10.786043,405545,1499565673,588920731,,0.751001483481,-0.150748356259,0.222995616251,0.842711992582,0.523326717806,-0.0754054067569,0.101388700651,0.00289434818386,0.00697149636364,-0.00757615810785,-0.0268287217121,0.0271183443822,0.0305692254398,-2.65620827675,1.34993171692,-1.07004928589,-0.438155323267,-1.48573994637,0.218206763268
2017/07/09/10:01:10.795357,405546,1499565673,598921453,,0.750381910035,-0.152078611615,0.223190181227,0.84316729281,0.522442551513,-0.0758847814085,0.10180469859,-0.00775618833914,-0.00463201092838,-0.00434700563649,-0.0157954203838,0.0256030265944,-0.00657374211551,-3.24489450455,0.308306246996,-0.971715509892,-0.281364649534,-1.61312866211,0.261837482452
2017/07/09/10:01:10.805193,405547,1499565673,608915679,,0.750397636907,-0.151962801915,0.222772811693,0.84306546709,0.522593633736,-0.0760919000708,0.101717918392,-0.0179579564796,-0.0158038858768,-0.022035045743,-0.0132681348013,0.0497895360778,-0.0174536128114,-2.96311569214,-0.0930746793747,-1.00863075256,-0.144981056452,-1.46489191055,0.211238622665
2017/07/09/10:01:10.815035,405548,1499565673,618943808,,0.750412652568,-0.151825046067,0.222667643594,0.843094054028,0.522524546676,-0.0762962127172,0.101682850611,0.000289154321843,-0.00276397838799,-0.0249717447245,-0.00286110237558,0.0132156783649,-0.00974017665727,-2.18866467476,0.724384069443,-0.323744267225,-0.215015336871,-1.28252410889,0.185730010271
2017/07/09/10:01:10.825422,405549,1499565673,628921543,,0.750354400155,-0.15220488052,0.222677426156,0.843129238385,0.522486512635,-0.0760993189016,0.101734090437,-0.00457627543248,-0.00465644367864,-0.00346136469928,-0.0258656050566,0.023318184055,-0.00410863985621,-2.87475037575,0.498118638992,-0.770274877548,-0.300173640251,-1.52326726913,0.222358316183
2017/07/09/10:01:10.835058,405550,1499565673,638922356,,0.750634506636,-0.151283757372,0.221998442117,0.843087131299,0.522624527583,-0.0761627456885,0.10132585246,-0.0114941511757,-0.0249207085091,0.011058380996,-0.0366502239815,0.00753702105742,-0.0268270790515,-2.70195674896,1.63399386406,-1.01865148544,-0.505298614502,-1.53047895432,0.251614034176
2017/07/09/10:01:10.845595,405551,1499565673,648916622,,0.750098844993,-0.151905006337,0.222576162891,0.843112941713,0.522524621786,-0.0764430612612,0.101415213498,0.00724109095524,0.00771488881628,-0.00799315520079,-0.00917990386706,0.00469433844444,0.0149583886254,-1.8420740366,0.422369480133,-0.728677332401,-0.209837689996,-1.09736502171,0.117234602571
2017/07/09/10:01:10.855325,405552,1499565673,658914291,,0.750282984957,-0.151848496165,0.22272854719,0.842834207391,0.522899337205,-0.0766129316794,0.101672221878,0.000322481363322,0.00811602772991,-0.0127557453775,0.00176050415773,0.0249208065271,0.023063862861,-1.89665842056,0.354875922203,-0.629391372204,-0.175967589021,-1.13822412491,0.129108399153
2017/07/09/10:01:10.865134,405553,1499565673,668927628,,0.750236770556,-0.151914534435,0.222207832343,0.842924029876,0.522726730805,-0.0768092295,0.101667040005,-0.000722433639539,-0.00838805612831,0.0073711946624,-0.0294145499624,0.00322297611067,0.00155092183015,-1.08505296707,0.745420694351,-1.12937808037,-0.339155316353,-0.868190348148,0.0579317957163
2017/07/09/10:01:10.875196,405554,1499565673,678917916,,0.750228754983,-0.151768386409,0.22206266229,0.842874140586,0.522892038424,-0.076657931335,0.101344268943,-0.00705341872749,-0.0207570008764,0.00427832165308,-0.0263358520127,0.00252336800951,-0.0160568259777,-1.75466430187,0.637898921967,-1.04044926167,-0.382463634014,-1.06526768208,0.0941539108753
2017/07/09/10:01:10.884997,405555,1499565673,688916391,,0.750310948563,-0.152006480351,0.222495944127,0.842798290328,0.522919675606,-0.0767391134954,0.101770148591,0.0004572139033,0.00506064600462,-0.0108498111388,0.0062822313445,0.0177929672781,0.0276550781854,-1.59606552124,0.732065320015,-1.20678305626,-0.294495224953,-1.03369343281,0.128031507134
2017/07/09/10:01:10.895040,405556,1499565673,698915033,,0.750406078564,-0.152301173774,0.222410965178,0.843044474702,0.522505569546,-0.0765932592531,0.101967720892,-0.0111645770134,-0.0264660140769,-0.00214791842763,-0.0252572806976,0.00935898682827,-0.0219769020244,-1.35790514946,0.829508423805,-1.28988718987,-0.294583976269,-0.97987049818,0.0890291035175
2017/07/09/10:01:10.905255,405557,1499565673,708921015,,0.75006275328,-0.152794268428,0.222584018609,0.842996678051,0.522465666772,-0.0770687176505,0.102208808817,-0.017856005201,-0.0313508970502,-0.00736193862169,-0.0356090607555,0.0289848270729,-0.0237268921446,-1.83379399776,0.726510226727,-1.12519836426,-0.293033450842,-1.15111374855,0.153052031994
2017/07/09/10:01:10.915068,405558,1499565673,718922189,,0.750209354127,-0.152187875649,0.222324537049,0.842903255437,0.522668306228,-0.077103811466,0.101916367164,-0.00772173483885,-0.0170385588222,-0.00521215175467,-0.0354457571524,0.0206896346903,-0.00779349940154,-1.44582819939,0.717152953148,-1.30682313442,-0.245542407036,-0.971880555153,0.0833930671215
2017/07/09/10:01:10.925108,405559,1499565673,728914184,,0.749359903182,-0.153509683951,0.222327129269,0.843171714516,0.522128905666,-0.0776222893529,0.102066869762,-0.00643408401053,-0.00495809335008,-0.00309988091166,-0.010154599817,0.0200312859338,0.00147624900101,-1.64329969883,0.207152456045,-1.10418510437,-0.185350805521,-1.0223582983,0.101385235786
2017/07/09/10:01:10.935107,405560,1499565673,738919732,,0.749700140937,-0.152797429019,0.222353064957,0.843206560335,0.522146880425,-0.0773883870133,0.101864465961,-0.000970225993056,-0.0172134637936,0.00486556388636,-0.0312328716702,-0.00631321645153,-0.0120064026188,-1.81313633919,0.395659267902,-1.21281588078,-0.187306851149,-1.07768654823,0.114824861288
2017/07/09/10:01:10.945271,405561,1499565673,748923065,,0.749908417306,-0.152814243808,0.222612669208,0.843046141876,0.522321868824,-0.0774363776183,0.102257886921,-0.000743726734091,0.000932675637325,-0.0011672087624,-0.00364845201333,0.00293704563347,-0.0129085658617,-1.73209261894,0.433434069157,-0.999317705631,-0.180837899446,-1.06437063217,0.0917250961065
2017/07/09/10:01:10.955264,405562,1499565673,758918091,,0.749723390229,-0.152701679763,0.222142564824,0.843137575466,0.522314230482,-0.077241920828,0.10168853987,0.00252380647868,-0.0033765078335,0.00611065926895,0.00362462100581,-0.0223703459525,-0.0285599195723,-1.79977142811,1.31975364685,-1.6387424469,-0.478107213974,-1.09983217716,0.12000964582
2017/07/09/10:01:10.965511,405563,1499565673,768916362,,0.750249763196,-0.152075155453,0.221940217148,0.842892114171,0.522691785056,-0.077181615589,0.101829170276,0.0153171755892,0.0152433254376,0.000419643583567,0.00872057434541,-0.0174729820111,0.0397963842512,-2.55170440674,0.86802983284,-1.21156430244,-0.338500380516,-1.30083322525,0.183226197958
2017/07/09/10:01:10.975231,405564,1499565673,778920455,,0.750218562252,-0.152830028758,0.222420603631,0.84303632463,0.522338304371,-0.0771786834546,0.102449509328,0.00259288545744,-0.00586225021407,0.00049977693409,-0.013285120348,-0.0105279560935,-0.00622386810075,-2.1466345787,0.515081048012,-1.21641612053,-0.2567743361,-1.13621008396,0.144338071346
2017/07/09/10:01:10.985282,405565,1499565673,788914519,,0.749927918554,-0.153392238962,0.222258821126,0.843271186829,0.52194832691,-0.0773035555337,0.102410008305,0.00498510377626,-0.0211090206107,-0.00315257941321,-0.016115801619,-0.0245457970941,-0.0128252033533,-2.20026731491,0.544483006001,-1.14080667496,-0.252423286438,-1.10719227791,0.121015176177
2017/07/09/10:01:10.995122,405566,1499565673,798917825,,0.750426236974,-0.152438688841,0.221971547578,0.842774566862,0.522833775658,-0.0771120571376,0.1021254284,-0.00137990277464,-0.014230351908,-0.0194453571721,-0.00865566307385,0.00715882009205,-0.00035260236796,-1.47428882122,0.942882418633,-0.810072362423,-0.290628910065,-0.853716254234,0.0511649101973
2017/07/09/10:01:11.005449,405567,1499565673,808920346,,0.750356289652,-0.152713609109,0.222113721184,0.8428307508,0.52272175446,-0.0770402387103,0.102289268936,0.0132290335109,0.00947694251947,-0.0113096019021,-0.00587552750147,0.00156878220406,0.0355281232651,-1.94646859169,0.811132013798,-0.843170881271,-0.219210296869,-0.994685411453,0.11503341049
2017/07/09/10:01:11.015205,405568,1499565673,818917259,,0.750097866343,-0.15325625766,0.221813019501,0.843119415746,0.522243778584,-0.0771429420713,0.102274400568,-0.00807691494147,-0.00795533766908,-0.00257733949709,-0.0129704977767,0.0201257054204,0.00207274457573,-1.29983079433,0.843059837818,-0.652613282204,-0.288273781538,-0.785102903843,0.0126569122076
2017/07/09/10:01:11.025260,405569,1499565673,828915807,,0.749863044886,-0.15337621941,0.22204246862,0.843018326149,0.522308734194,-0.0775955807387,0.10243346041,-0.00289575242783,-0.00872010230669,0.00391464739761,-0.0300277749435,0.00571975006215,-0.00531809199548,-2.09367704391,0.293789565563,-0.540723502636,-0.103469759226,-1.00592386723,0.112848326564
2017/07/09/10:01:11.035073,405570,1499565673,838925880,,0.750361334748,-0.15242260056,0.221755208738,0.842721923129,0.522870886692,-0.077364766702,0.102178711098,-0.00101013939302,0.00121480926195,0.00197322329918,-0.0221182293812,0.0175787513162,0.00839124459036,-1.93772935867,1.52610111237,-1.24261903763,-0.497638761997,-1.04066312313,0.116734221578
2017/07/09/10:01:11.045120,405571,1499565673,848920086,,0.749827342173,-0.15376409252,0.222093107266,0.842930830592,0.522359791855,-0.0777935767344,0.102742503912,-0.00651185404016,0.003345131402,-0.0147895100458,0.00530449776161,0.0347342285525,0.0200537404639,-1.54625177383,0.214745730162,-0.771599292755,-0.158652111888,-0.812968075275,0.0353829413652
2017/07/09/10:01:11.055145,405572,1499565673,858919915,,0.75031340727,-0.153081134958,0.221957658241,0.842910000587,0.522434198135,-0.0775521302292,0.102717606213,0.00862154078966,0.00716958395735,-0.0108887107537,0.00215428086249,-0.000201010088616,0.0246734001533,-1.53927648067,0.546863496304,-0.762183785439,-0.174623131752,-0.872607409954,0.0680292248726
2017/07/09/10:01:11.065330,405573,1499565673,868913485,,0.750084568335,-0.153553450781,0.222035442397,0.842624502917,0.522772135098,-0.0780555971376,0.102959048191,-0.0108630679867,-0.00425991593605,-0.0171138697871,-0.00658244936849,0.0343535490614,-0.0130105742818,-1.8468708992,0.55102199316,-0.44958370924,-0.236963793635,-0.943944334984,0.0447915494442
2017/07/09/10:01:11.075240,405574,1499565673,878941259,,0.750270244817,-0.152778534358,0.22152540907,0.842631933893,0.522945979431,-0.0776508769387,0.102319440435,-0.00641192633433,-0.00402863190752,-0.00400951638831,-0.0133716174731,0.0191135887558,-0.010782116418,-2.03271389008,1.13590574265,-0.752275288105,-0.335877150297,-1.05656647682,0.122167818248
2017/07/09/10:01:11.085130,405575,1499565673,888943527,,0.749989169624,-0.153520691503,0.221688138241,0.842734656544,0.522545429784,-0.0784800921437,0.10288560448,-0.00569397881034,-0.0030699961473,-0.0033894339239,-0.0051634617444,0.0121437308314,-0.0125975616005,-2.31025123596,1.04945135117,-0.530452311039,-0.42072057724,-1.10180187225,0.101791128516
2017/07/09/10:01:11.095350,405576,1499565673,898914887,,0.749864911639,-0.153431850193,0.221908290901,0.842806149643,0.522522934185,-0.0781318570279,0.102679064526,0.00247756013094,0.009905581939,0.00083031195377,0.00475671679876,0.008402589037,0.00811410287328,-2.22256302834,0.731576323509,-0.528991818428,-0.288244187832,-1.09100186825,0.143151164055
2017/07/09/10:01:11.105074,405577,1499565673,908920834,,0.750138642287,-0.152681352775,0.221655856624,0.842643205112,0.522909921541,-0.0778890599249,0.102229825281,0.00354168410587,0.00482953306111,0.00363124039023,-0.000914089179027,0.000923503133212,0.014436259293,-2.10663485527,1.24038481712,-0.578793048859,-0.333069384098,-1.12809026241,0.121966853738
2017/07/09/10:01:11.115207,405578,1499565673,918920303,,0.749468665967,-0.153872774406,0.221210891291,0.842954511952,0.52232172006,-0.0783440937611,0.102322600169,-0.00608201324023,-0.00305934793555,-0.0100135209593,-0.00610397485677,0.0271591651348,0.00113460830708,-2.44657444954,0.50169634819,-0.602153241634,-0.271446764469,-1.13829553127,0.122929304838
2017/07/09/10:01:11.124950,405579,1499565673,928914484,,0.750009347362,-0.153270719281,0.221741890789,0.842693879119,0.522725402315,-0.0780978147622,0.102595863457,0.000764850401607,-0.00244485372952,-0.0128577064228,-0.00469403181743,0.00642761370788,0.00534366052772,-2.4237985611,0.942504703999,-0.612223446369,-0.369592666626,-1.17328381538,0.125679135323
2017/07/09/10:01:11.135054,405580,1499565673,938916304,,0.749996782595,-0.153323602891,0.221189883034,0.84262385347,0.522897453015,-0.0780585394009,0.102323797916,0.000388345662551,0.00224634028337,-0.00231790084055,0.0217207464338,-0.00591216131748,0.00572538256225,-2.85770463943,1.23063969612,-0.744605481625,-0.45853126049,-1.37901616096,0.192552790046
2017/07/09/10:01:11.145263,405581,1499565673,948913405,,0.749653885464,-0.152706578298,0.221003457415,0.842322616125,0.523388999769,-0.0786548886911,0.101833068158,-0.0111222100828,0.000639212318271,-0.00599093494753,0.00203778470992,0.0310770081317,0.000510372037006,-2.51112985611,0.864633262157,-0.658656418324,-0.291196703911,-1.22405362129,0.165576890111
2017/07/09/10:01:11.155066,405582,1499565673,958920847,,0.749959223864,-0.153012649071,0.22116892237,0.842723276792,0.52277205916,-0.0780134314625,0.102180024593,-0.00110866013431,0.0115306561609,-0.018397980823,-0.000661150776776,0.0382963911356,0.0106576751997,-1.93133687973,0.85307008028,-0.565410733223,-0.329269170761,-1.03419184685,0.056458517909
2017/07/09/10:01:11.165204,405583,1499565673,968919785,,0.749699613792,-0.153707562912,0.221507510169,0.842914993169,0.522246044062,-0.0787011361496,0.102759500394,0.0114553504558,0.00272301178622,0.00353272052672,0.00090917527929,-0.0302118377349,-0.0120317026897,-2.73334431648,0.358630806208,-0.0910115689039,-0.139332696795,-1.27561497688,0.162138998508
2017/07/09/10:01:11.175236,405584,1499565673,978931201,,0.749409850345,-0.153655041093,0.220934857771,0.842781156254,0.522546480526,-0.0789100617429,0.102168001392,0.00696042844305,0.00397810265632,0.00151380738399,-0.00130709584309,-0.0121802051263,0.00443935251335,-3.19382691383,0.8007158041,-0.508839964867,-0.329586654902,-1.44078373909,0.186149582267
2017/07/09/10:01:11.185144,405585,1499565673,988913899,,0.750431923319,-0.152600093872,0.221185363997,0.842476899108,0.523166402095,-0.0778600911595,0.102310294661,-0.00717924180488,-0.0102888832247,-0.000580175938747,-0.00197903533515,0.000285495649065,-0.024431872418,-2.02238059044,1.41873645782,-0.402042984962,-0.424867421389,-1.10681736469,0.113064900041
2017/07/09/10:01:11.195364,405586,1499565673,998917107,,0.750049811985,-0.152591987641,0.221333235834,0.842571914723,0.522985096419,-0.0782439825676,0.102161815937,-0.00384727849205,-0.00890017875235,0.000375993308277,-0.0117699168256,0.00502395660908,-0.00727800311178,-2.85208749771,1.65976881981,-0.361609041691,-0.497867643833,-1.35865020752,0.18047118187
2017/07/09/10:01:11.205191,405587,1499565674,8922866,,0.749111660192,-0.153292272704,0.220794699766,0.842700211295,0.522657290025,-0.0793835326724,0.101901745851,-0.00307275416388,0.00581147486251,0.00017278197908,-0.000669952116665,0.0164145171514,0.00636358513048,-3.22902679443,0.89128947258,-0.742523550987,-0.3440335989,-1.46460950375,0.215341091156
2017/07/09/10:01:11.215151,405588,1499565674,18925211,,0.750161376253,-0.152232575905,0.220602017615,0.842661847845,0.522965234616,-0.0780856644782,0.101641539599,0.00263404648367,0.0170562163465,-0.00512439623891,0.0150939167648,0.0116089878986,0.0178832899394,-2.1224822998,0.930173158646,-0.693564236164,-0.264571398497,-1.10754418373,0.13810801506
2017/07/09/10:01:11.225169,405589,1499565674,28914787,,0.749863422365,-0.152979930297,0.220821630204,0.842733096585,0.522706985923,-0.0784577993117,0.102091667212,0.00421050069532,0.0117467636882,-0.00729330833232,-0.00065602561412,0.0133499052381,0.0229937687624,-2.58503270149,0.935265541077,-0.805704832077,-0.357336759567,-1.30097746849,0.172878980637
2017/07/09/10:01:11.235505,405590,1499565674,38916749,,0.749795024908,-0.152891924468,0.221061092136,0.842608530734,0.522848645826,-0.0787348446858,0.102181122153,-0.00625976448532,-0.0232001177099,0.0134122228622,-0.01931825793,-0.0181946152687,-0.0352922483279,-1.61897540092,1.24903464317,-0.343750715256,-0.300618112087,-0.981599807739,0.0921685472131
2017/07/09/10:01:11.245084,405591,1499565674,48919223,,0.750203485449,-0.152528131879,0.220926487952,0.842350095791,0.523315565399,-0.0783564806953,0.102212509335,-0.00255717604335,-0.00630846747816,-0.00534030650478,0.00126193428772,0.00425953326069,-0.00677146689391,-1.25628805161,1.1893196106,-0.436629295349,-0.343644499779,-0.764090895653,0.0215867459774
2017/07/09/10:01:11.255175,405592,1499565674,58919765,,0.750433178091,-0.152769295493,0.221502961474,0.842564078545,0.522961131367,-0.0779039255624,0.102608026036,0.00757295012458,0.0113088832547,-0.00368618242905,0.00347912172015,-0.00373320416866,0.013705664539,-0.418661594391,0.772068321705,-0.0353937000036,-0.169160798192,-0.523057460785,-0.0479738414288
2017/07/09/10:01:11.265317,405593,1499565674,68913689,,0.749908540191,-0.153311281503,0.221048588036,0.842768225291,0.522686019989,-0.0781298786317,0.102160486553,0.00352452385177,-0.00165034556647,0.0026462816294,-0.00236291584529,-0.00732149372088,0.0142629531771,-1.75853443146,0.420144379139,-0.629006803036,-0.191695526242,-0.910181224346,0.0538235753775
2017/07/09/10:01:11.275148,405594,1499565674,78918657,,0.749892710563,-0.153601383868,0.221792465353,0.842643318526,0.52270708231,-0.078510792565,0.102789101061,-0.00721370456843,-0.0122485821227,-0.00981652654881,-0.000745711886321,0.0117909418163,-0.00845323769227,-1.42987370491,0.750886797905,-0.0491373240948,-0.173932239413,-0.840059041977,0.0520180165768
2017/07/09/10:01:11.285264,405595,1499565674,88923762,,0.74953517035,-0.153760272528,0.220392773885,0.842893268088,0.522412270389,-0.0787174617542,0.102078007299,-0.00943912367364,-0.0015174290397,-0.000141689270607,-0.0016974118678,0.018524085837,-0.0107022366394,-2.21932387352,0.448593318462,-0.895119309425,-0.247088685632,-1.06304144859,0.118891835213
2017/07/09/10:01:11.295210,405596,1499565674,98917184,,0.750391843597,-0.152054941278,0.220781593214,0.842146807373,0.523696033651,-0.0783074888971,0.101976253868,0.00983795507946,0.00424367713103,0.00488569499183,-0.0025945334556,-0.0223558434287,-0.00101064907115,-1.03228473663,1.23263633251,-0.752737522125,-0.267686486244,-0.761492490768,0.0498152002692
2017/07/09/10:01:11.305111,405597,1499565674,108927834,,0.750086195482,-0.153299486139,0.221060876048,0.842796457267,0.522595477365,-0.0781176181394,0.102399884723,0.00635241115663,0.0188637247119,-0.0109958881381,0.0150017443061,0.0109421512999,0.023140860047,-1.5497906208,0.0276173949242,-0.534383833408,-0.104488842189,-0.838984847069,0.0548914819956
2017/07/09/10:01:11.315040,405598,1499565674,118917050,,0.749859126725,-0.153396604114,0.221119914835,0.842556295198,0.522862430102,-0.0786970810938,0.102569674065,0.00636057708088,0.00560136917932,0.00757571885449,-0.00640827789892,-0.0117034027562,-0.00740645239082,-0.369122207165,0.0703717768192,-0.46890220046,-0.0529364347458,-0.400490820408,-0.0897093936801
2017/07/09/10:01:11.325159,405599,1499565674,128928431,,0.749775419215,-0.153206963158,0.22107211249,0.84269062885,0.522703776322,-0.0786397468515,0.102318407349,-0.0112531028083,-0.0107028208079,-0.00424848921844,-0.00447102254508,0.0138830059559,-0.0331238069466,-0.906141519547,0.402566939592,-0.596144795418,-0.163607865572,-0.586857259274,-0.0401629209518
2017/07/09/10:01:11.335262,405600,1499565674,138924031,,0.749883647593,-0.152763501939,0.220679649472,0.842735280305,0.522786744835,-0.0782726033067,0.101807005293,0.00173367383004,0.00378593715547,-0.00563217095542,0.00392452341539,0.0064478535605,0.0151505783808,-1.56081783772,0.714199960232,-0.653649508953,-0.180246531963,-0.822064399719,0.0540986284614
2017/07/09/10:01:11.345472,405601,1499565674,148913676,,0.749824315267,-0.153077927813,0.220623500053,0.842829764749,0.522552803195,-0.0785336591985,0.102024604385,0.005650622222,-0.00220740539088,-0.0122857305145,0.00398525996986,-0.0032803984026,0.0164220672133,-1.57675290108,0.442237615585,-0.607694506645,-0.164650246501,-0.838068664074,0.0433105826378
2017/07/09/10:01:11.355179,405602,1499565674,158915399,,0.749762725886,-0.153477416551,0.221224259892,0.842565222165,0.52286237082,-0.0787080736473,0.102488178449,0.00390152682283,0.00619892556938,-0.00366540395954,0.0137022421731,-0.0034195444237,0.00862856711201,-1.839194417,0.281291514635,-0.177743479609,-0.148471236229,-0.863824605942,0.0681437700987
2017/07/09/10:01:11.364970,405603,1499565674,168914340,,0.750488106076,-0.151973811871,0.220677365767,0.842338674346,0.523373128868,-0.0782573015475,0.102087807473,-0.00781575878853,-0.00320906051284,-0.0065449722436,0.0131954065688,0.00781079993667,-0.0165969850947,-1.55822873116,1.55646395683,-0.635413050652,-0.385458350182,-0.927625536919,0.0638608038425
2017/07/09/10:01:11.375106,405604,1499565674,178919845,,0.750718253845,-0.152248621259,0.221057427773,0.842294859232,0.523403514183,-0.078060711642,0.102443431946,0.00404921762828,0.00469828674339,-0.00332329752422,-0.00652812713527,0.00389265584568,0.0123836312939,-0.584321677685,0.677781045437,-0.622419178486,-0.160236775875,-0.515543818474,-0.0461019873619
2017/07/09/10:01:11.385462,405605,1499565674,188915840,,0.750243639631,-0.152252817276,0.220332091824,0.842440414744,0.523328926891,-0.0780987233904,0.101595134182,-0.0142721542558,-0.0117907707887,-0.004912141698,0.00162175975478,0.0267968199965,0.004975157336,-1.14618182182,0.554899930954,-0.690443873405,-0.198785692453,-0.73768901825,0.00904330611229
2017/07/09/10:01:11.395230,405606,1499565674,198917443,,0.750023143831,-0.152745914166,0.220615747266,0.842690349847,0.522874573808,-0.078150495546,0.101821679352,-0.00850529151449,-0.00255957308088,-0.00404464995928,0.0280638951052,0.00773325453243,-0.0161969834967,-0.165546625853,0.141297310591,-0.660993516445,-0.0253141373396,-0.38115811348,-0.0816319286823
2017/07/09/10:01:11.405042,405607,1499565674,208916679,,0.749630261817,-0.153058014285,0.220398508263,0.842986727842,0.52243304503,-0.0782389514175,0.101566513296,-0.00175173244697,-0.00423027483366,-0.0132397814886,-0.000739143118052,0.00751941752387,-0.0146238749511,-0.368422865868,0.626143574715,-0.669918358326,-0.20744112134,-0.427291214466,-0.0609324947
2017/07/09/10:01:11.414875,405608,1499565674,218915600,,0.749328854784,-0.152900492742,0.219959667645,0.842873098098,0.522658975222,-0.0785724233774,0.101088626495,-0.000714338960778,0.00881655191689,-0.0152926008785,0.0181958559704,0.0167457683165,0.00590876224503,-0.697463512421,0.0234586894512,-0.889136314392,-0.0799796879292,-0.499233990908,-0.059693723917
2017/07/09/10:01:11.425330,405609,1499565674,228919400,,0.749321038834,-0.153424520279,0.220089652939,0.842679838622,0.522833217263,-0.0789324018029,0.101517449003,-0.00838156571913,-0.0158405907539,-0.00659951573727,-0.0076749241232,0.00531779342512,-0.0278248494842,-1.13336396217,0.512855112553,-0.733807325363,-0.143140941858,-0.713379383087,0.0296263694763
2017/07/09/10:01:11.435394,405610,1499565674,238928371,,0.749474152282,-0.153360683542,0.21968284036,0.842758706803,0.522679211936,-0.0789866096134,0.101613576942,-0.00348466106694,0.0072146341666,-0.0226278542676,0.0128715914025,0.0299849835636,0.00220911745758,-0.760475575924,0.357545763254,-0.852110207081,-0.179519921541,-0.553401947021,-0.0568847209215
2017/07/09/10:01:11.445217,405611,1499565674,248919539,,0.749580395319,-0.152888663733,0.219495626078,0.84264559823,0.522917450481,-0.078927247305,0.101371718934,-0.00870407711922,-0.00892218762791,-0.0145554062017,-0.0111579876808,0.0332424893633,-0.00144715154928,-0.992694437504,0.876348078251,-0.35233476758,-0.24013158679,-0.689730703831,-0.00284068286419
2017/07/09/10:01:11.455078,405612,1499565674,258925948,,0.749576058527,-0.152614092979,0.219829751565,0.842644637149,0.523003449122,-0.0786714750708,0.101134596957,0.00677362988988,0.0105712871966,-0.00406613458929,0.01714225833,-0.00491846721393,0.0106976506843,-1.27784848213,0.717721223831,-0.293392151594,-0.206435635686,-0.751109004021,0.0345011353493
2017/07/09/10:01:11.465085,405613,1499565674,268918667,,0.749600425195,-0.153118189895,0.219820898856,0.842604973162,0.522928479163,-0.078989840792,0.10160349371,-0.00103071288329,-0.00299840769989,0.00277624760133,-0.00109110544608,-0.00625762178331,-0.00841019403375,-0.755049407482,0.939868688583,-0.634801268578,-0.283010423183,-0.610322833061,-0.0326391160488
2017/07/09/10:01:11.475169,405614,1499565674,278921010,,0.749898743593,-0.152321618341,0.219214852953,0.842375370121,0.523478915185,-0.0786120441211,0.100963892993,-0.00381366256842,0.0126495807254,-0.0224703555194,0.0153819420106,0.0381146303301,0.00825416505169,-0.0879280269146,0.623915493488,-0.565964877605,-0.140435665846,-0.392110168934,-0.0469601526856
2017/07/09/10:01:11.485286,405615,1499565674,288915395,,0.749309631666,-0.153064960829,0.219248993622,0.842671069782,0.522905192478,-0.0791589932073,0.101041979524,-0.00753398057221,0.00701246926812,-0.016378659054,0.0147160540921,0.0333549578264,-0.00404208846865,-1.20667040348,0.232394248247,-0.786144435406,-0.189655914903,-0.695355117321,-0.0160934627056
2017/07/09/10:01:11.495153,405616,1499565674,298927081,,0.749401047033,-0.152291129189,0.219083204949,0.842533426597,0.523107023007,-0.079450385001,0.100916321131,-0.00433312900062,0.0018363600681,-0.00983950537497,0.00586090550314,0.019300910671,-0.00531834190729,-0.721418619156,0.711486935616,-0.889694333076,-0.189863905311,-0.603084385395,-0.00746220350266
2017/07/09/10:01:11.505254,405617,1499565674,308921036,,0.749516980085,-0.152863750575,0.218804607418,0.842665614097,0.522932210662,-0.0790809813588,0.101008733572,-0.00567394681291,0.0144799961089,-0.0211273056128,0.0286062231933,0.0381773367096,0.0134412250693,-0.2358302176,-0.482175379992,-0.686991691589,0.0907494574785,-0.380545914173,-0.0809979662299
