time,.header.seq,.header.stamp.secs,.header.stamp.nsecs,.header.frame_id,.pose.position.x,.pose.position.y,.pose.position.z,.pose.orientation.x,.pose.orientation.y,.pose.orientation.z,.pose.orientation.w,.twist.linear.x,.twist.linear.y,.twist.linear.z,.twist.angular.x,.twist.angular.y,.twist.angular.z,.wrench.force.x,.wrench.force.y,.wrench.force.z,.wrench.torque.x,.wrench.torque.y,.wrench.torque.z
2017/07/09/10:07:04.594420,440926,1499566027,399195714,,0.783345998751,0.386684283959,0.166047482426,0.629405513113,0.774528943171,0.053850708757,0.0324610138332,0.01210348943,-0.0829337346304,-0.0073473861083,-0.0428503115671,0.00642436650301,-0.100414397032,3.91381525993,4.11625671387,-1.20269727707,-1.36127877235,1.53679943085,-0.0715374350548
2017/07/09/10:07:04.604429,440927,1499566027,409201302,,0.78337192893,0.385635592143,0.165932604696,0.62973092268,0.774271736332,0.0536186517545,0.0326693055141,0.0266051892717,-0.0884744819516,-0.00461270554296,-0.079950373946,-0.0339871771229,-0.0910968483451,3.34784674644,3.98417711258,-1.20673072338,-1.14257490635,1.38378083706,-0.00589232891798
2017/07/09/10:07:04.614368,440928,1499566027,419219005,,0.784141817463,0.385087121528,0.166088664755,0.62990041646,0.774095538085,0.0536351230424,0.0335385872862,0.0384893310293,-0.0978830418691,0.0130902900146,-0.104415506105,-0.069382450934,-0.0694271317431,3.86981749535,4.2722568512,-1.22150826454,-1.30190634727,1.59732651711,-0.0903159677982
2017/07/09/10:07:04.624207,440929,1499566027,429207732,,0.784160114871,0.383554582953,0.166090639013,0.630363925902,0.773741495278,0.0531256466476,0.0338095411754,0.0405754491364,-0.0999925140672,0.0206353980482,-0.0746449998923,-0.0697386142644,-0.108052382797,3.14208674431,4.14462471008,-1.35784447193,-1.23313271999,1.30289244652,-0.0685790851712
2017/07/09/10:07:04.634465,440930,1499566027,439196561,,0.784759031066,0.382816855118,0.166232423957,0.631123412378,0.773097345115,0.0532811598842,0.0341299183366,0.0270010860268,-0.105916114069,0.00491279679201,-0.0843606163992,-0.0279957639582,-0.105166411047,3.32954406738,4.39362764359,-1.63033127785,-1.32228696346,1.35351276398,-0.0964225009084
2017/07/09/10:07:04.644597,440931,1499566027,449204625,,0.784495532974,0.381940532181,0.166116445481,0.630954812381,0.773270291538,0.0526200660485,0.0343541788925,0.0255429175592,-0.108740338672,-0.00339396505072,-0.0749986078376,-0.0243749351321,-0.11108881841,3.29487419128,4.72800111771,-1.65972650051,-1.46813678741,1.328576684,-0.0734051764011
2017/07/09/10:07:04.654398,440932,1499566027,459197454,,0.785108317409,0.380669548574,0.166215994512,0.631170195519,0.773070276529,0.0523270425471,0.035332880648,0.0241297316654,-0.0954766721084,-0.0014930094337,-0.0827941096596,-0.0328021443252,-0.0709123143925,2.74857068062,4.52565336227,-1.66052937508,-1.34473443031,1.16310894489,-0.0352320186794
2017/07/09/10:07:04.664754,440933,1499566027,469206665,,0.785606427283,0.380030044534,0.166487392972,0.631434511073,0.772826699686,0.0524218168275,0.0357953013636,0.0241976962037,-0.102369692941,-0.00682730491554,-0.11670362758,-0.0215523269955,-0.0732488344398,2.48950982094,4.71122026443,-1.87437343597,-1.37348365784,1.01819443703,-0.0894272625446
2017/07/09/10:07:04.674667,440934,1499566027,479196718,,0.785876785504,0.378636347831,0.16635746672,0.631729915003,0.772578182653,0.0519600668179,0.0366117144371,0.0209193995439,-0.118317120325,-0.00773342861916,-0.158838108366,-0.0297073239913,-0.078360491876,2.78934144974,4.44485425949,-1.82049703598,-1.19140613079,1.18329954147,-0.0379174351692
2017/07/09/10:07:04.684528,440935,1499566027,489193343,,0.786340441082,0.377289289542,0.166428756455,0.632140258881,0.772249514051,0.0512947058043,0.0373929713356,0.0310595797354,-0.123430988581,0.000394589668278,-0.169760550131,-0.0457288540991,-0.0579891076002,2.50178861618,4.64828205109,-1.79780089855,-1.23613739014,1.0841653347,-0.0733327567577
2017/07/09/10:07:04.694510,440936,1499566027,499195377,,0.786191795833,0.375499109413,0.166148488232,0.632605598504,0.771903050125,0.050446650686,0.0378282088445,0.0278753930271,-0.116127081249,-0.00154339785186,-0.134976761281,-0.0332886617733,-0.0934299692216,2.58379220963,4.55835199356,-1.78599321842,-1.10578370094,1.10926139355,0.0201191008091
2017/07/09/10:07:04.704541,440937,1499566027,509197260,,0.786502649331,0.374704050469,0.166268195313,0.633041842625,0.771532546246,0.0504869570341,0.0380344940514,0.0286689143407,-0.141036434303,0.00849629406947,-0.132305277745,-0.0341225218015,-0.125687278489,2.47615909576,4.80984735489,-1.94431495667,-1.22136056423,1.04365801811,-0.00844640284777
2017/07/09/10:07:04.714506,440938,1499566027,519188970,,0.7867598137,0.374059572337,0.166142993157,0.633052832317,0.771523318714,0.0501235558362,0.0385163513999,0.0152145050094,-0.105137780692,-0.000126808340106,-0.141745929523,-0.0202059472009,-0.0597106137488,2.50732111931,5.17595863342,-1.83559334278,-1.27770876884,1.07045662403,-0.00140095502138
2017/07/09/10:07:04.724370,440939,1499566027,529191284,,0.786805229035,0.372754306157,0.166322062194,0.633185063883,0.771430620569,0.049494216963,0.0390101911167,0.0248460205088,-0.121939087804,-0.0107315424044,-0.142508683925,-0.0230440941872,-0.0741495141572,2.32942652702,5.18743896484,-1.86531662941,-1.27394235134,1.00371003151,-0.0389343388379
2017/07/09/10:07:04.734698,440940,1499566027,539197043,,0.786540454967,0.371536186954,0.165702347119,0.633489293335,0.771229945172,0.048776298724,0.0389430299658,0.0233563170364,-0.115269801628,-0.00528274886889,-0.12086326174,-0.02154636894,-0.0765163322192,2.78842568398,5.38981342316,-1.80654907227,-1.35665559769,1.17786586285,-0.0626192912459
2017/07/09/10:07:04.744542,440941,1499566027,549195690,,0.787324542568,0.370258844913,0.166061309644,0.634111935357,0.770676994149,0.048731681256,0.0398026050604,0.00867218431627,-0.111658030413,-0.0133304959265,-0.0995846804138,0.0154365545675,-0.105434704151,2.79552316666,5.38761138916,-1.91240954399,-1.36013531685,1.1409996748,-0.0653719231486
2017/07/09/10:07:04.754466,440942,1499566027,559196664,,0.78784700745,0.369143745704,0.166179962961,0.634568479502,0.770255313827,0.048950238367,0.0404162159099,0.0243608623286,-0.117123446712,0.000696402288023,-0.0854437429727,-0.0272205072071,-0.112599110981,1.6855134964,3.55663943291,-1.66816782951,-0.907402396202,0.686555147171,-0.0451471284032
2017/07/09/10:07:04.764323,440943,1499566027,569191013,,0.787191292861,0.36676141012,0.165605181994,0.635862666096,0.76927713608,0.0477648018021,0.0401233283588,0.0257083273554,-0.174458956499,0.00327409059384,-0.0967501627656,-0.0235242820506,-0.204147667227,0.571096718311,1.21270084381,-1.15622973442,-0.422769516706,0.191739961505,-0.0549379512668
2017/07/09/10:07:04.774655,440944,1499566027,579193521,,0.787596402249,0.365482782167,0.165933448125,0.635949083171,0.769179734502,0.0471171062326,0.0413675953657,0.0307006676248,-0.173073740882,0.00319735305571,-0.156505753501,-0.0445231514572,-0.171734888374,0.175515130162,1.13925933838,-0.8262616992,-0.89361512661,-0.0451967865229,-0.289598166943
2017/07/09/10:07:04.784489,440945,1499566027,589188372,,0.788354717416,0.364041579987,0.165719286945,0.636490484122,0.768708857124,0.0467313282935,0.0422225006079,0.0213224788635,-0.167219867408,-0.0104532058696,-0.171135869661,-0.0148823043952,-0.179933774198,0.473031550646,1.28366017342,-0.745208144188,-1.06059420109,0.0545211099088,-0.328054100275
2017/07/09/10:07:04.794527,440946,1499566027,599196623,,0.787883446159,0.362116066573,0.165726839382,0.636815209337,0.768477094098,0.0454994726717,0.0428852304459,0.0181161065876,-0.18559646071,-0.0108714261003,-0.186225403734,-0.00799336472411,-0.192881606669,1.30506551266,1.00793194771,-0.813786327839,-0.607512593269,0.383622974157,-0.0807570666075
2017/07/09/10:07:04.804400,440947,1499566027,609194742,,0.788401598874,0.360226878487,0.165924335937,0.637714713592,0.767715875796,0.0451301034176,0.0435379361525,0.0229297615019,-0.211182780355,-0.00557300260009,-0.216660372474,-0.00809156449289,-0.20094041768,0.888745486736,-1.1785607338,-0.910462081432,0.87067168951,0.273869365454,0.375359833241
2017/07/09/10:07:04.814218,440948,1499566027,619189033,,0.788672324339,0.356651985683,0.165232322916,0.638345260084,0.76723653052,0.0434507123589,0.0444462682314,0.0220593152021,-0.245504383187,0.00176337693643,-0.282716323302,-0.00867569140411,-0.170405512164,1.03308856487,-2.31577992439,-0.959232449532,1.59205257893,0.356835752726,0.494827270508
2017/07/09/10:07:04.824610,440949,1499566027,629190970,,0.789385988625,0.354112426305,0.165777165727,0.63879734926,0.766789946795,0.0425732591161,0.046461184663,0.0366077646567,-0.281647041661,0.0163549823477,-0.354627932083,-0.0570479452185,-0.15649998541,1.72035968304,-2.5243268013,-1.1216943264,1.8989841938,0.646560788155,0.42248660326
2017/07/09/10:07:04.834466,440950,1499566027,639196684,,0.789761007269,0.351589430312,0.166098667376,0.639754287722,0.765979653534,0.0418740200776,0.0472883511618,0.0340287636898,-0.264687211091,0.00980656298938,-0.334977022684,-0.0522120472217,-0.136644742905,2.88665032387,-1.11538946629,-1.45303070545,1.03227829933,0.984327316284,0.147460326552
2017/07/09/10:07:04.844821,440951,1499566027,649193156,,0.789773009017,0.35036717075,0.165990625247,0.640066720745,0.765732941193,0.0413091392357,0.047552190084,0.045748906031,-0.234612965873,0.0204360017749,-0.239964323623,-0.0708938348225,-0.169640548571,3.65096449852,0.341403156519,-1.68735611439,0.0275141447783,1.12382757664,-0.00159931182861
2017/07/09/10:07:04.854834,440952,1499566027,659304779,,0.790228364626,0.348307874401,0.166069429465,0.640894412909,0.765014048282,0.0409793477804,0.0482550566138,0.0269955520028,-0.194650983079,-0.00014176873762,-0.135721371317,-0.0212948577562,-0.210135429635,3.91013526917,1.05580437183,-1.74759876728,-0.204640358686,1.26244354248,0.101047538221
2017/07/09/10:07:04.864529,440953,1499566027,669319697,,0.790518987994,0.346166071711,0.16589442767,0.641490823666,0.764499503984,0.0403455093892,0.0490129720818,0.0358948442317,-0.197344084779,0.00310426921452,-0.0827999253506,-0.0345980565447,-0.265938108503,3.81573057175,1.47792339325,-1.95479822159,-0.476935088634,1.22464025021,0.0132503397763
2017/07/09/10:07:04.874751,440954,1499566027,679306763,,0.791055016705,0.343647981913,0.166375568786,0.642612603581,0.76352524797,0.0397959080943,0.0499452012695,0.0508983241293,-0.233876514597,0.0173320551453,-0.171965409961,-0.0707723733134,-0.236585155184,3.83402490616,1.35963535309,-2.17586946487,-0.406455159187,1.24989449978,0.0444311574101
2017/07/09/10:07:04.884320,440955,1499566027,689299251,,0.791611426919,0.34071186362,0.166234572121,0.643099985546,0.763073417332,0.0390672367613,0.0511382377912,0.0457286208945,-0.249153467375,0.0156701873903,-0.249641697586,-0.0683245675898,-0.19745258018,4.21425247192,1.20862925053,-2.36454486847,-0.483506858349,1.35054886341,-0.0430715680122
2017/07/09/10:07:04.894694,440956,1499566027,699311755,,0.792118509376,0.33845428211,0.166940348602,0.643414356391,0.762753412701,0.0379769666752,0.0527536482668,0.0482281718495,-0.290053007193,0.0226224728325,-0.327408655148,-0.0832997729975,-0.165920542439,3.1472568512,1.06168377399,-2.21304607391,-0.498579502106,0.950635373592,-0.163693889976
2017/07/09/10:07:04.904475,440957,1499566027,709311818,,0.792468771533,0.336173057063,0.166923680824,0.644091955184,0.762138991849,0.0374478873526,0.05373421725,0.0464858817086,-0.266452361092,0.0262114909102,-0.302793801924,-0.089560059674,-0.161017949862,2.43888092041,0.681553125381,-1.7012526989,-0.330349773169,0.723623454571,-0.130988061428
2017/07/09/10:07:04.914614,440958,1499566027,719305271,,0.792664644051,0.333883123651,0.167385271802,0.644603861719,0.761681981737,0.0367742647327,0.0545350676858,0.0390984358139,-0.260399706873,0.0299212589536,-0.245087877177,-0.0831787910003,-0.192510405499,2.08354043961,0.595609545708,-1.01061618328,-0.204770997167,0.621733665466,-0.0459789447486
2017/07/09/10:07:04.924650,440959,1499566027,729311270,,0.792696584637,0.332057355422,0.167661744874,0.645342705247,0.761047680077,0.0363529684605,0.0549334426204,0.0248169225237,-0.236471941884,0.0188484291349,-0.196130622141,-0.0518872446248,-0.189356605479,1.6996434927,0.61791074276,-0.501770079136,-0.0992449149489,0.522572278976,0.0844733566046
2017/07/09/10:07:04.934619,440960,1499566027,739321424,,0.793685761697,0.328797211881,0.16846455938,0.646432968007,0.76000490694,0.0361894640415,0.0566328702477,0.0306373062789,-0.243631158621,0.0320692760584,-0.174763653972,-0.0646645970648,-0.220343270594,1.97530531883,0.932045102119,-0.446724653244,-0.220456063747,0.58315974474,0.0452535636723
2017/07/09/10:07:04.944774,440961,1499566027,749300093,,0.793597947295,0.326604713379,0.168131361794,0.647008307034,0.759521094518,0.0352403864208,0.0571495649627,0.0361072252151,-0.286197215697,0.0468860452323,-0.207237624336,-0.0834732541146,-0.25443492318,2.28009796143,1.009334445,-0.413699626923,-0.22177579999,0.720058202744,-0.00934201478958
2017/07/09/10:07:04.954688,440962,1499566027,759305227,,0.794101452478,0.323643825628,0.16856127603,0.647810370067,0.758787982016,0.0347081944272,0.0581193945347,0.0203552117608,-0.24959867483,0.0350710670973,-0.230419834249,-0.0534875074654,-0.179875904181,2.22386884689,0.867329716682,-0.661244213581,-0.140594229102,0.632850587368,-0.00897211581469
2017/07/09/10:07:04.964595,440963,1499566027,769305939,,0.794258025264,0.321536824395,0.168978535554,0.64792003774,0.758655953622,0.0337447619416,0.059178203515,0.0361719821561,-0.252955507294,0.042573272596,-0.210792933687,-0.086531023444,-0.193920451348,2.36365413666,1.00434684753,-0.552108168602,-0.277268052101,0.672716379166,-0.0837318450212
2017/07/09/10:07:04.974544,440964,1499566027,779321156,,0.795117375177,0.31894547956,0.169999512345,0.6492377911,0.757419806003,0.0342101145442,0.0602925878163,0.0509000764091,-0.256048993973,0.0475239391601,-0.155367865222,-0.111335410529,-0.260342239471,2.40311598778,0.781964063644,-0.682749569416,-0.205438032746,0.679624557495,0.0189715437591
2017/07/09/10:07:04.984812,440965,1499566027,789305436,,0.795281390115,0.317334738964,0.170060111926,0.650295567278,0.756492502626,0.0341153860569,0.0605880275601,0.0433481591095,-0.267461305887,0.0408138815936,-0.125032799703,-0.0918248310495,-0.307877607077,1.73873066902,0.479844123125,-0.613541901112,-0.0646858662367,0.428738951683,0.0558211691678
2017/07/09/10:07:04.994554,440966,1499566027,799307085,,0.795690580999,0.314406715637,0.17042108602,0.651274812508,0.755608288701,0.0336044501006,0.0613838217571,0.0388445766529,-0.240614256622,0.0457688961186,-0.116876604816,-0.0873053076633,-0.268670490516,1.17576289177,0.312735438347,-0.372828304768,-0.0279195979238,0.253802657127,0.0633814185858
2017/07/09/10:07:05.004373,440967,1499566027,809302672,,0.796391616205,0.311326496968,0.170674130854,0.652499989719,0.754460415948,0.0331490588053,0.0627246688617,0.0477666955283,-0.259934230411,0.0450161554545,-0.156793177247,-0.108176897541,-0.260703625268,1.27899003029,0.467953920364,-0.363816022873,-0.126731127501,0.304530322552,-0.00430431216955
2017/07/09/10:07:05.014515,440968,1499566027,819298673,,0.796574759116,0.310059329465,0.171713950734,0.652601019647,0.754320577385,0.0331657513352,0.0633435760554,0.0474400022524,-0.268984814172,0.0600001093358,-0.153954974996,-0.116624333077,-0.253365368359,1.35897290707,0.621409773827,-0.476115316153,-0.150361031294,0.305131077766,-0.0397127494216
2017/07/09/10:07:05.024734,440969,1499566027,829299147,,0.796885421685,0.306976778358,0.172183230988,0.653498938203,0.753488988214,0.0325034547369,0.0643195758534,0.0363964512318,-0.254322233881,0.050382920025,-0.134545718428,-0.0873104816943,-0.25543000309,2.18337416649,0.9030854702,-0.630493760109,-0.24226936698,0.606303930283,-0.0215409100056
2017/07/09/10:07:05.034646,440970,1499566027,839305414,,0.797077174588,0.304460636037,0.172395140924,0.655289088281,0.751928311951,0.032647417981,0.0642975160172,0.0321612115541,-0.239970951784,0.0534246911464,-0.109883162708,-0.0810706271353,-0.261902497605,2.17758798599,0.809282958508,-0.60851252079,-0.259214192629,0.547739028931,-0.0266330912709
2017/07/09/10:07:05.045103,440971,1499566027,849302408,,0.797620515122,0.301409012693,0.17333925027,0.656653221227,0.750643551608,0.0324953513721,0.0654588238586,0.0172280296723,-0.2580333136,0.0470508107434,-0.0789681362368,-0.0552508534585,-0.314858022171,2.4287006855,0.868045449257,-0.744687318802,-0.243002951145,0.624003350735,0.00545945763588
2017/07/09/10:07:05.054536,440972,1499566027,859305838,,0.797501025301,0.299542148529,0.173430014467,0.657019841772,0.750328993521,0.0320854846122,0.065588495007,0.0176783680611,-0.252121423417,0.046382050906,-0.0709662179093,-0.0563166322298,-0.319086491831,2.45396828651,0.70981669426,-0.602073609829,-0.198791578412,0.640156209469,-0.0100951343775
2017/07/09/10:07:05.064750,440973,1499566027,869305400,,0.797748629769,0.296866754335,0.173698014869,0.658400733127,0.749090399027,0.0319857579482,0.065946645039,0.0265692886542,-0.273187106054,0.0548987084812,-0.0785529599155,-0.0751983955549,-0.328930771866,2.07958221436,-0.131736636162,-0.248256012797,0.114262536168,0.475229144096,0.0596316382289
2017/07/09/10:07:05.074790,440974,1499566027,879303491,,0.797770834174,0.295022492783,0.174356598882,0.659491491192,0.748095987855,0.032078984759,0.0662895522458,0.0404363341417,-0.28044104104,0.0753829805589,-0.056465663988,-0.113096414603,-0.364417908473,1.79042685032,0.0763589441776,-0.166367277503,0.0284601971507,0.416277885437,0.0442823991179
2017/07/09/10:07:05.084629,440975,1499566027,889297151,,0.798802803614,0.292288677374,0.175871240663,0.6606501484,0.74693893948,0.0327811200109,0.0674462769785,0.0188250855207,-0.257322649159,0.0551558061889,-0.0486415332473,-0.0703163025294,-0.343409719855,2.06620192528,0.257071793079,-0.100688911974,-0.0348231643438,0.494392901659,0.0401353538036
2017/07/09/10:07:05.094422,440976,1499566027,899299210,,0.798478518691,0.289020408718,0.17520898516,0.662356473608,0.745473071295,0.0319135980726,0.067344814958,0.0287542839218,-0.261069487014,0.0660256172044,-0.0393844440384,-0.0989864396821,-0.35164217945,2.07189202309,0.199603945017,-0.27167993784,-0.070274181664,0.484135448933,0.0203260481358
2017/07/09/10:07:05.104506,440977,1499566027,909300366,,0.799072837884,0.285996567341,0.176527662901,0.663485840991,0.744348041616,0.0320838656938,0.0685795691831,0.023030352225,-0.272127295557,0.0599126753154,-0.0287377964114,-0.0744250498111,-0.363817231771,1.94662415981,0.211239352822,-0.220972672105,0.0224763005972,0.422160834074,0.0658225342631
2017/07/09/10:07:05.114335,440978,1499566027,919298128,,0.799374284805,0.284367189061,0.177501032815,0.664498880225,0.743409165093,0.0325198797408,0.0687496098613,0.0291336714111,-0.244650716585,0.0588134084299,-0.0242989503849,-0.0850181368633,-0.329125874362,1.19586753845,0.21597224474,-0.453021198511,-0.0183197893202,0.113628312945,0.0712014883757
2017/07/09/10:07:05.125734,440979,1499566027,929299734,,0.799771998388,0.281520389665,0.177505307073,0.665788336991,0.742207619468,0.0324178331255,0.069302409953,0.0239834498974,-0.245076031907,0.0507270035926,-0.0308111557993,-0.0832358764239,-0.322024748106,0.948702275753,-0.181257158518,-0.0726645812392,0.0634936392307,0.055348854512,0.0685520768166
2017/07/09/10:07:05.134566,440980,1499566027,939299589,,0.799614811096,0.278851434644,0.177665439882,0.66731207906,0.740840783311,0.0322569909553,0.0693470219925,0.0369365449025,-0.278230011497,0.0490534629921,-0.0327380652464,-0.0952000574905,-0.355648813514,0.701255738735,-0.109238862991,-0.212323486805,0.00111010298133,-0.00525984913111,0.0246141590178
2017/07/09/10:07:05.144614,440981,1499566027,949304577,,0.800014528132,0.277281979648,0.177911369129,0.667898037134,0.740271447301,0.0325315903076,0.0696569589942,0.00823387952862,-0.270968946385,0.0362191878507,-0.0173708727777,-0.0421153076802,-0.351403855895,0.850428342819,0.203850373626,-0.00974265486002,-0.118031524122,0.0729915946722,0.0175760909915
2017/07/09/10:07:05.154531,440982,1499566027,959328187,,0.800053454848,0.273734629427,0.178685142646,0.669688426551,0.738613526408,0.032429461992,0.0701127659221,0.0257306764624,-0.25822958639,0.051430275589,-0.012923189857,-0.087503185438,-0.341961539267,0.551566839218,-0.19760286808,-0.0810797289014,0.00453275069594,-0.0549945086241,0.0267636664212
2017/07/09/10:07:05.164401,440983,1499566027,969303450,,0.800247789634,0.27073169472,0.179092164437,0.671222589892,0.737189982237,0.0322921326178,0.07048675818,0.013880299929,-0.289337320257,0.0436583669608,-0.00772373853289,-0.0582512506725,-0.389670078117,1.16058242321,-0.321489781141,-0.2529296875,0.0930154472589,0.148154810071,0.0684874206781
2017/07/09/10:07:05.174543,440984,1499566027,979305437,,0.800745980397,0.268430911592,0.180151191463,0.672332306704,0.736081117559,0.0328405863371,0.0712415161574,0.0273647679974,-0.294276239572,0.0695812606558,-0.00573732838334,-0.105704116333,-0.418529298013,1.46614098549,-0.248267546296,-0.331161737442,0.094272211194,0.219631105661,0.0622844882309
2017/07/09/10:07:05.184534,440985,1499566027,989297919,,0.800676382886,0.266055502728,0.180877972406,0.673585417925,0.734928789274,0.0330240646604,0.0712163647471,0.0169259019658,-0.298038063399,0.0648440746969,-0.023157203006,-0.0891430191392,-0.404299137092,0.973697423935,-0.331361591816,-0.242721244693,0.0926976948977,0.0262453481555,0.0567750371993
2017/07/09/10:07:05.194560,440986,1499566027,999301993,,0.8009400758,0.262593455403,0.18111680423,0.675286652316,0.733314671945,0.032851145836,0.0718215241536,0.0028112790745,-0.276066245741,0.0395565839118,-0.0191820587925,-0.0370373713472,-0.371796703915,1.30457675457,-0.472196251154,-0.338571965694,0.0944574922323,0.148342654109,0.0440027937293
2017/07/09/10:07:05.204385,440987,1499566028,9302677,,0.801029945507,0.260017194086,0.181403215304,0.676430480991,0.732240260138,0.0329049128786,0.071994947931,0.00392819983617,-0.297579117767,0.0317014971002,-0.0297616644523,-0.0346423614754,-0.404221847539,0.851631820202,-0.472038149834,0.119671568274,0.221293181181,-0.00113036297262,0.0869809910655
2017/07/09/10:07:05.214658,440988,1499566028,19305118,,0.801189606927,0.257709011334,0.181940061332,0.677843736382,0.730892125093,0.0331158032491,0.0723043159111,0.00701858513407,-0.302175971927,0.0400714006722,-0.0186562141574,-0.0549106025886,-0.399104023697,0.315791934729,-0.548190712929,0.0490659922361,0.27604714036,-0.191364973783,0.131741926074
2017/07/09/10:07:05.224626,440989,1499566028,29298518,,0.801067826153,0.254343014315,0.182017466892,0.679326169292,0.729510250997,0.0328188521032,0.0724822209384,0.0113156030234,-0.286996446887,0.0433871785703,-0.00602023873367,-0.058907021567,-0.388967656235,-0.311003684998,-0.76798915863,0.131299033761,0.298731952906,-0.438593029976,0.126498326659
2017/07/09/10:07:05.234586,440990,1499566028,39315622,,0.801664327844,0.252776200396,0.182741864766,0.679932649882,0.72885773069,0.0335541324416,0.0730213683365,-0.000896455237182,-0.275169578106,0.036448390753,-0.0151930375846,-0.0355643234211,-0.371809357998,-0.283201277256,-0.688305199146,0.319718897343,0.347134619951,-0.396755754948,0.163389697671
2017/07/09/10:07:05.244385,440991,1499566028,49305953,,0.801028104455,0.249212182097,0.182515445589,0.681696140694,0.727271969811,0.0326145472315,0.0728158293185,0.0187730109595,-0.264991158747,0.0443175175618,-0.00152729899511,-0.0777567543282,-0.347462642329,0.470735698938,0.372614681721,-0.016060244292,-0.363295435905,-0.138432130218,-0.0798368230462
2017/07/09/10:07:05.254423,440992,1499566028,59305916,,0.801514637956,0.247209703155,0.183313385003,0.682801756445,0.726152352665,0.0329283871827,0.0734863486096,0.0135577269305,-0.292634354197,0.0380123106714,-0.00956172732844,-0.0634302380461,-0.401127838557,1.22707736492,1.9745285511,-0.260656952858,-1.12039327621,0.115656264126,-0.304409980774
2017/07/09/10:07:05.264737,440993,1499566028,69299482,,0.801813748391,0.243901580392,0.183564394884,0.684235642596,0.724738674399,0.0329820820376,0.0740784820085,0.00492334396287,-0.292757209936,0.02646451238,-0.0308541973011,-0.0377903263174,-0.398055719283,1.16312944889,1.86471474171,-0.5416213274,-1.10941207409,0.0653565973043,-0.262976974249
2017/07/09/10:07:05.274496,440994,1499566028,79305761,,0.801536937716,0.240672216616,0.183285552417,0.685711611936,0.723370691507,0.0323786156461,0.074067895701,-0.0144802834548,-0.296149721931,0.00798298371414,-0.0479331691851,0.00397414202584,-0.404798910897,0.844223022461,1.4100549221,-0.688644528389,-0.802751660347,-0.098084256053,-0.176256522536
2017/07/09/10:07:05.284644,440995,1499566028,89302030,,0.801601475982,0.237940686699,0.183693179221,0.686936488387,0.722176061633,0.0322272812328,0.0744405754393,-0.00563590999737,-0.302073635239,0.0217069450329,-0.0444083012662,-0.0211881917015,-0.398927032722,-0.278917342424,0.48926204443,-0.606383323669,-0.180243447423,-0.465100675821,0.0542619749904
2017/07/09/10:07:05.294537,440996,1499566028,99306921,,0.801250733296,0.234965607329,0.183675175328,0.688393252982,0.720796355441,0.0318985119866,0.0744971688399,0.013068522132,-0.324946857875,0.0331896292503,-0.0514102086738,-0.0686415343983,-0.399119113412,-0.956471443176,-0.32664039731,-0.665717959404,0.219469040632,-0.68136703968,0.143434390426
2017/07/09/10:07:05.304396,440997,1499566028,109301579,,0.801363472695,0.231032807475,0.184044412461,0.690277820553,0.718946747659,0.0317704060453,0.0749849703799,0.00906678127738,-0.345451082637,0.0271117649471,-0.0574277955329,-0.0613533355433,-0.426019192722,-0.960327744484,-1.01301133633,-0.619797646999,0.560530126095,-0.659827470779,0.220308840275
2017/07/09/10:07:05.314720,440998,1499566028,119302797,,0.801293801101,0.228609849429,0.184089222102,0.691361853478,0.717895952074,0.0316276910721,0.0751257526392,-0.0137788433004,-0.3157487642,0.0177651052748,-0.0467820667006,-0.0168285642717,-0.380048208523,-1.43660700321,-0.744655489922,-0.455103546381,0.473999619484,-0.883031725883,0.202262461185
2017/07/09/10:07:05.324606,440999,1499566028,129304734,,0.801338080423,0.225084322327,0.18436297895,0.693033240866,0.716250673741,0.0317961985668,0.0753584844435,-0.0111400760217,-0.299551909371,0.0126644038592,-0.0056468495825,-0.0215670314266,-0.398839740701,-1.74890768528,-0.963378608227,-0.213048875332,0.396663546562,-0.9696393013,0.190332144499
2017/07/09/10:07:05.334569,441000,1499566028,139304296,,0.801705054699,0.223242128465,0.18501539116,0.694269867384,0.714977113553,0.0322418140465,0.0758784802472,-0.0109824075806,-0.289284791016,0.0217394563911,0.0248354419206,-0.0283313091454,-0.438848647916,-2.0013525486,-0.574159920216,-0.0993230417371,0.324360847473,-1.09566485882,0.197770744562
2017/07/09/10:07:05.344917,441001,1499566028,149297735,,0.800692725853,0.220214557974,0.184545306833,0.695764654848,0.713651835259,0.0314450775518,0.0749920675378,-0.016713932295,-0.274573488697,0.0139088676022,0.0301731154875,-0.0101910215832,-0.393187361802,-2.51944804192,-0.707985162735,-0.202891722322,0.295620232821,-1.28564870358,0.191883295774
2017/07/09/10:07:05.354665,441002,1499566028,159309962,,0.801166857417,0.217806211846,0.18512675949,0.696659604194,0.712686086483,0.031634392912,0.0757839244412,-0.0258361386712,-0.275592332337,-0.00351605400696,0.00584882830487,0.0303878764923,-0.37081492829,-2.60858011246,-0.428703129292,-0.0616572909057,0.259527653456,-1.35604012012,0.18516972661
2017/07/09/10:07:05.364575,441003,1499566028,169299166,,0.79983415886,0.215214574839,0.183856632437,0.697813763838,0.711707837859,0.0304529673819,0.0748366307779,-0.0260760964571,-0.298921204104,0.00290490300086,-0.0302537862797,0.0194857358134,-0.383140147198,-3.62607264519,-0.312116265297,-0.251071602106,0.231664001942,-1.72452044487,0.181105270982
2017/07/09/10:07:05.374777,441004,1499566028,179305683,,0.800860470017,0.212305017218,0.185154976947,0.699341512332,0.710043554845,0.0312625286661,0.0760411313289,-0.0178118775828,-0.29447466395,0.00705212256716,-0.0321948742664,-0.00545971694085,-0.392148280659,-3.6941857338,-0.255947619677,0.208570748568,0.202737495303,-1.77408015728,0.171617642045
2017/07/09/10:07:05.384673,441005,1499566028,189303386,,0.799454701534,0.209325394298,0.18384906242,0.700781449935,0.708782736998,0.0300883132813,0.0750138958004,-0.017569162893,-0.296779041093,-0.00194604010851,-0.0203135359057,0.000984053459187,-0.406833832183,-4.48954486847,-0.573739767075,-0.0387501716614,0.34737688303,-2.0695040226,0.257036149502
2017/07/09/10:07:05.394560,441006,1499566028,199299168,,0.799641029847,0.205608018495,0.184738402537,0.702164539887,0.707322870393,0.0297151586848,0.0760021400252,-0.0334005704937,-0.301846722005,-0.00669906525572,-0.0249806748075,0.028448216643,-0.411283118536,-4.57197093964,-0.416661858559,0.145731970668,0.193727687001,-2.11556625366,0.186163529754
2017/07/09/10:07:05.404490,441007,1499566028,209297798,,0.799627236602,0.20307062619,0.184997901085,0.703721051186,0.705752386885,0.0300700046909,0.0760660590682,-0.0343759614216,-0.294104406936,-0.01120700239,-0.0143056283926,0.0386025328592,-0.394977645169,-5.40162134171,-0.424207031727,0.477711588144,0.207199603319,-2.46005606651,0.248381733894
2017/07/09/10:07:05.414724,441008,1499566028,219301622,,0.798983106648,0.200570433678,0.184434221825,0.70468885456,0.704865846759,0.0293393028941,0.0756105921027,-0.0207173210352,-0.303176240273,0.00905453103243,-0.00733058092156,-0.00109603627686,-0.418593379779,-6.52377557755,-0.323084712029,-0.0883085802197,0.173695847392,-2.93124556541,0.250800907612
2017/07/09/10:07:05.424429,441009,1499566028,229302607,,0.798759124056,0.197311579424,0.184655702182,0.706363801056,0.703191981974,0.0290915516476,0.0756630601243,-0.0374590879311,-0.334038042617,0.00250027216172,-0.0432861002105,0.0297420052541,-0.440801908411,-7.01524209976,-0.622097849846,-0.0104366969317,0.366628408432,-3.14747786522,0.342580467463
2017/07/09/10:07:05.434734,441010,1499566028,239298379,,0.798430427619,0.194520683179,0.18454991361,0.707377303746,0.702151213724,0.0283812684678,0.0761283574757,-0.0344171604626,-0.303057341223,-0.00642973887193,-0.0368228911779,0.0331188450999,-0.417148780233,-8.01957702637,-0.475791275501,0.182763531804,0.451767832041,-3.53695392609,0.426543682814
2017/07/09/10:07:05.444418,441011,1499566028,249303555,,0.798035315708,0.191382573102,0.184219715891,0.708962284126,0.700575921145,0.0279753351979,0.0760476102088,-0.0327501440155,-0.31842155342,-0.00351575330683,-0.0510507076421,0.0162443391255,-0.418555194718,-8.71083450317,-0.526265501976,0.458426713943,0.462179660797,-3.7471511364,0.429782241583
2017/07/09/10:07:05.454549,441012,1499566028,259302793,,0.79781427513,0.187394110005,0.184187059214,0.710830630421,0.698643387104,0.0275576206043,0.0765363316193,-0.0426256029221,-0.319316691183,-0.00922134055234,-0.0751377043074,0.0439167315299,-0.393231158304,-8.59982013702,-0.601044714451,0.740733325481,0.486301213503,-3.62861514091,0.449485093355
2017/07/09/10:07:05.464932,441013,1499566028,269310423,,0.7976523805,0.185656941905,0.184675107696,0.711630099467,0.697804074671,0.0275178534339,0.0767778786367,-0.0440286058599,-0.320576853053,-0.0104085928691,-0.0766308019903,0.0455557271334,-0.397209887999,-9.15137672424,-0.0322424247861,1.19148564339,0.408505856991,-3.77553367615,0.418992161751
2017/07/09/10:07:05.474863,441014,1499566028,279305424,,0.7971151453,0.181531227925,0.184587831714,0.713314850715,0.696070290938,0.0265842356188,0.0772097936754,-0.0461686659093,-0.34210317322,-0.0038483662714,-0.100970933929,0.0406953283345,-0.403198055437,-9.6700553894,-0.25512740016,1.28218519688,0.456311404705,-3.93702960014,0.453953653574
2017/07/09/10:07:05.484813,441015,1499566028,289299154,,0.795561315987,0.17794655835,0.183359814807,0.714898431489,0.694585380749,0.025005625539,0.0764597946384,-0.0480823993484,-0.337618606943,-0.0113777070981,-0.104626636182,0.0554658233359,-0.425635617973,-10.5178318024,-0.755301773548,1.06365931034,0.526844203472,-4.15186405182,0.503141283989
2017/07/09/10:07:05.494617,441016,1499566028,299312319,,0.795672556041,0.175363128453,0.183678497625,0.715926423712,0.693480729755,0.0246188318606,0.0769918593636,-0.0632629779764,-0.335450688851,-0.0160584119085,-0.110423049572,0.0942474620716,-0.431878807095,-9.60680103302,-0.340278506279,1.44302213192,0.367758095264,-3.85416698456,0.443792462349
2017/07/09/10:07:05.504775,441017,1499566028,309297567,,0.795113049392,0.171989656284,0.183782802989,0.716949051801,0.692410882142,0.0234977936009,0.0774537352805,-0.0679184391352,-0.338912711801,-0.0210950732379,-0.149902176859,0.110603248388,-0.416738475794,-10.0609836578,-0.740067064762,1.1160851717,0.471482902765,-4.01816892624,0.493161439896
2017/07/09/10:07:05.514592,441018,1499566028,319302647,,0.79455208378,0.168525953642,0.183709737269,0.718606257438,0.690707524498,0.0226043328365,0.0775706549601,-0.0834138021097,-0.354599091802,-0.0213308922263,-0.172612473737,0.143221779668,-0.403453159848,-10.4189414978,-0.479850769043,0.839830160141,0.33432996273,-4.16938304901,0.445492565632
2017/07/09/10:07:05.524569,441019,1499566028,329301883,,0.793645547261,0.164777795177,0.18331431795,0.719722591534,0.689540023782,0.0210848920937,0.0780344421624,-0.0650652871237,-0.34729460401,-0.00916667415356,-0.16966594889,0.101928851482,-0.395621934215,-11.3264541626,-0.564718723297,0.393186867237,0.270437568426,-4.52525758743,0.43352034688
2017/07/09/10:07:05.534693,441020,1499566028,339302680,,0.793125258103,0.161713525823,0.183425164224,0.720752402867,0.688418952134,0.0197013674624,0.0787856346373,-0.0585468646241,-0.35520250384,-0.00320928217054,-0.223949711472,0.0971108473751,-0.368697255975,-11.5002832413,-0.256607413292,0.441345572472,0.262198150158,-4.56492996216,0.473627060652
2017/07/09/10:07:05.544551,441021,1499566028,349299016,,0.792783941179,0.158938143171,0.18341160763,0.721576126059,0.68754126965,0.0189115183608,0.0791027894809,-0.0637759761146,-0.337654530539,-0.00361310274687,-0.225284203786,0.0959505817539,-0.346642249671,-12.1167240143,-0.234159514308,0.661493241787,0.336290687323,-4.72242641449,0.57002133131
2017/07/09/10:07:05.554653,441022,1499566028,359303743,,0.792018812583,0.154862888623,0.183233554411,0.722902265761,0.686094672462,0.0173887422547,0.0799002266561,-0.0602397217714,-0.383061558498,-0.00517910591212,-0.243227001037,0.0804800895105,-0.394801421069,-12.4109010696,-0.0553059726954,0.203661873937,0.233974605799,-4.78122091293,0.548431694508
2017/07/09/10:07:05.564808,441023,1499566028,369299023,,0.790968873657,0.151628129744,0.182854150639,0.723833944925,0.685135395331,0.015626992011,0.0800606480034,-0.079298390266,-0.369335176474,-0.0336605314551,-0.261509772019,0.134622017701,-0.353541891484,-12.3302087784,0.14542157948,0.081330306828,0.232926607132,-4.67574882507,0.548446297646
2017/07/09/10:07:05.574473,441024,1499566028,379320075,,0.790703050586,0.147562357069,0.183076496252,0.724836671101,0.683970927682,0.0143292481704,0.0811803114026,-0.0792083181404,-0.359779665637,-0.0308732718066,-0.267257156092,0.144234334424,-0.346720352284,-12.1162109375,-0.0439167320728,0.807449877262,0.342639118433,-4.65730810165,0.578383505344
2017/07/09/10:07:05.584636,441025,1499566028,389305808,,0.789854583748,0.144131819555,0.182928054939,0.725804110838,0.682905711849,0.0124553485442,0.0818110365911,-0.0702662232511,-0.356377724571,-0.00720473244419,-0.312596369945,0.127354383157,-0.305169859008,-12.97722435,-0.342704206705,0.978476643562,0.477788478136,-4.96815824509,0.677147805691
2017/07/09/10:07:05.594412,441026,1499566028,399305826,,0.788773007525,0.140112981363,0.182013697628,0.727052714124,0.681589029584,0.0104159996774,0.0819893443443,-0.0736161028582,-0.357749240368,-0.00843327859837,-0.325095989658,0.141860523648,-0.307603059988,-13.3070144653,-0.623397529125,0.504412174225,0.483999103308,-5.22397089005,0.71711486578
2017/07/09/10:07:05.604710,441027,1499566028,409300768,,0.788138150101,0.136942181376,0.181946444999,0.727411747943,0.681115383582,0.00851797960342,0.0829543683308,-0.0965947960658,-0.390935146366,-0.0257464789987,-0.360832931878,0.199203760665,-0.325183244831,-13.0109882355,-0.36007091403,0.365457266569,0.386020928621,-5.20337486267,0.671512842178
2017/07/09/10:07:05.614506,441028,1499566028,419303035,,0.787297315884,0.133491909259,0.181868796458,0.728045651874,0.680358153475,0.00647430695995,0.0837877982622,-0.0847510573786,-0.357709093792,-0.0223283831471,-0.375513004303,0.183641465156,-0.262733395347,-12.761633873,-0.180974498391,-0.238619938493,0.284472644329,-5.11691665649,0.685367107391
2017/07/09/10:07:05.624638,441029,1499566028,429298146,,0.787268484917,0.129621455441,0.182208957772,0.729387895406,0.678758522988,0.00533658178198,0.0851568341411,-0.0832231916316,-0.370542632248,-0.0187729493246,-0.38690817716,0.170339166655,-0.284941981466,-12.4150857925,-0.624749839306,0.567368805408,0.419556289911,-4.99127817154,0.711442708969
2017/07/09/10:07:05.634564,441030,1499566028,439305536,,0.786124856934,0.127194894389,0.181500151111,0.729358277988,0.678766810818,0.002839296207,0.0854637774707,-0.066824987506,-0.350901963252,-0.0373725654186,-0.370796001745,0.148136634596,-0.272179592689,-11.3956375122,0.322848528624,-0.283489048481,0.142034873366,-4.53081941605,0.630102992058
2017/07/09/10:07:05.644511,441031,1499566028,449303898,,0.785184101338,0.123206336795,0.180316431922,0.730506920677,0.677492452891,0.000651032418597,0.0858090395896,-0.0687733959205,-0.349628325388,-0.0424661712579,-0.366946075486,0.168978446483,-0.26084592809,-11.7455778122,-0.321163475513,-0.0729750022292,0.192617252469,-4.63172149658,0.649723529816
2017/07/09/10:07:05.654744,441032,1499566028,459316501,,0.784373118251,0.119205886275,0.180306541003,0.731037047683,0.67677019407,-0.00184528666472,0.0869685819765,-0.067798189391,-0.33443316132,-0.0308988025719,-0.375784948674,0.169649988781,-0.203345547834,-12.5579938889,-0.245378732681,0.21488237381,0.195490643382,-4.88409137726,0.733526408672
2017/07/09/10:07:05.664675,441033,1499566028,469298085,,0.783981052086,0.115595403939,0.180336624253,0.731843539518,0.675758039504,-0.00335054347337,0.0880049974167,-0.0668533126491,-0.342025174014,-0.0226920492702,-0.416138657026,0.163226202266,-0.212137395521,-12.3901500702,-0.439878463745,0.332935512066,0.231359377503,-4.77924156189,0.711886465549
2017/07/09/10:07:05.674699,441034,1499566028,479305058,,0.7834942045,0.112638054356,0.179964693893,0.732218997514,0.675193625347,-0.00544164281284,0.0891027300045,-0.068937661966,-0.368150376997,-0.0366669683125,-0.439296165421,0.181157021561,-0.230642215738,-12.5526351929,-0.235856220126,0.598520815372,0.200614526868,-4.85005378723,0.711017072201
2017/07/09/10:07:05.684668,441035,1499566028,489304221,,0.782648329779,0.109689507866,0.17898255378,0.732558137786,0.67474529559,-0.00789990827292,0.0895262659305,-0.0674660468756,-0.337295141089,-0.0236166777276,-0.423306393011,0.17963714925,-0.196985543475,-12.7721633911,-0.316332399845,0.187443643808,0.360445439816,-4.99756574631,0.863840520382
2017/07/09/10:07:05.694744,441036,1499566028,499305615,,0.781895627055,0.107275012585,0.178805386026,0.732311579182,0.674896046741,-0.0102099907427,0.0901711327326,-0.0779194265128,-0.33656098799,-0.029349217456,-0.437593686384,0.215619289341,-0.188037772822,-11.9858856201,0.216642171144,-0.140065148473,0.321838617325,-4.77158546448,0.826881051064
2017/07/09/10:07:05.704839,441037,1499566028,509308289,,0.781830560081,0.103203205335,0.179407783633,0.733165714853,0.673714919613,-0.0117068784391,0.0918650676379,-0.0776434143557,-0.378476655087,-0.0160268556106,-0.493460184696,0.207107191473,-0.213022759017,-11.4671449661,-0.233054876328,0.108747430146,0.411004394293,-4.63093852997,0.857083976269
2017/07/09/10:07:05.714575,441038,1499566028,519303576,,0.780036352399,0.0996183599449,0.178148222363,0.733853270217,0.672882446733,-0.0151339478194,0.0919758353826,-0.0890597438731,-0.388645680617,-0.0264430142973,-0.538781817807,0.242395878775,-0.236047580462,-11.9468393326,0.0838215276599,-0.431185394526,0.212160199881,-4.90882635117,0.843852341175
2017/07/09/10:07:05.724598,441039,1499566028,529297773,,0.780108901114,0.0965880101075,0.178740219746,0.733953611063,0.672461997791,-0.0171866295727,0.0938700063876,-0.0779072387128,-0.362395512071,-0.0151890255004,-0.488451553903,0.22223571662,-0.228317918972,-11.7376298904,0.251537770033,-0.476935595274,0.152828589082,-4.86700963974,0.865180313587
2017/07/09/10:07:05.734666,441040,1499566028,539312512,,0.779700773571,0.0929342984826,0.178993581119,0.734443497711,0.671696203768,-0.0192936043718,0.0951037083624,-0.0572446305796,-0.32136508437,-0.0107954533096,-0.460808110177,0.191418398843,-0.166318509904,-11.6009635925,0.201017171144,0.151245504618,0.227994859219,-4.89590454102,0.960723638535
2017/07/09/10:07:05.744511,441041,1499566028,549305173,,0.77883088648,0.0895933687369,0.177972506697,0.734701326615,0.671253126508,-0.021995218719,0.0956525544712,-0.0639832939342,-0.308682413797,-0.0327767816207,-0.452658439678,0.227422751523,-0.156737529937,-11.3955335617,-0.0296219941229,-0.345691651106,0.123331457376,-4.78235578537,0.903798997402
2017/07/09/10:07:05.754396,441042,1499566028,559301337,,0.778146462583,0.0871391765097,0.177986017698,0.735213418311,0.670516426772,-0.0240307610177,0.0963922895707,-0.0536577144926,-0.332263520846,-0.0267273936997,-0.477857435882,0.196253438068,-0.157410912406,-11.0363368988,0.267898261547,-0.00717662274837,0.155332952738,-4.58534526825,0.923223853111
2017/07/09/10:07:05.764423,441043,1499566028,569305115,,0.777872894364,0.084045782622,0.177643326505,0.735165700564,0.670287277234,-0.0265285788318,0.0976861975848,-0.0511030961233,-0.334606328533,-0.0122277234997,-0.495043584494,0.190105226089,-0.164718465122,-11.5427885056,-0.0969954878092,-0.26555788517,0.168240442872,-4.79083299637,0.945041835308
2017/07/09/10:07:05.774830,441044,1499566028,579300379,,0.777023375605,0.0814050376818,0.177167394376,0.735026184118,0.670268225723,-0.02903348938,0.0981533022476,-0.0515423566601,-0.29802342275,-0.0280863711955,-0.480954555976,0.22530132158,-0.112588812679,-11.864235878,0.483435928822,-0.281349241734,-0.0519682615995,-4.84195041656,0.938619315624
2017/07/09/10:07:05.784438,441045,1499566028,589299968,,0.776573021332,0.0780808031209,0.177124105161,0.735638580519,0.669284767796,-0.0316905095404,0.0994459152145,-0.0568208858473,-0.30286802289,-0.0314306661273,-0.494757746269,0.24006655294,-0.10656307651,-12.0684204102,-0.211395144463,0.0229345485568,0.103890895844,-4.86241912842,0.990800142288
2017/07/09/10:07:05.794571,441046,1499566028,599306073,,0.776117291965,0.0744728748473,0.17706492764,0.736103121612,0.668501497423,-0.0339804078792,0.100515044531,-0.0481971006748,-0.318641245044,-0.0104274797684,-0.503846326615,0.213113251633,-0.148630540271,-11.4888763428,0.2195084095,-0.0106781162322,0.0283251330256,-4.71151590347,0.977410495281
2017/07/09/10:07:05.804508,441047,1499566028,609301417,,0.776023145782,0.0724671964921,0.177149232478,0.735758312729,0.668598653963,-0.0363947110381,0.101542947456,-0.0488923695451,-0.326493357455,-0.000814574666628,-0.531564428933,0.227752309998,-0.16617723607,-11.1309804916,0.420555055141,-0.403593719006,0.0799467712641,-4.66370010376,1.01928389072
2017/07/09/10:07:05.814523,441048,1499566028,619298680,,0.775377004506,0.0690317834611,0.177218217403,0.736000622466,0.668004646685,-0.0390673220429,0.102696738441,-0.0755159959936,-0.336092852785,-0.0154435658985,-0.540112258025,0.301126834021,-0.158185747533,-11.2561893463,0.35222619772,-0.310314953327,0.161255121231,-4.74279880524,1.06138122082
2017/07/09/10:07:05.824380,441049,1499566028,629298328,,0.774681655771,0.0659756846463,0.177098674678,0.735942133539,0.667735509394,-0.0422695266904,0.10359417305,-0.0796881727173,-0.324773213032,-0.0143844735011,-0.546277254726,0.319538470281,-0.143210880281,-11.1626644135,0.223164767027,-0.0546554848552,0.17542591691,-4.74668455124,1.1437536478
2017/07/09/10:07:05.834604,441050,1499566028,639306743,,0.773608492649,0.0622238296141,0.176565958963,0.736483101055,0.666807914091,-0.0453708846682,0.104409436304,-0.0764175388998,-0.336244987774,-0.00840517216873,-0.556932293334,0.311566858602,-0.165095310886,-10.0403251648,0.270376414061,-0.631954133511,0.0310244187713,-4.31768751144,0.98092764616
2017/07/09/10:07:05.845027,441051,1499566028,649300635,,0.773138077914,0.0591561399511,0.17638288785,0.736423467369,0.666503024725,-0.0484134838515,0.105405546919,-0.0665845372451,-0.309981335056,-0.00499292409802,-0.547171535584,0.30109775119,-0.142667757378,-9.16711235046,-0.172130465508,-0.834260344505,0.105882033706,-4.01284217834,0.96076387167
2017/07/09/10:07:05.854690,441052,1499566028,659305910,,0.772806525953,0.0571876383373,0.176442294322,0.736031133141,0.666646727769,-0.0508831822031,0.106071735963,-0.0601757129483,-0.328996721178,-0.00424416015577,-0.551576291461,0.291460925054,-0.148090547795,-9.05305480957,0.493334770203,-0.611351549625,-0.051845561713,-4.04817724228,0.985729932785
2017/07/09/10:07:05.864651,441053,1499566028,669307754,,0.772020398453,0.0539685111007,0.177032099743,0.73649165354,0.665770804137,-0.0536902837004,0.106988943642,-0.0561545270597,-0.312424605005,0.00127467784095,-0.53409286672,0.298038602498,-0.12259367091,-8.26404190063,0.855385422707,-0.583631575108,-0.285538494587,-3.67527508736,0.837895035744
2017/07/09/10:07:05.874458,441054,1499566028,679301026,,0.771480549674,0.0509854349093,0.176606877432,0.73659242339,0.665251527325,-0.0566699899433,0.107983885074,-0.0685983582846,-0.32234740624,-0.00946525988627,-0.531180669521,0.320038892095,-0.160735287509,-8.62471389771,0.805242657661,-0.438219964504,-0.218676432967,-3.754083395,0.935359239578
2017/07/09/10:07:05.884284,441055,1499566028,689299246,,0.770673260861,0.0482587788519,0.176429983839,0.736689783975,0.664829190161,-0.0595169586838,0.10838838372,-0.0579453651508,-0.305159353859,0.0120727937586,-0.53403492374,0.291250148372,-0.163312182573,-8.6476764679,0.908387541771,-0.683875739574,-0.275471270084,-3.77322506905,0.946192383766
2017/07/09/10:07:05.894630,441056,1499566028,699305537,,0.770297196351,0.0449873029986,0.17706043067,0.736704665319,0.664322018978,-0.0625307870667,0.109692259835,-0.0868227209403,-0.322629860715,-0.000468774142513,-0.535144657081,0.3532657797,-0.190748002875,-7.28776788712,0.427657842636,-0.182007655501,-0.119248323143,-3.23679447174,0.832931101322
2017/07/09/10:07:05.904632,441057,1499566028,709323290,,0.7687672095,0.0414429657001,0.175910779439,0.737475927863,0.663151060956,-0.0661218194184,0.109488954571,-0.0770720147924,-0.33371927271,0.0132614808373,-0.554041602526,0.346241404652,-0.188402006902,-7.32112026215,0.56399077177,-1.48209547997,-0.291216403246,-3.2458293438,0.824382305145
2017/07/09/10:07:05.914504,441058,1499566028,719305172,,0.768351473637,0.039685923538,0.176172057492,0.736935438363,0.663411503821,-0.068680849356,0.109973984261,-0.0795055385085,-0.278400188504,-0.00826272701685,-0.480175397084,0.38020841391,-0.161641020264,-6.73101615906,0.595857620239,-1.0990831852,-0.199780151248,-3.02295732498,0.846149384975
2017/07/09/10:07:05.924400,441059,1499566028,729299845,,0.767721876674,0.0360763104959,0.177165675159,0.737674443261,0.662128202267,-0.0714215936559,0.111002772405,-0.0845519396198,-0.268455443269,-0.00325201738067,-0.461070561343,0.383796278417,-0.163875959627,-6.26129579544,0.515607953072,-0.725968599319,-0.150693953037,-2.86973643303,0.825773596764
2017/07/09/10:07:05.934637,441060,1499566028,739303651,,0.767520790841,0.0339323305422,0.177312517135,0.737896785198,0.661528775153,-0.0736008829391,0.11167329166,-0.0667368845583,-0.291964682869,0.0307440126395,-0.478420820067,0.315476442343,-0.205137830518,-6.44419193268,1.17928063869,-0.384332031012,-0.304884076118,-2.98644804955,0.80391895771
2017/07/09/10:07:05.944505,441061,1499566028,749304631,,0.765917095548,0.030781518485,0.176471933176,0.738254264372,0.660742270377,-0.0771861051147,0.111546395955,-0.0724867566333,-0.309727109961,0.0242866211655,-0.477643096427,0.31861288042,-0.2355031132,-6.24646615982,0.819238781929,-1.16401875019,-0.323475241661,-2.7658033371,0.758543968201
2017/07/09/10:07:05.954500,441062,1499566028,759304619,,0.765991543201,0.0288719847536,0.176840522454,0.738609284203,0.66011845792,-0.0787248073621,0.111813914646,-0.0673908763669,-0.266701104689,0.0144634994025,-0.423483317618,0.320353690191,-0.206237388738,-6.24318265915,0.963951945305,-0.932714700699,-0.341882973909,-2.85330820084,0.797740399837
2017/07/09/10:07:05.964621,441063,1499566028,769298728,,0.764723468375,0.0256149524792,0.177341201483,0.739346863786,0.658846154273,-0.0820023944467,0.112087320043,-0.0742041248725,-0.271718898362,0.016452442234,-0.414848812517,0.335295140698,-0.232818785134,-5.2297167778,0.304221719503,-1.17941784859,-0.22580255568,-2.39532065392,0.719655036926
2017/07/09/10:07:05.974595,441064,1499566028,779305506,,0.764577978168,0.0237183490924,0.177328394879,0.739734602671,0.658126978372,-0.0838130602478,0.11241427348,-0.0710829527318,-0.262018599621,0.0230298778247,-0.38733023536,0.324912090193,-0.238375076684,-4.45604228973,1.11106061935,-1.1483861208,-0.302132606506,-2.21589255333,0.653762936592
2017/07/09/10:07:05.984598,441065,1499566028,789304647,,0.763234052434,0.0205471398799,0.177670269192,0.740378682689,0.6570634537,-0.0866119596987,0.112273738995,-0.0795235768911,-0.252988769421,0.0162433728028,-0.339596064498,0.324354060395,-0.264648963744,-3.96688079834,0.434167146683,-1.45020413399,-0.302092701197,-1.88525545597,0.558939695358
2017/07/09/10:07:05.994447,441066,1499566028,799299418,,0.762617497959,0.0189883068814,0.1774309261,0.740875253514,0.656300026232,-0.0885627807789,0.1119409137,-0.0845924372115,-0.250911589659,0.00557927261405,-0.323302669627,0.342252818762,-0.28398078396,-3.76992511749,0.69898635149,-1.59229040146,-0.343947559595,-1.95056247711,0.558999180794
2017/07/09/10:07:06.004330,441067,1499566028,809302247,,0.762115003348,0.0159408237536,0.177970011691,0.741946797477,0.654776300643,-0.0903470343481,0.112340372148,-0.0842996111792,-0.241446490991,0.00639086128952,-0.280801076168,0.319352207154,-0.327413914692,-4.01488018036,0.186454713345,-0.816894173622,-0.15948073566,-2.05183982849,0.607221722603
2017/07/09/10:07:06.014343,441068,1499566028,819297893,,0.760837775587,0.0142579655061,0.177364445559,0.742579428422,0.653916826621,-0.0925758991855,0.11134756053,-0.0706964477936,-0.210926293493,0.0133144152762,-0.223854646,0.288756857369,-0.306948486923,-3.50940680504,0.22644585371,-0.963607549667,-0.12807546556,-1.71167802811,0.484456926584
2017/07/09/10:07:06.024385,441069,1499566028,829300232,,0.760361396755,0.0121930789451,0.177527587773,0.743490298346,0.652681776417,-0.0942200304349,0.111136226599,-0.0673395827472,-0.221322734785,0.0163366308114,-0.209103745525,0.256638432651,-0.32897360026,-2.95554018021,0.655218958855,-0.734621763229,-0.501736938953,-1.49484932423,0.455217212439
2017/07/09/10:07:06.034612,441070,1499566028,839305535,,0.76052833408,0.0111985576519,0.178351801675,0.743456169669,0.652511521965,-0.0953655786498,0.111386910783,-0.0476342112071,-0.190825212757,0.0151118983713,-0.191427004423,0.234452667221,-0.279066138292,-2.24270224571,0.58964240551,-0.004419606179,-0.538948893547,-1.24858105183,0.405492901802
2017/07/09/10:07:06.044703,441071,1499566028,849306996,,0.75934387873,0.00834149564364,0.178220635653,0.744082250506,0.651458298141,-0.097947286986,0.111130640407,-0.0739438222193,-0.228261891884,0.0256204076336,-0.264971592277,0.295736144392,-0.271939224511,-1.35355484486,-0.223587661982,-0.408813118935,-0.426027834415,-0.939249098301,0.27838498354
2017/07/09/10:07:06.054947,441072,1499566028,859308745,,0.758636535539,0.00556839196934,0.178544902765,0.744889870495,0.650096766745,-0.10032361837,0.111572605501,-0.0795956253147,-0.250181480745,0.0405421438929,-0.308879664655,0.297510124772,-0.285160473339,-1.09810137749,-0.170926660299,-0.995942533016,-0.455505728722,-0.904298841953,0.22262430191
2017/07/09/10:07:06.064596,441073,1499566028,869301304,,0.757240396307,0.00319802392928,0.178304012469,0.745556102724,0.649035468551,-0.103038666228,0.110824597977,-0.0814444694152,-0.248627815042,0.0444637397744,-0.330094554828,0.301967068792,-0.277653944585,-1.0773075819,0.143212005496,-1.94526529312,-0.454433262348,-0.86159658432,0.184015005827
2017/07/09/10:07:06.074697,441074,1499566028,879311850,,0.757672564786,0.00175479996974,0.179385936566,0.745717417284,0.648632761533,-0.103837998519,0.111349648805,-0.084526021063,-0.247354031478,0.0376787678711,-0.31457774641,0.308193764225,-0.29280374216,-0.938794672489,0.543907046318,-1.85202085972,-0.347125142813,-0.823888301849,0.243089944124
2017/07/09/10:07:06.084602,441075,1499566028,889299403,,0.756263174136,-0.00128000557386,0.179940741297,0.746950776431,0.646830393538,-0.106193023553,0.111346402425,-0.0747893671028,-0.250592530723,0.0390588293377,-0.279822344043,0.256729929357,-0.320608522126,-0.157956182957,0.122635036707,-1.23241949081,-0.122400991619,-0.485427975655,0.165003940463
2017/07/09/10:07:06.094634,441076,1499566028,899300481,,0.755529450773,-0.00346621157932,0.179852250342,0.747516103432,0.645880088067,-0.10826103553,0.11107715847,-0.0684309124156,-0.218367854644,0.0374977160713,-0.223058080129,0.238295947695,-0.307690889652,-0.768757343292,0.49129396677,-0.90366768837,-0.240413397551,-0.76183795929,0.258218705654
2017/07/09/10:07:06.104605,441077,1499566028,909302435,,0.755390722571,-0.00555891217077,0.181004274782,0.748766533536,0.644269681987,-0.108947438629,0.111336026269,-0.0448776120864,-0.204704274298,0.0554611482835,-0.185688028245,0.179983113744,-0.30555551832,-0.505656123161,0.424039125443,-0.135678067803,-0.218667864799,-0.715736150742,0.232052385807
2017/07/09/10:07:06.114570,441078,1499566028,919313006,,0.754024279969,-0.00731065017323,0.18040209526,0.749097121263,0.643679211342,-0.111284455992,0.110210460738,-0.0637174714423,-0.216019301181,0.0634597619169,-0.197912092684,0.202345212842,-0.33157609037,-1.3321018219,0.580478906631,-1.12071204185,-0.35142108798,-0.987290680408,0.300136089325
2017/07/09/10:07:06.124404,441079,1499566028,929297133,,0.753373080347,-0.00985914464889,0.181507301541,0.750407971065,0.641915009332,-0.112456822885,0.11039230382,-0.0696866978113,-0.187447176827,0.0425353666486,-0.144541136855,0.220385358926,-0.32128699261,-1.08958101273,-0.101252987981,-1.18785440922,-0.322313666344,-0.836801528931,0.254175633192
2017/07/09/10:07:06.134554,441080,1499566028,939302562,,0.753219118575,-0.011727926426,0.182105324931,0.751372831184,0.640663482553,-0.11320220666,0.110337804443,-0.0587178072125,-0.198644491467,0.0392097196774,-0.12747494188,0.184147656377,-0.318841350716,-0.288176000118,-0.273894250393,-1.30097866058,-0.251121133566,-0.514358103275,0.157884135842
2017/07/09/10:07:06.144348,441081,1499566028,949298697,,0.752903325499,-0.0125239050993,0.182228748591,0.751908768949,0.639966357117,-0.114107570728,0.109798575759,-0.066870395716,-0.197436759912,0.0276482191965,-0.117852476643,0.195396485808,-0.344200864226,-0.00867240875959,0.170842587948,-0.852374851704,-0.30941671133,-0.421919882298,0.119238108397
2017/07/09/10:07:06.154459,441082,1499566028,959305699,,0.752697819654,-0.0144167698714,0.182878832471,0.75267360484,0.638904816072,-0.114907212476,0.109906383337,-0.0552310920674,-0.194550239763,0.0506541637769,-0.0945774336284,0.142007726353,-0.343424096436,-0.367811799049,0.51921081543,-0.459200799465,-0.235191762447,-0.64899122715,0.226498425007
2017/07/09/10:07:06.164228,441083,1499566028,969299525,,0.751843883597,-0.0167438835965,0.183712473438,0.754001161117,0.637193349621,-0.11598823406,0.109606632063,-0.0606411453197,-0.196752767794,0.0601160684726,-0.117104993815,0.149153174681,-0.342146591061,-1.46192789078,0.0661069974303,-0.78168463707,-0.130520865321,-0.980937600136,0.30997467041
2017/07/09/10:07:06.174582,441084,1499566028,979298982,,0.751161312854,-0.0179052674236,0.183792531721,0.754603474138,0.636453539585,-0.116973020766,0.108709710612,-0.0805404625431,-0.207650509104,0.0535528174537,-0.115419816817,0.188803825831,-0.364343217013,-0.903047204018,0.639481306076,-0.764698326588,-0.28304335475,-0.861943662167,0.268589049578
2017/07/09/10:07:06.184643,441085,1499566028,989305664,,0.750277787317,-0.0196654499056,0.183936056772,0.755678560068,0.635041992424,-0.118268604521,0.108093102904,-0.0844089548461,-0.19357171223,0.0469520024056,-0.0763342231592,0.192755616107,-0.375025991172,-0.217749640346,0.974292516708,-1.34120833874,-0.327280968428,-0.597641289234,0.185166478157
2017/07/09/10:07:06.194694,441086,1499566028,999305860,,0.749576966736,-0.0215159776158,0.184545379859,0.756962670973,0.63352549538,-0.118849664447,0.107367214352,-0.0946977382053,-0.18092743239,0.0356714489985,-0.0202867960017,0.194134192069,-0.412739210898,0.374391615391,0.543775320053,-0.954508841038,-0.177712902427,-0.443182170391,0.173140078783
2017/07/09/10:07:06.204660,441087,1499566029,9300671,,0.747766687551,-0.0230114271952,0.184741149046,0.75799221914,0.632203142264,-0.120629186607,0.105903644757,-0.0999740276382,-0.18599825341,0.0465704880779,-0.0226499887867,0.19879348643,-0.426453308694,-0.00130606815219,0.463492870331,-1.11101973057,-0.227629378438,-0.540271043777,0.196804001927
2017/07/09/10:07:06.214674,441088,1499566029,19303906,,0.746960637112,-0.025188850057,0.185626005874,0.758906644341,0.630905927988,-0.12185390507,0.105688414805,-0.112054335133,-0.192958145145,0.0533217586883,-0.0387144165018,0.239878312834,-0.399040398511,-0.191570147872,0.434599250555,-1.04259157181,-0.277886003256,-0.60849571228,0.196272671223
2017/07/09/10:07:06.224689,441089,1499566029,29307144,,0.74528420263,-0.0281585989022,0.185908350547,0.760405783106,0.628909468331,-0.123518681812,0.104876407766,-0.113785503307,-0.188810951525,0.042493556759,-0.0334715699537,0.240686132169,-0.403997672731,-1.15143096447,-0.489035636187,-1.17939805984,-0.10192412883,-0.871525168419,0.291875481606
2017/07/09/10:07:06.234741,441090,1499566029,39304004,,0.745023267405,-0.0283373759049,0.185868188154,0.760966611347,0.628385792391,-0.123699658758,0.103728042298,-0.115422284898,-0.218054812448,0.047540481403,-0.0530509941294,0.20804126011,-0.470533525182,-0.0102792903781,0.962119579315,-1.3185325861,-0.362096428871,-0.523607611656,0.147948786616
2017/07/09/10:07:06.244560,441091,1499566029,49302548,,0.744103268306,-0.0312526464604,0.186813160466,0.762735025472,0.62607306997,-0.124615477996,0.103628059043,-0.0953866215234,-0.184666592526,0.0458856852095,-0.032607890851,0.180558035288,-0.425224872813,-0.0533970072865,0.50450193882,-0.938473701477,-0.264328092337,-0.495310366154,0.131262868643
2017/07/09/10:07:06.254708,441092,1499566029,59307207,,0.742464194505,-0.0335429308931,0.187480671289,0.764106054474,0.624276478144,-0.126094297852,0.102572142425,-0.0817646628665,-0.181480713206,0.0640600169754,-0.00980104599684,0.148920412156,-0.416021363181,-0.0445463880897,-0.0234510973096,-0.688706040382,-0.0113871023059,-0.412216693163,0.130268037319
2017/07/09/10:07:06.264747,441093,1499566029,69307691,,0.741908857255,-0.0357514098235,0.1881295361,0.765046022942,0.622939431413,-0.127127544008,0.102418919772,-0.111059821188,-0.210717061241,0.0502735131895,-0.0286352394218,0.193707889061,-0.449758071059,-0.353851288557,-0.199440211058,-0.620853722095,0.0201743394136,-0.568548798561,0.175367742777
2017/07/09/10:07:06.274709,441094,1499566029,79298379,,0.740904218139,-0.0373549072427,0.188297806722,0.766045120778,0.62169020224,-0.127882042348,0.101598959719,-0.144310637822,-0.226321416628,0.0408642870912,-0.0597552646462,0.27222069724,-0.449259438255,0.116926625371,0.300603359938,-0.699300408363,-0.110959142447,-0.425395935774,0.103947982192
2017/07/09/10:07:06.284776,441095,1499566029,89299359,,0.738454902145,-0.0391947682158,0.187970466115,0.767390958973,0.619815670772,-0.13030462046,0.0998015843515,-0.135236965841,-0.210744363706,0.0380149037261,-0.0668038166197,0.265197811486,-0.415969130224,-0.706793725491,0.0481874980032,-1.40196669102,-0.137051567435,-0.558784127235,0.144407123327
2017/07/09/10:07:06.294563,441096,1499566029,99303459,,0.738026980272,-0.0403155573784,0.188879706527,0.767823397013,0.619275448787,-0.130713962797,0.0992925448265,-0.139132801962,-0.220289269842,0.0459801026389,-0.065483247034,0.249416255269,-0.426009054356,-0.692241668701,0.854370176792,-0.631679534912,-0.251540750265,-0.566319584846,0.151392281055
2017/07/09/10:07:06.304533,441097,1499566029,109311362,,0.736545709305,-0.0430440402556,0.189236706546,0.768907342924,0.617606552653,-0.132566960549,0.0988415149994,-0.124734373331,-0.216717380663,0.0576370014445,-0.0748696904188,0.213119923578,-0.413847476216,-0.463612526655,0.814101159573,-0.818836033344,-0.271337658167,-0.458108782768,0.10059363395
2017/07/09/10:07:06.314600,441098,1499566029,119299492,,0.735265809667,-0.0453415324891,0.189061165419,0.769988484677,0.616131162139,-0.13381585254,0.0979461184313,-0.124415564333,-0.221622350869,0.0466828439676,-0.0901437561801,0.221127838942,-0.414935668801,-0.655500292778,0.575186789036,-0.959529221058,-0.181044399738,-0.521956503391,0.107443355024
2017/07/09/10:07:06.324603,441099,1499566029,129304978,,0.734587417479,-0.0471463852111,0.190255640055,0.771011883554,0.614740155712,-0.134431190917,0.0977930022163,-0.146396761621,-0.235326155937,0.0327281591185,-0.0879904729651,0.272635324654,-0.423910476963,-0.501017570496,0.589864075184,-0.620589792728,-0.123797431588,-0.448857724667,0.11197000742
2017/07/09/10:07:06.334395,441100,1499566029,139304434,,0.732366486307,-0.0503052754177,0.190179520251,0.772375493894,0.612647394348,-0.136787921584,0.0968934009035,-0.150156781572,-0.249985769252,0.0444239532113,-0.116473629422,0.258984534817,-0.451114004384,-0.907772123814,0.205137312412,-1.10994410515,-0.159395322204,-0.501804590225,0.0870868712664
2017/07/09/10:07:06.344639,441101,1499566029,149297771,,0.731695082734,-0.0530806166466,0.191230359081,0.77334750339,0.611131072416,-0.137762989523,0.0973334990886,-0.16698215614,-0.248063022208,0.0413535504558,-0.0951882388683,0.278768971381,-0.475736487451,-0.0981945171952,-0.251131922007,-0.408609390259,-0.0399368405342,-0.275658130646,0.0212475638837
2017/07/09/10:07:06.354578,441102,1499566029,159302889,,0.729726929125,-0.0551246815434,0.191301139824,0.774443381524,0.609612452273,-0.139438936131,0.0957438767657,-0.155381715806,-0.23047554739,0.035010994776,-0.101851703377,0.282504761897,-0.426007307849,-0.0949735045433,-0.0351709201932,-0.874552428722,-0.139065653086,-0.220766246319,-0.0262270122766
2017/07/09/10:07:06.364605,441103,1499566029,169320941,,0.727886399531,-0.0579641874176,0.191523264203,0.775804080438,0.607468099252,-0.141526663488,0.0952929204549,-0.155805345989,-0.237832207038,0.0302202694896,-0.0980923434549,0.28040005737,-0.431627897387,-0.00351100042462,0.505208611488,-0.95016849041,-0.256679207087,-0.198572322726,-0.024575708434
2017/07/09/10:07:06.374751,441104,1499566029,179310342,,0.726459037661,-0.0598797695592,0.191494016158,0.776356035814,0.606564251189,-0.143053989024,0.0942691416087,-0.150294505402,-0.242056687104,0.030582265481,-0.112881289333,0.265827898875,-0.433828904832,0.072061277926,0.249005436897,-0.958595275879,-0.1484221071,-0.188316836953,-0.0322939231992
2017/07/09/10:07:06.384506,441105,1499566029,189304464,,0.72508798568,-0.0618770141493,0.192382385053,0.777498613748,0.604874425144,-0.14436730089,0.0937065518536,-0.165857574852,-0.270282875632,0.0374161651438,-0.142121156165,0.277467561021,-0.47886116183,-0.0693318620324,0.186125874519,-0.540713369846,-0.124746799469,-0.292284399271,0.00808537006378
2017/07/09/10:07:06.394325,441106,1499566029,199298203,,0.723471654277,-0.0649429681285,0.192125077777,0.778605101382,0.603131590859,-0.146067236184,0.0931168229929,-0.153132617226,-0.25453769801,0.0326095185039,-0.129660994479,0.259210778011,-0.42734376965,-0.640438437462,0.463687628508,-0.421163737774,-0.259910792112,-0.529499232769,0.0614549256861
2017/07/09/10:07:06.404339,441107,1499566029,209305144,,0.722134866614,-0.0673753255031,0.192784350775,0.779820799974,0.601334109719,-0.147262276872,0.0926856527573,-0.151162832466,-0.251588105146,0.0276509643292,-0.118833617432,0.24870316999,-0.441844041071,0.0534777119756,0.187422931194,0.0678151994944,-0.0956376045942,-0.340169042349,0.0186590440571
2017/07/09/10:07:06.414485,441108,1499566029,219324870,,0.720643473366,-0.069444841666,0.192368264306,0.780807864486,0.599817952297,-0.148782094079,0.0917681390222,-0.157972941654,-0.22810218715,0.0170819633716,-0.0901733723033,0.280710066556,-0.423419792298,-0.314483702183,-0.472418755293,-0.74409288168,-0.0398647785187,-0.318202316761,0.0226685814559
2017/07/09/10:07:06.424736,441109,1499566029,229304233,,0.720218533298,-0.0713900763099,0.193557532895,0.781403068112,0.598786763925,-0.149525791929,0.0922263196718,-0.141293867836,-0.247557680596,0.0139234105205,-0.109686020016,0.231303335092,-0.413016403982,0.684692621231,0.630366683006,-0.328598678112,-0.202909171581,-0.0430740900338,-0.109846770763
2017/07/09/10:07:06.434701,441110,1499566029,239311773,,0.718273439685,-0.0737895452778,0.192934436427,0.78255353429,0.597068722572,-0.151160424702,0.0909364201005,-0.134639012952,-0.24719538666,0.0212407243823,-0.103084259905,0.193903730533,-0.399871243434,-1.20703125,0.2313978374,-0.303846001625,-0.155807882547,-0.61208242178,0.102021664381
2017/07/09/10:07:06.444634,441111,1499566029,249302154,,0.717284451511,-0.0761860435711,0.19318173029,0.783482434943,0.595616186436,-0.152169170128,0.0907809245067,-0.129931776573,-0.2567564714,0.0360483838764,-0.132002741813,0.167217658539,-0.417007137004,-1.03179514408,0.362130254507,-0.401205956936,-0.183347553015,-0.525895237923,0.0402432307601
2017/07/09/10:07:06.454644,441112,1499566029,259305878,,0.715619230435,-0.0785348944382,0.193433600485,0.784571601291,0.593916281163,-0.153669782822,0.0899802826474,-0.144403700027,-0.225931986351,0.00928127632156,-0.0887852946311,0.230396171328,-0.407785883711,-0.466764569283,0.248516201973,-0.342967152596,-0.16527274251,-0.344077169895,-0.0292070619762
2017/07/09/10:07:06.467120,441113,1499566029,269306625,,0.714200040221,-0.0806831967525,0.19293027338,0.78559053698,0.592388908348,-0.154813985623,0.0891937179941,-0.13190272196,-0.233008495879,0.0165204016419,-0.0854964291137,0.180712871156,-0.414003529863,-0.307160317898,0.679738461971,-0.471944093704,-0.256898671389,-0.348383873701,-0.00925543531775
2017/07/09/10:07:06.474675,441114,1499566029,279306007,,0.713589860485,-0.082392823819,0.193411084836,0.786217797743,0.591508271813,-0.15512813761,0.0889651606537,-0.119897590156,-0.222509686723,0.0196210027032,-0.0695242760983,0.151568598077,-0.376571445144,-0.869563400745,0.178530141711,0.155616343021,-0.132849216461,-0.552133738995,0.0371791571379
2017/07/09/10:07:06.484640,441115,1499566029,289305606,,0.711984315605,-0.0851320894059,0.193315152067,0.787391496379,0.589705142796,-0.156442890432,0.088250201271,-0.107036019266,-0.217748154153,0.0293841011466,-0.0767114700531,0.117386666215,-0.36855341007,-2.03512096405,0.473128408194,-0.19990247488,-0.201227664948,-1.00314700603,0.250040739775
2017/07/09/10:07:06.494530,441116,1499566029,299302559,,0.711175429287,-0.0879056398157,0.194024477224,0.788491113361,0.587994654634,-0.157118562474,0.0886442756136,-0.123847083869,-0.237726743974,0.0180960921136,-0.0908600573178,0.134302039809,-0.414708027939,-1.77177655697,0.576807796955,-0.33557292819,-0.313913553953,-0.979560315609,0.228467971087
2017/07/09/10:07:06.504279,441117,1499566029,309300629,,0.709994074241,-0.0890590758317,0.19362592593,0.789027949506,0.587144630642,-0.158140908702,0.0876785640943,-0.101153791668,-0.228229910958,0.0255924562833,-0.0834976303948,0.0838516109517,-0.394722537678,-1.26458227634,0.739263415337,-1.04667258263,-0.323176056147,-0.772897064686,0.157719135284
2017/07/09/10:07:06.514516,441118,1499566029,319304622,,0.709434087655,-0.091274124376,0.193819889327,0.790219193774,0.585428587413,-0.158439143739,0.0878864754243,-0.100899730529,-0.208851636962,-0.00401240345929,-0.0589081935554,0.115229003401,-0.348734285396,-0.564011752605,0.803370833397,-1.09909319878,-0.358046203852,-0.558042645454,0.0780274048448
2017/07/09/10:07:06.524420,441119,1499566029,329304128,,0.708269094146,-0.0937768614598,0.194102774374,0.7913006894,0.583757466034,-0.159305910405,0.0877044281351,-0.097618408589,-0.219173985315,0.0137713495313,-0.0786338380638,0.0840991625111,-0.363137803298,-1.01620876789,-0.298050999641,-0.869298815727,-0.0887063667178,-0.71942782402,0.111561916769
2017/07/09/10:07:06.534523,441120,1499566029,339307205,,0.707228188839,-0.095885277997,0.19349752329,0.792012298561,0.582738600542,-0.15986570701,0.0870356139027,-0.095290361876,-0.240876322747,0.00704728646503,-0.0833942819864,0.0518024796127,-0.380421953173,-0.496132940054,0.639116585255,-1.3395357132,-0.240852743387,-0.521858990192,0.0720305144787
2017/07/09/10:07:06.544616,441121,1499566029,349298457,,0.706957238569,-0.0976739892192,0.194306583638,0.793041175328,0.581255438237,-0.159864360746,0.0875853636038,-0.096649979422,-0.213939136983,-0.00612971150184,-0.0471940261541,0.0656318597645,-0.349548415786,-1.21161746979,0.137459471822,-0.624483108521,-0.0972929447889,-0.812947034836,0.164180159569
2017/07/09/10:07:06.554445,441122,1499566029,359306818,,0.706390782076,-0.0997331679391,0.193997401671,0.793545956299,0.580440814552,-0.160317931397,0.0875867393822,-0.0917479885325,-0.225477022169,-0.00174832574653,-0.0499312160871,0.0380205620572,-0.349379085736,-2.37103629112,0.742385387421,-0.583866238594,-0.263389229774,-1.23703980446,0.353592038155
2017/07/09/10:07:06.564668,441123,1499566029,369305212,,0.705627671536,-0.101439605967,0.194298341512,0.794806369546,0.578805279085,-0.160160427634,0.087269245746,-0.0907791766117,-0.223235599062,0.00705204235933,-0.0764246991303,0.0417197083874,-0.335882015464,-1.6671705246,0.678776621819,-0.332490175962,-0.306918293238,-0.940365850925,0.22718578577
2017/07/09/10:07:06.574569,441124,1499566029,379299778,,0.704870458311,-0.103016711724,0.193932329877,0.795147785246,0.57811527932,-0.161069375236,0.0870596335649,-0.0817553400088,-0.212112981878,-0.00419687940197,-0.0544397812085,0.0144649108724,-0.348705026512,-1.72214949131,0.624977111816,-0.591292023659,-0.332813680172,-0.993620693684,0.25159111619
2017/07/09/10:07:06.584619,441125,1499566029,389308558,,0.703401535197,-0.105593619419,0.193961342894,0.796325951495,0.576348798045,-0.161794464653,0.0866579088991,-0.088035212669,-0.215814701924,-0.0070140817154,-0.0527215990872,0.0323602723935,-0.340944285191,-1.2089176178,0.604679107666,-0.583616256714,-0.245189607143,-0.811812758446,0.166835069656
2017/07/09/10:07:06.594588,441126,1499566029,399305282,,0.702782625008,-0.107633019533,0.19349841963,0.797078404621,0.575345482246,-0.161741157952,0.0865065937904,-0.0912284942959,-0.209996927726,-0.00432833816546,-0.068274675339,0.0500537728252,-0.305857997648,-1.26893949509,0.0851899236441,-0.682693719864,-0.159392178059,-0.825394034386,0.121246129274
2017/07/09/10:07:06.604558,441127,1499566029,409302134,,0.702295767318,-0.109563937111,0.193545838102,0.797971616041,0.573992906981,-0.162034265989,0.0867083581544,-0.0916544780222,-0.215666331732,-0.0140382940017,-0.0591530613794,0.0393251232024,-0.319090870658,-0.578332781792,0.690031826496,-0.972831606865,-0.18433240056,-0.672931373119,0.112405836582
2017/07/09/10:07:06.614617,441128,1499566029,419314717,,0.700995579489,-0.11146546979,0.193239048744,0.799024313311,0.57254251027,-0.162353848948,0.0860026069584,-0.082357100465,-0.197747017198,-0.0272360073188,-0.021013370649,0.0210100478743,-0.309688439221,-1.62200248241,0.764906644821,-0.915217339993,-0.330778032541,-1.02547335625,0.253962427378
2017/07/09/10:07:06.624698,441129,1499566029,429298528,,0.70086007462,-0.113429210525,0.193822280767,0.799736305008,0.571431232393,-0.162377539339,0.0867278721987,-0.0701033907705,-0.209043868083,0.00494763120208,-0.0439067174114,-0.0394235368286,-0.319809890018,-1.33892560005,1.00855243206,-0.69348949194,-0.476534157991,-0.980356156826,0.242760047317
2017/07/09/10:07:06.634613,441130,1499566029,439321726,,0.700164102651,-0.115057610477,0.193275681738,0.800250798311,0.570707560242,-0.162560325198,0.0864041732661,-0.0492536492911,-0.19314004673,-0.00538946652623,-0.0337984990827,-0.0669520823873,-0.289634413811,-2.14895009995,1.1247471571,-0.870658218861,-0.461730539799,-1.2726085186,0.375103473663
2017/07/09/10:07:06.644699,441131,1499566029,449298237,,0.699511191283,-0.117534501303,0.19310066477,0.801288435224,0.56917403439,-0.162628165529,0.0867746617919,-0.070628261551,-0.208036729719,-0.0169772587159,-0.0469151226888,-0.0243813772764,-0.287798618214,-2.12552237511,0.559657812119,-0.701278686523,-0.287857919931,-1.28026092052,0.389734297991
2017/07/09/10:07:06.654596,441132,1499566029,459299280,,0.698966631929,-0.120122364616,0.193343417324,0.802258927062,0.567733276793,-0.162640645907,0.0872213315061,-0.0715049035952,-0.216318276126,-0.0141597546631,-0.064420484857,-0.0308682461173,-0.280623276969,-1.42416203022,0.366243392229,-0.702380716801,-0.233527958393,-1.06481587887,0.237197980285
2017/07/09/10:07:06.664373,441133,1499566029,469338209,,0.697877476026,-0.121629498052,0.192786767614,0.802675059584,0.566916102481,-0.163642260673,0.08683370309,-0.0735732060335,-0.196041798417,-0.0253205156272,-0.0394294654359,-0.00542032936501,-0.273994143615,-1.62368094921,0.146640852094,-0.98312497139,-0.153633967042,-1.10421574116,0.266620010138
2017/07/09/10:07:06.674659,441134,1499566029,479304787,,0.697447851569,-0.123239832032,0.192595027575,0.80372525581,0.565625270551,-0.163063823914,0.0866253762878,-0.0762983945814,-0.18858143615,-0.0277343391107,-0.0383135986755,0.00820855581561,-0.277679646135,-1.17414522171,-0.15690715611,-0.891508936882,-0.098429992795,-0.928625822067,0.191915467381
2017/07/09/10:07:06.684528,441135,1499566029,489301848,,0.696910305946,-0.124203856889,0.192382858404,0.803958500358,0.565327617795,-0.163141932475,0.0862561541469,-0.0828478124664,-0.215822911047,-0.0162615739243,-0.0495829967285,-0.0228721182328,-0.318557937865,-1.60689437389,0.955988705158,-1.02996087074,-0.322499394417,-1.19667243958,0.308811098337
2017/07/09/10:07:06.694395,441136,1499566029,499302899,,0.695359855539,-0.127283209096,0.192096054913,0.805149351708,0.563391415143,-0.163989923261,0.0862086994237,-0.0803176591396,-0.188538364381,-0.0239435095993,-0.0262743199456,0.000885323371192,-0.277503693062,-2.9530134201,0.554475963116,-0.794668674469,-0.330256104469,-1.55486667156,0.454868614674
2017/07/09/10:07:06.704399,441137,1499566029,509307172,,0.695406453017,-0.128681423567,0.192285552884,0.805594707314,0.562759754264,-0.163715232247,0.0866945745657,-0.0642000602529,-0.182520069723,-0.0124460705911,-0.0325685848674,-0.0275836222803,-0.250939093213,-1.97931933403,-0.0336290299892,-0.881657719612,-0.253042072058,-1.20353639126,0.298310637474
2017/07/09/10:07:06.714515,441138,1499566029,519297695,,0.694393370895,-0.130827788243,0.192129047178,0.806707268143,0.561088224642,-0.164010701083,0.0866249249566,-0.0758247937136,-0.206860440259,-0.0117134932266,-0.0472537794856,-0.0209656156095,-0.266154881491,-1.56497395039,0.221910580993,-0.944945693016,-0.229548990726,-1.07092261314,0.266779571772
2017/07/09/10:07:06.724660,441139,1499566029,529305361,,0.693753100526,-0.13233232108,0.191330095299,0.80701165396,0.560636550553,-0.164186595373,0.0863806138952,-0.080652464127,-0.211007023836,-0.0157710354289,-0.0648065859775,-0.0234165978496,-0.294310722486,-2.03260421753,0.0691822320223,-1.40424561501,-0.234016135335,-1.17630290985,0.301337897778
2017/07/09/10:07:06.734536,441140,1499566029,539306301,,0.692932776395,-0.134888296842,0.191260125066,0.808067414763,0.559047481859,-0.164276668691,0.0866379959929,-0.0861488211292,-0.200462751322,-0.0260145049081,-0.0318196219963,-0.0030985896194,-0.272734653282,-2.20576381683,0.157711550593,-1.40126371384,-0.341421812773,-1.22786593437,0.30872708559
2017/07/09/10:07:06.744662,441141,1499566029,549311134,,0.692054116667,-0.136449869906,0.191260405806,0.80869614328,0.558064646752,-0.164620380372,0.0864553541233,-0.0724042204123,-0.1864737742,-0.0247704520823,-0.0356333614017,-0.0206267119852,-0.255997865688,-2.4715013504,0.807365655899,-0.960441827774,-0.424654245377,-1.41248202324,0.392978340387
2017/07/09/10:07:06.754545,441142,1499566029,559310926,,0.691053444353,-0.138182568124,0.190751749295,0.809218630957,0.557202427328,-0.165163823501,0.0860904971395,-0.0860748694307,-0.183324779891,-0.0293833105801,-0.0345697199838,0.025277923316,-0.240935926304,-3.59264850616,0.486048191786,-1.14340674877,-0.385964691639,-1.74058997631,0.485379457474
2017/07/09/10:07:06.764490,441143,1499566029,569304606,,0.690378323503,-0.140526536281,0.190911180349,0.809954406004,0.556173856289,-0.164874376367,0.086376743351,-0.106965983434,-0.211875803315,-0.0250299910995,-0.0535759557864,0.0350468785094,-0.278390681902,-3.21905326843,0.808829903603,-0.896128952503,-0.437860071659,-1.67403459549,0.451964616776
2017/07/09/10:07:06.774489,441144,1499566029,579304833,,0.689317326509,-0.141367543081,0.190406933289,0.810527162025,0.555357588355,-0.1652222583,0.0855878147791,-0.0868283835431,-0.177565155469,-0.0162482002253,-0.0231374282966,0.0196230424875,-0.222929303909,-2.95270895958,1.41741859913,-0.806972503662,-0.440379023552,-1.60897374153,0.442753404379
2017/07/09/10:07:06.784758,441145,1499566029,589304537,,0.688648006236,-0.143796445564,0.190127881636,0.81111395105,0.554510150524,-0.16510623967,0.0857471923754,-0.0691913133266,-0.160150075355,-0.0290574633217,0.013739343462,-0.00650522897893,-0.178230198505,-3.85022449493,0.904038906097,-0.831354916096,-0.456566572189,-1.84638273716,0.541080534458
2017/07/09/10:07:06.794542,441146,1499566029,599315758,,0.687627260159,-0.144736067761,0.18977683794,0.811249331216,0.554208940734,-0.165888361844,0.0849000825487,-0.0979159036006,-0.187108822367,-0.0401724660465,0.022155618001,0.0278008688957,-0.240532341021,-3.40614700317,1.69072842598,-1.61350882053,-0.67701792717,-1.66102814674,0.493300706148
2017/07/09/10:07:06.804587,441147,1499566029,609298599,,0.687266861871,-0.145788368827,0.189214837064,0.811434478877,0.554023248474,-0.165683718392,0.0847421506649,-0.0918228891417,-0.155216565132,-0.0456551895002,0.0428719308697,0.061515133775,-0.166337862609,-4.03853464127,1.71923112869,-1.49791944027,-0.745394945145,-1.92668068409,0.612202644348
2017/07/09/10:07:06.814639,441148,1499566029,619305799,,0.685428623751,-0.148451093383,0.188796889296,0.812574114758,0.552305274521,-0.166132976096,0.0841547741703,-0.0901956177971,-0.175645264702,-0.0258827092606,0.0252765149264,0.00574875112043,-0.22744155751,-4.39649057388,1.09712183475,-1.28951311111,-0.648107588291,-1.94259083271,0.618684709072
2017/07/09/10:07:06.824552,441149,1499566029,629299384,,0.685029006525,-0.149541611389,0.188804297239,0.812932888807,0.551744826014,-0.166225006442,0.0841843958025,-0.0819852986857,-0.153726779752,-0.0226377581739,0.0141766368817,0.00772737115963,-0.215959780157,-3.77566695213,1.27988314629,-0.944466114044,-0.627193450928,-1.82256639004,0.5595677495
2017/07/09/10:07:06.834236,441150,1499566029,639298861,,0.684578316919,-0.1500249821,0.187756002217,0.813271572305,0.551483836523,-0.165879489448,0.083300196373,-0.07726072631,-0.148632548225,-0.0243540747496,0.0262071364387,0.00551523206783,-0.19026286491,-3.80304431915,1.31186199188,-1.29910004139,-0.605484366417,-1.80762982368,0.591730237007
2017/07/09/10:07:06.845068,441151,1499566029,649303570,,0.682639064976,-0.152950023754,0.188032418955,0.813925839985,0.550183634506,-0.167112489012,0.083042828365,-0.0955851621418,-0.150396621559,-0.0364386681501,0.0278463283575,0.0726251422538,-0.169314002786,-4.06015396118,0.246004998684,-1.17094814777,-0.43575963378,-1.86183333397,0.581458330154
2017/07/09/10:07:06.854357,441152,1499566029,659299314,,0.682389210534,-0.153565607062,0.18774901549,0.81407504159,0.550075234001,-0.166898880451,0.0827274277563,-0.102081068705,-0.158611250402,-0.0172373924081,0.00493762280686,0.0842575347162,-0.161666053785,-3.15221333504,1.19640469551,-2.01353502274,-0.642137765884,-1.64158117771,0.510063111782
2017/07/09/10:07:06.864350,441153,1499566029,669303249,,0.68168048674,-0.154682067454,0.187406620052,0.814199269171,0.549885106759,-0.167101259974,0.082359506803,-0.0987201961799,-0.135557825279,-0.0352113695952,0.0207722511179,0.0941309818321,-0.15610677141,-3.31831121445,0.886317253113,-1.75177228451,-0.533010423183,-1.69182229042,0.505744338036
2017/07/09/10:07:06.874690,441154,1499566029,679310851,,0.680570241207,-0.15633983991,0.187329928569,0.814680852609,0.549130579098,-0.167454021087,0.0819137736511,-0.0889613991023,-0.140802332526,-0.0288706763582,0.0130889798793,0.0660983523707,-0.138057986485,-3.2182738781,0.859216809273,-1.61728668213,-0.552950501442,-1.6604026556,0.462428599596
2017/07/09/10:07:06.884348,441155,1499566029,689305005,,0.679938221838,-0.158023782869,0.186805506525,0.814905108804,0.548761354817,-0.167537829241,0.0819860651442,-0.0940996791099,-0.141837884879,-0.0347942135884,0.0315046468953,0.0796243886359,-0.105985098793,-3.18566966057,0.620233654976,-1.53623950481,-0.555048406124,-1.61846661568,0.463872492313
2017/07/09/10:07:06.894517,441156,1499566029,699305991,,0.678933364806,-0.158244316478,0.186110298836,0.815028606383,0.548731022811,-0.167732904504,0.0805500349347,-0.0991716682278,-0.126476028018,-0.0438064512516,0.0476509684644,0.110280584291,-0.0848979810609,-3.09955239296,1.12243843079,-1.65837109089,-0.63095676899,-1.64929521084,0.466164916754
2017/07/09/10:07:06.904418,441157,1499566029,709297676,,0.677964812052,-0.159852696508,0.185438795371,0.815326814421,0.548068277337,-0.168483523646,0.0804776448658,-0.074447006028,-0.111677278769,-0.0314342725901,0.0440848768876,0.0499297133369,-0.108794270811,-3.13000392914,1.17045605183,-1.98399579525,-0.613811910152,-1.63962936401,0.517852842808
2017/07/09/10:07:06.914392,441158,1499566029,719323208,,0.677500139267,-0.160736348248,0.185956466317,0.815999295757,0.547229457178,-0.168001000458,0.0803786934797,-0.0759936811459,-0.119693993583,-0.0514591727769,0.0445821684565,0.0266682256688,-0.164248558856,-2.74367904663,1.07666182518,-1.21461582184,-0.528633773327,-1.53062951565,0.432354450226
2017/07/09/10:07:06.924467,441159,1499566029,729298533,,0.676798348568,-0.161861516545,0.185631374828,0.816220745731,0.546953695028,-0.16804305891,0.0799179584669,-0.0768169141539,-0.0960507147517,-0.0428392166228,0.0499008372038,0.0379690769258,-0.18208449195,-3.29066753387,0.64063501358,-1.31602668762,-0.493572890759,-1.70891022682,0.471203476191
2017/07/09/10:07:06.934314,441160,1499566029,739304293,,0.676247910579,-0.163434085335,0.185593109497,0.816982921376,0.545728729091,-0.16811165503,0.0803587696998,-0.0779377210183,-0.11366690409,-0.032123247358,0.00963807253929,0.0369446911002,-0.172410951618,-3.34803938866,0.150174170732,-0.891084253788,-0.32523521781,-1.70035016537,0.481641232967
2017/07/09/10:07:06.944572,441161,1499566029,749299253,,0.675724842718,-0.163305379252,0.184378795289,0.817002485883,0.545747326303,-0.16841666559,0.0793890461326,-0.0633675900827,-0.104110192894,-0.0388887549437,0.0142437382329,0.0131892242102,-0.165343462112,-3.28848624229,1.08596384525,-1.87123465538,-0.564384222031,-1.6615653038,0.473980426788
2017/07/09/10:07:06.954626,441162,1499566029,759297299,,0.674830599364,-0.16480189787,0.184343530958,0.817405476849,0.544999242691,-0.168880049321,0.0793954710617,-0.0714572068726,-0.0956700771359,-0.0423589762757,0.0368042660446,0.0335415860395,-0.170465809913,-3.16364765167,0.824049830437,-1.52893805504,-0.535076677799,-1.57338261604,0.449823319912
2017/07/09/10:07:06.964559,441163,1499566029,769299400,,0.674601470577,-0.165032206432,0.183999522074,0.817866138453,0.544516205145,-0.16845030179,0.078876978479,-0.0691907270195,-0.105978618624,-0.0325277644362,0.00472484387501,0.0236872383479,-0.164247480139,-2.59894061089,1.35087800026,-1.43425357342,-0.654434204102,-1.45738136768,0.398461461067
2017/07/09/10:07:06.974605,441164,1499566029,779320984,,0.674154928977,-0.166431761068,0.18423617004,0.818512291828,0.543628870746,-0.168078592055,0.079087710239,-0.0732143295119,-0.094772527392,-0.034608245263,0.0281999682885,0.0339549937275,-0.159526731494,-3.39455080032,0.785777449608,-0.854637444019,-0.54561239481,-1.70202362537,0.489437699318
2017/07/09/10:07:06.984519,441165,1499566029,789308443,,0.672986420006,-0.167077844244,0.183634388735,0.818819880309,0.543076539866,-0.168757628504,0.078247928277,-0.0770060237191,-0.093659930781,-0.0447194147205,0.0413670788904,0.0478590604358,-0.165913714545,-4.34583950043,0.967563390732,-1.27289295197,-0.567529261112,-2.0166580677,0.589134991169
2017/07/09/10:07:06.994545,441166,1499566029,799303538,,0.672605896963,-0.167961837954,0.182860514498,0.819033575044,0.542702037041,-0.168949930387,0.0781947758071,-0.0481056876084,-0.0634912021601,-0.0388583762952,0.0348967639293,0.0192007456864,-0.128505511212,-4.83118104935,1.63926172256,-1.58842122555,-0.775462508202,-2.22721934319,0.696874499321
2017/07/09/10:07:07.004429,441167,1499566029,809305053,,0.671560337392,-0.169347524926,0.182985362152,0.819389253864,0.54202451108,-0.169451003081,0.0780835296068,-0.0611258830194,-0.0797220300541,-0.0316516874519,0.00502717328536,0.0457245482028,-0.118249400419,-4.52161312103,1.3498942852,-1.40315818787,-0.706982433796,-2.06561851501,0.623557448387
2017/07/09/10:07:07.014547,441168,1499566029,819304708,,0.671024517225,-0.169180542697,0.182063036072,0.819405410105,0.542062310756,-0.169683046848,0.0771420038694,-0.076158993763,-0.0930531356356,-0.03914584056,0.0103567402699,0.0705040654226,-0.115973748273,-4.56294250488,1.95110976696,-1.42351746559,-0.806219279766,-2.09676647186,0.638178944588
2017/07/09/10:07:07.024465,441169,1499566029,829305085,,0.670745941303,-0.169722382335,0.181487486459,0.819740251641,0.541599491889,-0.169612697285,0.0769898898909,-0.0657634161099,-0.0660811439843,-0.0563980430029,0.0414210772164,0.0642069350155,-0.120002159889,-4.10958719254,1.45033299923,-1.23773372173,-0.59248238802,-1.97445785999,0.590383946896
2017/07/09/10:07:07.034612,441170,1499566029,839305413,,0.67032672467,-0.170761282437,0.181656954483,0.820343048532,0.540736590196,-0.169436531338,0.0770226239301,-0.0616911311415,-0.0723681094445,-0.0396065761844,0.00987001761183,0.0606332718238,-0.102655822529,-5.0355091095,2.06607866287,-1.00236582756,-0.844030022621,-2.3339240551,0.73395472765
2017/07/09/10:07:07.044419,441171,1499566029,849307187,,0.668672529374,-0.171287766768,0.180483438823,0.820663872486,0.540115152841,-0.170488525232,0.0756312953218,-0.0556629883374,-0.0536967580611,-0.0291591519637,0.0146023889599,0.0585973775137,-0.104824502128,-5.67191839218,2.10337233543,-1.68060660362,-0.856762647629,-2.48230195045,0.805925190449
2017/07/09/10:07:07.054582,441172,1499566029,859302147,,0.668757135973,-0.171605761083,0.180507036497,0.820590056805,0.540281335258,-0.170302188994,0.0756650637193,-0.0682197275322,-0.0475720221271,-0.0500789264232,0.0507614193885,0.0778711659785,-0.127763983132,-5.11219882965,1.48864936829,-0.924212515354,-0.649417161942,-2.34354329109,0.726030528545
2017/07/09/10:07:07.064449,441173,1499566029,869303332,,0.66833404513,-0.172114370727,0.180020086801,0.820736055001,0.540000870748,-0.170524592331,0.0755827428889,-0.0629821700778,-0.0536948253443,-0.0565589717934,0.0478618915491,0.0698497353608,-0.110295892522,-3.84349918365,1.62761306763,-1.18796610832,-0.646682739258,-1.9399818182,0.567350804806
2017/07/09/10:07:07.074562,441174,1499566029,879303435,,0.66734423134,-0.17331073742,0.17972334957,0.821073766856,0.539369951397,-0.171050988076,0.0752295446569,-0.0638563791508,-0.0729833383582,-0.0478145897308,0.0290761764592,0.0637316504673,-0.0972569480101,-4.38510608673,1.48789727688,-1.08402168751,-0.6675106287,-2.11705470085,0.642714560032
2017/07/09/10:07:07.084430,441175,1499566029,889305690,,0.667609843634,-0.173136401997,0.179315116744,0.821053248915,0.539604207863,-0.170498881471,0.0750266134052,-0.0350834792142,-0.030723776998,-0.0434198853068,0.0359372862661,0.045982201435,-0.0468097820309,-4.26992750168,1.66981911659,-0.940441608429,-0.658143341541,-2.17193937302,0.647616326809
2017/07/09/10:07:07.094630,441176,1499566029,899319509,,0.666654743606,-0.174025408315,0.178888022851,0.821554941961,0.538709677614,-0.171072093417,0.0746572129002,-0.053321130084,-0.048646702148,-0.0428358025084,0.0246973342323,0.0702136607518,-0.0807039476343,-4.69484329224,1.42204809189,-1.24357056618,-0.750318169594,-2.16666102409,0.677066206932
2017/07/09/10:07:07.104723,441177,1499566029,909306191,,0.666596665575,-0.174311249664,0.178331642031,0.821647536265,0.53864328812,-0.170899011597,0.0745135031221,-0.0472719312436,-0.0504248330601,-0.0383925865806,0.0190806850908,0.0377476546741,-0.103213464515,-4.13790369034,2.15431690216,-1.13570284843,-0.782123327255,-2.11696767807,0.673737049103
2017/07/09/10:07:07.114619,441178,1499566029,919305926,,0.666403293613,-0.174388574426,0.178014578241,0.821623633225,0.538608612244,-0.171222180672,0.0742854830329,-0.0322678076511,-0.0306128273426,-0.0393386113006,0.0271123677648,0.0420495320565,-0.0645533245219,-3.91844725609,2.06056499481,-1.28880727291,-0.726246535778,-2.0003452301,0.644152760506
2017/07/09/10:07:07.124525,441179,1499566029,929307432,,0.666556571353,-0.174252940759,0.177551386498,0.821594564826,0.538811849328,-0.170805648501,0.0740917843754,-0.0379055192708,-0.0409101401462,-0.0335722431737,-0.00280935117714,0.0631906123059,-0.0448741727421,-4.11322116852,2.06388568878,-1.20802032948,-0.73614603281,-2.06350207329,0.633547544479
2017/07/09/10:07:07.136570,441180,1499566029,939302628,,0.665458930929,-0.175176283466,0.177517399127,0.821904365756,0.538159263103,-0.171569013766,0.0736335154885,-0.0392227293772,-0.0442905181571,-0.0412612057135,0.00697113378576,0.0522541798929,-0.0472051907623,-5.271235466,1.71222925186,-0.912727236748,-0.636731147766,-2.41415429115,0.750014364719
2017/07/09/10:07:07.144444,441181,1499566029,949301193,,0.66477116398,-0.175992060355,0.176988178035,0.822198034844,0.537534381595,-0.172150816311,0.0735613794405,-0.0394350993335,-0.0627700984952,-0.0234170762991,-0.0298935011058,0.0317760266961,-0.0867710590053,-5.75536584854,1.97865700722,-1.22442018986,-0.769961833954,-2.55772590637,0.83325368166
2017/07/09/10:07:07.154754,441182,1499566029,959298405,,0.664864930512,-0.175476437083,0.176727068724,0.821829601532,0.538125588007,-0.172228796152,0.0731723947616,-0.0308504569373,-0.0433633138439,-0.0342512781061,-0.0209090779595,0.0443363244034,-0.0565755498026,-4.65741968155,2.10387659073,-1.05171918869,-0.70295214653,-2.16911101341,0.650332391262
2017/07/09/10:07:07.164566,441183,1499566029,969298157,,0.664279242709,-0.176189568687,0.17601624129,0.822078401098,0.537642625109,-0.172652280262,0.0729294195353,-0.0311961404904,-0.0198909350683,-0.030819635611,-0.00131345659371,0.0803459759382,-0.0146727792689,-4.65181207657,1.92444229126,-1.42694544792,-0.739009141922,-2.16988396645,0.68186289072
2017/07/09/10:07:07.174628,441184,1499566029,979297645,,0.664226162718,-0.176261627546,0.175833789436,0.821987323724,0.537747516739,-0.172779285552,0.0728818658011,-0.0267980489556,-0.0275685072302,-0.0290600138336,-0.0163760381918,0.064364376609,-0.0214509280842,-4.66337633133,1.59512042999,-1.14404821396,-0.664618551731,-2.167283535,0.690986037254
2017/07/09/10:07:07.184609,441185,1499566029,989305968,,0.66344735641,-0.177433688324,0.175793790219,0.822106249412,0.537228197582,-0.173721323906,0.0731305683079,-0.0403551780274,-0.0400067900466,-0.0289729023439,-0.022572314974,0.0796417955337,-0.028686470023,-4.33564805984,1.13106310368,-1.3832461834,-0.561904489994,-1.99365603924,0.629811823368
2017/07/09/10:07:07.194678,441186,1499566029,999309058,,0.663179726391,-0.17771436196,0.176042734451,0.822150567359,0.537060420791,-0.174026923788,0.0731380804225,-0.034667557591,-0.0404280066249,-0.0198984013137,-0.062012319859,0.0879748193049,-0.019216045726,-3.75846624374,1.31383728981,-0.976930737495,-0.534211277962,-1.86488890648,0.566156983376
2017/07/09/10:07:07.204811,441187,1499566030,9306349,,0.663746695094,-0.177160847608,0.175684250345,0.821738336557,0.537724620604,-0.173866678553,0.0732715273384,-0.0265195658561,-0.0314201754023,-0.0265899071887,-0.0582994255388,0.0808118030241,-0.000650161890319,-3.10499453545,1.30828619003,-0.817770123482,-0.546224355698,-1.65627944469,0.494859874249
2017/07/09/10:07:07.214749,441188,1499566030,19301866,,0.663003459399,-0.177993339722,0.17498890668,0.821759581569,0.537349815533,-0.174931588359,0.0732482439443,-0.0117115704595,-0.0242355234988,-0.0250334074749,-0.045261381047,0.0569226224775,0.0302201629138,-3.62723374367,0.791931688786,-1.01218318939,-0.489797592163,-1.72732889652,0.505412220955
2017/07/09/10:07:07.224515,441189,1499566030,29305913,,0.662195219469,-0.179144915343,0.175082195268,0.821669145798,0.537217570415,-0.175701146893,0.0733907614255,-0.0362296656483,-0.0497298478494,-0.0247633000735,-0.0864191008685,0.0971054513576,-0.00697508459415,-3.65704083443,0.956920087337,-0.993412852287,-0.532798051834,-1.79312872887,0.529978692532
2017/07/09/10:07:07.234498,441190,1499566030,39317310,,0.66309952825,-0.178522103759,0.175008433197,0.821326858776,0.537792375114,-0.175423116173,0.073676879913,-0.0256688983438,-0.0587744861135,-0.00512057646689,-0.113249422025,0.0693815343111,0.00596087562487,-3.4554412365,1.0719691515,-0.871540367603,-0.513085305691,-1.73264038563,0.518716692924
2017/07/09/10:07:07.244658,441191,1499566030,49304659,,0.662226292957,-0.17946006115,0.174624807144,0.821036304992,0.53775074196,-0.17684972339,0.0738085411222,-0.0311598795926,-0.0528016230953,-0.00867821485957,-0.1188746734,0.107707107908,0.0256229790018,-3.3395011425,2.00940394402,-1.30972695351,-0.697095870972,-1.76898086071,0.567760586739
2017/07/09/10:07:07.254688,441192,1499566030,59300125,,0.662406972848,-0.180188217171,0.175234006624,0.821137399446,0.537432469429,-0.176983509654,0.0746762970772,-0.0201341287038,-0.0405335893805,-0.00909152140572,-0.125376122795,0.0939734114984,0.031921171037,-3.6790971756,1.36149907112,-0.670026063919,-0.575334012508,-1.79811429977,0.559430956841
2017/07/09/10:07:07.264552,441193,1499566030,69299035,,0.661952879247,-0.180615645804,0.174953903471,0.820704509002,0.537672523459,-0.178248345468,0.0746986864655,-0.0267738436887,-0.0473048856553,-0.00867098437907,-0.125616007336,0.107273549032,0.0267158515404,-3.8724167347,0.908415496349,-0.681781411171,-0.445082753897,-1.84249997139,0.552619695663
2017/07/09/10:07:07.274608,441194,1499566030,79297871,,0.662112637713,-0.180799311075,0.175092702459,0.820523328454,0.537846015437,-0.178338846584,0.0752222502955,-0.0124190455624,-0.0616364635305,0.00648987598465,-0.156446164988,0.0700353813973,0.0439117594027,-2.94634032249,1.32299232483,-1.06645858288,-0.572016358376,-1.51150214672,0.425807952881
2017/07/09/10:07:07.288592,441195,1499566030,89302670,,0.661723608714,-0.181056773963,0.174922494761,0.820480338682,0.537638281512,-0.179179940962,0.0751773958384,-0.031733542948,-0.0435614505268,-0.0129621772188,-0.118709687342,0.120701461197,0.0418970465856,-2.49609565735,0.41794398427,-0.948352217674,-0.286030858755,-1.33846259117,0.352974683046
2017/07/09/10:07:07.294626,441196,1499566030,99305547,,0.661946801116,-0.181782784196,0.174939952714,0.820246977691,0.537698922377,-0.179660705949,0.0761366876157,-0.025509753993,-0.0559032250187,-0.00412117924251,-0.142960675799,0.0923538100627,0.0308410952095,-2.53175210953,0.63459277153,-0.952141225338,-0.387815535069,-1.35484349728,0.343102574348
2017/07/09/10:07:07.304470,441197,1499566030,109308010,,0.661384387955,-0.183204030974,0.175370078147,0.819895147514,0.537729571508,-0.180885514759,0.0768068067291,-0.0155902163239,-0.0440020327247,-0.00420584634266,-0.132849307921,0.0829951884456,0.0280328307372,-2.55339217186,0.323361515999,-0.777005016804,-0.396300673485,-1.34564578533,0.355320751667
2017/07/09/10:07:07.314619,441198,1499566030,119306154,,0.661818459644,-0.182431640971,0.174952112544,0.819512923785,0.53825022755,-0.181043650673,0.0768664871259,0.00378849377258,-0.0457745361152,0.00783384785333,-0.152047289482,0.04996155154,0.0625481913103,-3.01892328262,1.1468732357,-0.823648393154,-0.528874278069,-1.47911202908,0.428088605404
2017/07/09/10:07:07.324369,441199,1499566030,129305194,,0.661418086574,-0.182505675436,0.174408261723,0.819225091045,0.538388665297,-0.181977414765,0.0767601185337,-0.00831600105412,-0.039081622398,-1.15983443501e-06,-0.14209232656,0.0736272540833,0.046796358889,-2.27812242508,1.52176654339,-0.975309550762,-0.54992544651,-1.24398398399,0.352420806885
2017/07/09/10:07:07.334570,441200,1499566030,139305327,,0.66088648098,-0.183623680199,0.17485724377,0.819029856314,0.538297648123,-0.182911751505,0.0772594826096,-0.00140558274794,-0.0371556769435,0.00416603311691,-0.142288056115,0.075054558594,0.0847806838944,-2.70738172531,-0.0117623358965,-0.876736044884,-0.251518666744,-1.26226699352,0.316657781601
2017/07/09/10:07:07.344836,441201,1499566030,149314575,,0.660832595045,-0.184261651135,0.175357945445,0.818869860706,0.538282880538,-0.183431250002,0.0778245993837,-0.0255866068621,-0.0632685532326,0.0100532717142,-0.15934166799,0.0919660844972,0.0315018909616,-2.10008621216,-0.086436599493,-1.1096419096,-0.243210315704,-1.12615966797,0.242977082729
2017/07/09/10:07:07.354346,441202,1499566030,159298357,,0.659959243336,-0.185089923557,0.175302083998,0.818738001322,0.538002218543,-0.184737786436,0.0780618235503,-0.0355150743115,-0.0711218322756,0.00706568579828,-0.159523022471,0.103723349658,0.00827529342836,-2.11513829231,0.0965621471405,-0.927045941353,-0.228450104594,-1.10254645348,0.230151623487
2017/07/09/10:07:07.364721,441203,1499566030,169303364,,0.660104776979,-0.184906624403,0.174835052914,0.818383308,0.538371334801,-0.185183046679,0.0781812399108,-0.0222318819374,-0.0604152546168,0.00987929189825,-0.15555257075,0.0738391512197,0.0116873103695,-2.86483764648,1.04304611683,-1.21059656143,-0.437268942595,-1.4415525198,0.410043627024
2017/07/09/10:07:07.374625,441204,1499566030,179304819,,0.660400938803,-0.185367208458,0.174805739714,0.818380689994,0.538294322826,-0.185217331724,0.0786562666666,0.00326947326818,-0.0388162663765,0.00742984486147,-0.13899763226,0.048672840333,0.0573684955463,-3.34380912781,0.696984887123,-1.393892169,-0.391727924347,-1.56701278687,0.473030775785
2017/07/09/10:07:07.384601,441205,1499566030,189299421,,0.659736144298,-0.185731215845,0.175049793237,0.818338190546,0.538077199434,-0.186032846202,0.0786594779841,-0.00703885650923,-0.0318114502536,-0.00523334148138,-0.107832117223,0.0691088371882,0.0400912844945,-3.59589290619,0.586335539818,-0.783205926418,-0.346981287003,-1.60705065727,0.448861867189
2017/07/09/10:07:07.394644,441206,1499566030,199298013,,0.660316265213,-0.185938150318,0.175446082613,0.817893376105,0.538503340057,-0.186398978548,0.079498420534,-0.0133787238312,-0.0281576659355,-0.00140376373024,-0.0950159905209,0.0686317071258,0.044474208636,-3.03944826126,1.02049577236,-0.551497519016,-0.390693962574,-1.52194285393,0.461659818888
2017/07/09/10:07:07.404339,441207,1499566030,209302016,,0.660436562547,-0.186550111159,0.175507102975,0.81765113196,0.538637516872,-0.186750096478,0.0802536808339,0.0111077045029,-0.0146953624137,0.00937973445294,-0.0979736871494,0.0263921578607,0.0706833991697,-3.63842582703,0.712610542774,-0.374124884605,-0.388873875141,-1.63700771332,0.502109587193
2017/07/09/10:07:07.414560,441208,1499566030,219311340,,0.660721215491,-0.186060455966,0.175634856853,0.817421838034,0.538973849329,-0.186742720366,0.080348521051,-0.00582889123372,-0.0228709661695,0.00106075941849,-0.08343994616,0.0514302942476,0.0345384549796,-3.21107149124,1.0106921196,-0.453372180462,-0.458955287933,-1.48405754566,0.438185840845
2017/07/09/10:07:07.424613,441209,1499566030,229306342,,0.660138981725,-0.187180274137,0.175684005756,0.817530686624,0.538614637646,-0.187226133402,0.0805246764256,0.00431300167969,-0.0191394377713,0.00610286057733,-0.0789778881693,0.0284416729679,0.0467220894331,-3.34766840935,0.726270198822,-0.336479961872,-0.436840474606,-1.48535227776,0.431057274342
2017/07/09/10:07:07.434667,441210,1499566030,239326144,,0.660613592771,-0.186300678523,0.175351960682,0.817138441369,0.539211576125,-0.187256528072,0.0804402666771,0.0138499717832,-0.012232378871,-0.00473586573212,-0.0701918328474,0.0144590111663,0.0448994381913,-2.78560614586,0.941815137863,-0.757656097412,-0.315910339355,-1.37159597874,0.415700912476
2017/07/09/10:07:07.444293,441211,1499566030,249300473,,0.659841212217,-0.186829435152,0.17526668326,0.817185047356,0.538824718901,-0.188240159716,0.0802630858453,0.00327362634758,-0.0145692584839,-0.00187769845088,-0.0743169176786,0.03957515827,0.0371368157315,-2.31425571442,0.215337887406,-1.08651280403,-0.256431102753,-1.04003882408,0.233463853598
2017/07/09/10:07:07.454500,441212,1499566030,259302957,,0.660204628661,-0.187138853407,0.175423395579,0.817164549106,0.538837278718,-0.188055166992,0.0808191865496,-0.0139004311927,-0.00553529732392,-0.0116492161276,-0.00691944095587,0.0597026831884,0.0221256275399,-2.8097550869,0.417009413242,-1.14207661152,-0.244753092527,-1.27239215374,0.335460096598
2017/07/09/10:07:07.464383,441213,1499566030,269302164,,0.660751618328,-0.186668466512,0.175198175135,0.81706447119,0.539139338453,-0.187619125333,0.0808299910932,-0.000526306048134,-0.00193198799891,-0.00378592679359,-0.00493778645324,0.0126213864782,0.0201674783754,-3.3067522049,0.929947018623,-1.09464967251,-0.411765098572,-1.53695225716,0.472959518433
2017/07/09/10:07:07.474490,441214,1499566030,279303582,,0.660996838885,-0.186805514703,0.175148054483,0.816888988499,0.539493185783,-0.187299505973,0.0809838133525,0.0112719128195,0.00863124055776,0.000880430881499,-0.00526978987206,-0.0100089845609,0.00961692324014,-3.28378820419,0.638199210167,-1.10801708698,-0.311268210411,-1.46650505066,0.436209380627
2017/07/09/10:07:07.484420,441215,1499566030,289298925,,0.660431642203,-0.186181176356,0.174825977842,0.81696782882,0.53931344709,-0.187786320155,0.0802550336372,0.0188972432217,0.00645582490078,-0.0139274525081,0.00821991278479,-0.0344303973783,0.0116239107453,-3.72853207588,1.26971876621,-1.13113689423,-0.483931064606,-1.55000782013,0.467979609966
2017/07/09/10:07:07.494450,441216,1499566030,299301092,,0.661210265833,-0.185916311704,0.174850589036,0.817010553516,0.539542282137,-0.186897089248,0.0803576957185,0.00982874756126,-0.000185189805195,-0.0065388171268,0.00722108119321,-0.0350379909779,-0.00633265536309,-4.12066745758,1.64405083656,-0.941310286522,-0.524203598499,-1.72534835339,0.574951589108
2017/07/09/10:07:07.504299,441217,1499566030,309301357,,0.660934367031,-0.187192840081,0.175049671913,0.817088681031,0.53914395381,-0.187303810373,0.0812844820444,0.0183079577718,0.0126257663165,-0.0142203103268,0.0252271186586,-0.0286545668311,0.0159017471441,-4.04720020294,0.559785783291,-0.693642139435,-0.339136123657,-1.58004152775,0.462322950363
2017/07/09/10:07:07.514621,441218,1499566030,319300134,,0.661069286546,-0.18672536699,0.174492450642,0.816950357872,0.539453057325,-0.187194296379,0.0808752565274,0.015338748796,-0.00566092118538,-0.00829038631247,-0.0136761862099,-0.0258229410755,0.0239445429927,-4.1403799057,1.38578677177,-0.845383167267,-0.478976160288,-1.70723164082,0.550169289112
2017/07/09/10:07:07.524492,441219,1499566030,329303202,,0.661515062213,-0.186283280842,0.174520436109,0.816941904452,0.539652123307,-0.186673152299,0.0808371496939,0.00719674229557,-0.0100366300737,-0.0153834520143,-0.00265577690809,-0.0121412608208,0.0114315124923,-3.07797408104,1.25246429443,-0.968963682652,-0.453360676765,-1.31026625633,0.366842806339
2017/07/09/10:07:07.534564,441220,1499566030,339305545,,0.661590866947,-0.185942495218,0.174411381462,0.816840182253,0.539740192372,-0.186865368235,0.0808330102699,0.00939586891755,0.00358600300768,-0.00914595165634,0.007330472739,-0.0164809370902,0.0164651991728,-3.51520824432,1.76118135452,-0.850175857544,-0.558239579201,-1.48823952675,0.472673296928
2017/07/09/10:07:07.544501,441221,1499566030,349299065,,0.661426069153,-0.187088262838,0.174502547407,0.816879102077,0.539517318881,-0.187108914629,0.0813624562349,0.0110592241866,0.00396605680357,-0.0118455937456,0.0115740232859,-0.0165393726835,0.00964567407112,-3.58198857307,0.745938420296,-0.981662988663,-0.324674397707,-1.43615996838,0.443121105433
2017/07/09/10:07:07.554564,441222,1499566030,359303929,,0.661000882757,-0.186228299854,0.173932674604,0.816958495044,0.539486283573,-0.187291426858,0.0803448108903,-0.00149156962388,0.00200282408898,0.000129987457568,0.00991397687447,0.0151224718046,0.0223981388382,-3.91067147255,1.04471957684,-1.05892968178,-0.359547674656,-1.56014609337,0.470286339521
2017/07/09/10:07:07.565017,441223,1499566030,369299543,,0.66138179513,-0.186091987779,0.174174475121,0.816657747594,0.539961824479,-0.187111575545,0.0806263585733,0.00826815730608,0.0129240515409,-0.00719473243711,0.00498396743122,0.00628593333508,0.018405616669,-3.28504514694,1.41869354248,-1.26052463055,-0.488451182842,-1.35470843315,0.426203578711
2017/07/09/10:07:07.574496,441224,1499566030,379305912,,0.661747068786,-0.185704488853,0.174023435128,0.816633347703,0.540061955547,-0.186923650649,0.0806387525801,0.0016972963536,0.0131744600109,-0.0137598472716,0.00159950488636,0.0197533767167,0.000353150986346,-3.34319448471,0.963984966278,-1.19560754299,-0.349668204784,-1.39011561871,0.42842155695
2017/07/09/10:07:07.584757,441225,1499566030,389298691,,0.661352415761,-0.18591556639,0.173858119673,0.816882806573,0.539687290906,-0.187012566101,0.0804139818724,-0.00704261778881,0.0113246986992,-0.0246586009354,0.0222757804905,0.0438214196276,0.00829139617846,-2.32742261887,0.862936675549,-1.17395401001,-0.322802960873,-1.01667618752,0.255601644516
2017/07/09/10:07:07.594511,441226,1499566030,399302843,,0.660986225791,-0.18621882583,0.173545565609,0.816855213274,0.539651413683,-0.187364606363,0.0801150206832,0.0105153808652,0.0203540441861,-0.0220772989559,0.0289733980512,0.0124237986049,0.0374019600627,-2.8869535923,0.504431009293,-1.01584196091,-0.311134874821,-1.1820384264,0.315607279539
2017/07/09/10:07:07.604720,441227,1499566030,409299758,,0.661216832904,-0.185250165301,0.173253530425,0.816762549126,0.540051966701,-0.186880963982,0.0794878412648,-0.00255620735066,0.00748585228375,-0.0101952546264,0.0262949921604,0.00891115389112,-0.008398488774,-2.25064897537,0.422550797462,-0.980711579323,-0.177976176143,-0.946781218052,0.202333211899
2017/07/09/10:07:07.614509,441228,1499566030,419305905,,0.662202440333,-0.185152240814,0.1734446173,0.816515674612,0.540415869379,-0.186553597775,0.0803156049169,0.00146448421805,0.0066240882896,-0.0128582744217,0.0217021098132,0.00186307772986,-0.0146971652965,-1.44931101799,0.574564814568,-0.797032117844,-0.141260892153,-0.765183746815,0.129057407379
2017/07/09/10:07:07.624624,441229,1499566030,429299616,,0.661989095724,-0.184576995048,0.173191318449,0.816540435289,0.540425424166,-0.18669528386,0.0796677440266,0.0126474737088,0.0106731441534,-0.012537332574,0.0209691245361,-0.00536151233121,0.0208773944523,-1.40697193146,0.337628126144,-0.780319988728,-0.0754895731807,-0.74962836504,0.119487136602
2017/07/09/10:07:07.634375,441230,1499566030,439314565,,0.661010895171,-0.186276162235,0.172867783794,0.816727895257,0.539776585858,-0.187641797759,0.0799208245895,0.00366842614457,-4.56545271251e-05,-0.0106685542828,0.01287117923,0.00718086999028,-0.0049075511837,-2.35972523689,0.121326550841,-0.871490359306,-0.121026813984,-0.986352324486,0.230632632971
2017/07/09/10:07:07.644629,441231,1499566030,449330782,,0.661848750733,-0.186083600786,0.17306995914,0.816895600095,0.539782536892,-0.186664894018,0.0804525248436,0.00735585180452,-0.00303180450183,-0.0202341552816,0.00606621485443,0.00381851560574,-0.00634386134124,-1.7435311079,0.352913379669,-0.613457798958,-0.126052379608,-0.853718519211,0.165842890739
2017/07/09/10:07:07.654524,441232,1499566030,459301917,,0.661909955403,-0.185442135743,0.172634454089,0.816558177177,0.540242381632,-0.187045729012,0.0799049912841,0.00445341965051,-0.00108787296251,-0.0183979595107,0.0117708902339,0.00703062656549,-0.00403555631737,-2.7281229496,1.1599919796,-0.729747593403,-0.347866982222,-1.25657498837,0.388419479132
2017/07/09/10:07:07.664602,441233,1499566030,469300717,,0.661897542624,-0.185057570582,0.17163265575,0.816460584527,0.540565195497,-0.186874805028,0.0791150464631,0.0218194182831,0.026755385428,-0.0473183513215,0.0542116346218,0.00379364037614,0.0276401340339,-2.2174808979,0.893011569977,-0.909782290459,-0.280987948179,-1.01522302628,0.260074794292
2017/07/09/10:07:07.674608,441234,1499566030,479303108,,0.662029869064,-0.185168650721,0.172291037311,0.816666698897,0.540255165652,-0.186712204659,0.0794884364565,0.0166877223331,0.00610454659797,-0.0204307035859,0.0175466439061,-0.0127727560065,0.0086578433579,-1.37404382229,0.327415853739,-0.236677438021,-0.0321374684572,-0.714018523693,0.105971261859
2017/07/09/10:07:07.684527,441235,1499566030,489300480,,0.662410712944,-0.184733563876,0.171772122897,0.816586072033,0.540396703272,-0.186702725694,0.0793768371291,0.013694017936,0.0183957677704,-0.0161004131904,0.0265565003899,-0.00175203064204,0.0107772349634,-1.78034639359,0.407271325588,-0.270796835423,-0.166273266077,-0.912191987038,0.169643089175
2017/07/09/10:07:07.694594,441236,1499566030,499302016,,0.66231269081,-0.185416958149,0.17210622925,0.817039057806,0.539762883975,-0.18640534208,0.079726128377,0.0347401341711,0.0129860972492,0.00388576643206,0.00771580041805,-0.0558284532368,0.0124061432526,-1.72670209408,0.254868835211,-0.33452501893,-0.183763042092,-0.810618519783,0.138457268476
2017/07/09/10:07:07.704634,441237,1499566030,509299190,,0.662874690797,-0.184904931445,0.172335487813,0.816634079383,0.540488898433,-0.186075657011,0.0797269147107,0.0295332792979,0.00196190485274,-0.000391161153782,-0.00976882500769,-0.0425404971554,0.00690774205338,-2.29204177856,0.166187360883,-0.247740328312,-0.189026638865,-0.970679581165,0.231670975685
2017/07/09/10:07:07.714420,441238,1499566030,519304023,,0.662791168085,-0.185572288494,0.171998541469,0.816674609424,0.540209557324,-0.186560640225,0.0800708687162,0.00352407170028,-0.0230635727209,-0.000937504116301,-0.00857733280092,-0.0169266001035,-0.0320030818736,-1.89054381847,0.344774544239,-0.834072232246,-0.287276595831,-0.86399012804,0.181096762419
2017/07/09/10:07:07.724673,441239,1499566030,529297447,,0.663026272195,-0.185278715433,0.171789468296,0.816691222927,0.540315937765,-0.18625423567,0.0798967676811,0.0333889266358,0.00129450380962,0.00037106201265,-0.00346847302209,-0.0468581749443,0.0329094663851,-1.31786739826,-0.0869388133287,-0.667479157448,-0.0890303775668,-0.644246697426,0.0851923599839
2017/07/09/10:07:07.734403,441240,1499566030,539306575,,0.663875517511,-0.184879492044,0.172294808262,0.816734030315,0.54034026805,-0.185777973889,0.0804018834783,0.039481785835,0.0182512314569,-0.00591935871309,0.00304806108854,-0.0440735130885,0.0347138409303,-0.674741506577,-0.117178797722,-0.296245008707,-0.0100604519248,-0.461535096169,0.0157009847462
2017/07/09/10:07:07.744668,441241,1499566030,549305580,,0.663444085553,-0.185660082167,0.172265197867,0.816809749877,0.540065070698,-0.186205586834,0.0804924303862,0.027188080558,0.0161198557158,-0.00353352158815,-0.00311696796397,-0.0210114350654,0.0233912248554,-1.14352190495,-0.81763535738,-0.0140792131424,0.139987170696,-0.583989024162,0.0295506119728
2017/07/09/10:07:07.754441,441242,1499566030,559301869,,0.664082641063,-0.184886986172,0.172072635157,0.816796983745,0.540251716786,-0.185730246669,0.0804676663455,0.0230486420218,-0.00127469235921,0.00786461711126,-0.00293030932503,-0.0374475280557,0.00143083609218,-1.40355169773,0.476568192244,-0.692978024483,-0.147935211658,-0.737034976482,0.149278387427
2017/07/09/10:07:07.764452,441243,1499566030,569298388,,0.664013363107,-0.186147463408,0.172270735781,0.817144583978,0.539627567357,-0.185720712616,0.0811457597669,0.011499975811,0.00351220786757,-0.00976325189288,0.00905981980465,-0.00855842103266,-0.0128295530766,-1.13533174992,-1.04311776161,-0.317523121834,0.082848854363,-0.563546180725,0.0162918716669
2017/07/09/10:07:07.774515,441244,1499566030,579298097,,0.664072832371,-0.185407109169,0.171979466023,0.816846526304,0.540339747868,-0.185296210263,0.0803742732558,0.0161109210344,-0.020565595806,-0.00145722464358,-0.0129906240451,-0.0448824900643,-0.0181841253079,0.065531462431,-0.369513511658,-0.475446879864,0.0717728883028,-0.186118200421,-0.0927823856473
2017/07/09/10:07:07.784894,441245,1499566030,589299666,,0.664306137553,-0.185031348766,0.172083089773,0.816886752324,0.540290682512,-0.185251166304,0.0803991147372,0.0284676040579,0.0145170892423,-0.00602637004649,0.0323769332606,-0.0486482907203,0.0054451416987,0.706170320511,-0.257100909948,-0.312626838684,0.0797114893794,0.0137923210859,-0.158193796873
2017/07/09/10:07:07.794563,441246,1499566030,599310861,,0.66495479297,-0.18463047279,0.171293171319,0.816626960413,0.540772380371,-0.184997255624,0.0803844236532,0.0331389595214,0.0244220446847,-0.00894724580601,0.0389383568387,-0.0417617336895,0.0387930684734,-0.477052718401,0.423977375031,-0.615770161152,-0.070178642869,-0.418779909611,0.0430369228125
2017/07/09/10:07:07.804260,441247,1499566030,609316943,,0.664931811577,-0.185094999012,0.171655769794,0.81717197811,0.5399874914,-0.184776106239,0.0806303781803,0.0193218157191,0.00426164435585,-0.00496722643878,0.00784059852263,-0.0315377567792,-0.0109439019309,-0.600142717361,-0.140588343143,-0.406185805798,-0.167957946658,-0.378032922745,-0.0323110893369
2017/07/09/10:07:07.814481,441248,1499566030,619311543,,0.665317961561,-0.18436796549,0.170986609279,0.817045334906,0.540379379998,-0.184373631752,0.080208542538,0.00583838775357,-0.0203796702662,-0.00238980140866,-0.011942153828,-0.028072198408,-0.032584281687,-1.18143761158,0.948438286781,-0.539197802544,-0.360706686974,-0.641680717468,0.124297551811
2017/07/09/10:07:07.824247,441249,1499566030,629301605,,0.66610095053,-0.183588909315,0.170929578537,0.816657499712,0.541173537879,-0.183741362054,0.0802548561348,0.0141571398005,0.00410752754442,-0.00972740326104,0.0155606220345,-0.0219976524153,0.0093865382671,-0.536967635155,1.24625122547,-0.368015497923,-0.40787962079,-0.451750040054,0.0717149749398
2017/07/09/10:07:07.834611,441250,1499566030,639311352,,0.665749428973,-0.184186450332,0.171456568266,0.816779745043,0.540806222502,-0.184215857774,0.0803989772053,0.0404892268877,0.0384531665527,-0.0052102602806,0.0402659850938,-0.0439731744406,0.0616392562436,-0.662532091141,0.732325553894,-0.199125558138,-0.248367756605,-0.454254537821,0.0531547218561
2017/07/09/10:07:07.844261,441251,1499566030,649302429,,0.666837437205,-0.18417132499,0.17161517135,0.816475285587,0.541323510503,-0.18366517147,0.081265428016,0.0387932727733,0.0368554678287,-0.00962255414425,0.0363226977228,-0.0286765007558,0.0725721793013,0.344198763371,0.0944435596466,-0.0723553150892,0.0181553736329,-0.241135507822,-0.0520818047225
2017/07/09/10:07:07.854704,441252,1499566030,659498637,,0.666752869732,-0.183231269771,0.171496226373,0.816516869317,0.54146835937,-0.183323263537,0.0806523339285,0.00764071618979,0.00202978982895,-0.0100790391151,0.000750970116493,-0.00637498370615,-0.00443463662419,0.189610391855,0.32404255867,-0.612085103989,-0.0865965560079,-0.161837205291,-0.0746831595898
2017/07/09/10:07:07.864598,441253,1499566030,669496201,,0.666781047702,-0.18431021622,0.171816895894,0.816848195096,0.540830037672,-0.183420390356,0.0813563575935,-0.00277769550824,-0.011002645171,0.000860424653748,0.00718169859143,-0.0148944808046,-0.0286775588081,-0.172809809446,0.505405247211,-0.440299093723,-0.255720317364,-0.277131199837,-0.0161390006542
2017/07/09/10:07:07.874598,441254,1499566030,679502718,,0.666520718958,-0.184166941199,0.17125374849,0.816552602038,0.541168862735,-0.183854114591,0.0810911503123,0.0224018459776,0.00927582682635,-0.00540941076744,0.00561150134471,-0.0241896174757,0.0398738385107,-1.21948158741,0.907235920429,-0.752735137939,-0.424046844244,-0.608643293381,0.16035181284
2017/07/09/10:07:07.884700,441255,1499566030,689499128,,0.66645951355,-0.184269560824,0.170923105865,0.816661869921,0.541086988503,-0.183685269176,0.0809196081169,0.0156571072381,0.00902105871747,-0.00915371796155,1.87172673517e-05,-0.0187042611144,0.0210902784938,-1.28416800499,0.791588842869,-0.805680036545,-0.410556763411,-0.647357821465,0.187422931194
2017/07/09/10:07:07.894539,441256,1499566030,699494318,,0.66643073739,-0.183837676541,0.171198154518,0.816710157046,0.541074837901,-0.183670388915,0.0805464301168,0.00245636831373,0.00752752146596,-0.0167390779786,0.0116376082956,0.00173609092116,0.00453774815588,-1.53183197975,0.738034725189,-0.627492010593,-0.212943166494,-0.753225922585,0.208831846714
2017/07/09/10:07:07.904865,441257,1499566030,709495938,,0.667146824248,-0.18365874698,0.171211325521,0.816320742505,0.541646172891,-0.183456564287,0.0811391259984,0.00440588311093,0.0139096662497,-0.0205633551069,0.0303046233396,0.0212235064836,0.0498229185276,-1.52499806881,1.22074604034,-0.155891686678,-0.322749614716,-0.796181797981,0.238727375865
2017/07/09/10:07:07.914616,441258,1499566030,719495420,,0.666595520061,-0.182830442642,0.169909443509,0.816326844456,0.541811668889,-0.183552436709,0.079743974413,0.00155457471999,0.0232096128516,-0.0309836840302,0.0374683847121,0.0350656095418,0.0304325455007,-1.1692262888,0.790677905083,-0.69916498661,-0.286565393209,-0.568188548088,0.118800088763
2017/07/09/10:07:07.924983,441259,1499566030,729499520,,0.666303384,-0.183249475507,0.169786208776,0.81627157999,0.541706832229,-0.184065342499,0.0798396224248,0.00426976746551,0.0337113480652,-0.0207766702572,0.0469233579627,0.0243001707486,0.0243998897647,-0.984448730946,0.669623970985,-0.547576129436,-0.225013941526,-0.559028089046,0.109130114317
2017/07/09/10:07:07.934668,441260,1499566030,739496850,,0.666962175795,-0.182476193267,0.17029065827,0.815944200334,0.542437115263,-0.183380131293,0.079804544816,-0.0100692152481,0.00294740896438,-0.015626922807,0.0260140002547,0.0199871060796,-0.00855485735604,-0.832784175873,0.790645360947,-0.2586171031,-0.282297372818,-0.492327302694,0.0675714612007
2017/07/09/10:07:07.944810,441261,1499566030,749497322,,0.666820299821,-0.182852404594,0.169784325264,0.816323983388,0.541933589201,-0.18317557178,0.0798113334324,0.00972037038752,0.0228522502822,-0.00229553742102,0.0375355632158,-0.00670823712587,0.0231499366317,-0.662773132324,0.288708627224,-0.112132526934,-0.0497220158577,-0.512081384659,0.0775693207979
2017/07/09/10:07:07.954788,441262,1499566030,759502379,,0.666768634565,-0.18270336849,0.169596439777,0.816156089599,0.542046905843,-0.183633646736,0.0797061670315,0.000578354276696,0.0170281873903,-0.0259608453885,0.0116862855457,0.0334696249402,0.0152508450278,-0.0841666683555,-0.110806807876,-0.0235373228788,-0.00262367725372,-0.273492991924,-0.0768195986748
2017/07/09/10:07:07.964690,441263,1499566030,769496161,,0.666344596985,-0.18261344517,0.169199792636,0.816283106599,0.541897676725,-0.18378262737,0.0790742923927,0.0107800432709,0.0220783131775,-0.0187495492032,0.0130546102401,0.0288510617134,0.0442795383388,-0.398310273886,0.344917148352,-0.407723486423,-0.0909126698971,-0.34074306488,0.0189331099391
2017/07/09/10:07:07.974750,441264,1499566030,779523857,,0.667043838079,-0.182321841831,0.169265704062,0.816101198202,0.542352030396,-0.183075150521,0.0794770324019,0.0138827022729,0.021163252784,-0.009734424808,-0.00293701721109,0.0205130236671,0.0479007943694,-0.513738512993,0.353193700314,-0.483757197857,-0.0559801757336,-0.451560795307,0.0272054076195
