time,.header.seq,.header.stamp.secs,.header.stamp.nsecs,.header.frame_id,.pose.position.x,.pose.position.y,.pose.position.z,.pose.orientation.x,.pose.orientation.y,.pose.orientation.z,.pose.orientation.w,.twist.linear.x,.twist.linear.y,.twist.linear.z,.twist.angular.x,.twist.angular.y,.twist.angular.z,.wrench.force.x,.wrench.force.y,.wrench.force.z,.wrench.torque.x,.wrench.torque.y,.wrench.torque.z
2017/07/09/10:02:30.005368,413467,1499565752,809304123,,0.797832377593,0.341400505395,0.162812561686,0.650795835839,0.756010733879,0.051457003342,0.0475891492096,0.0494739288218,-0.238283230131,-0.0250658903656,-0.0463648202417,-0.0570495878607,-0.317213418183,5.26364517212,1.14074552059,-0.684467673302,-0.483134061098,2.09648275375,0.0739880502224
2017/07/09/10:02:30.015135,413468,1499565752,819304007,,0.798569791981,0.338990462635,0.162951754757,0.652037679597,0.754890765697,0.0516604014617,0.0481456038694,0.042412336615,-0.213088984944,-0.0160475345676,-0.022812415206,-0.0474941357531,-0.294563875871,5.12235689163,1.0757791996,-0.59618896246,-0.468083977699,2.03760099411,0.0406354963779
2017/07/09/10:02:30.025463,413469,1499565752,829309416,,0.79920071056,0.337262274651,0.16297584628,0.652979612198,0.754042338115,0.051671219373,0.0486606974058,0.0594937897912,-0.226916375259,-0.0118487172696,-0.0129057274504,-0.0790957788797,-0.316720316398,4.75198984146,0.965330302715,-0.453845113516,-0.33340805769,1.89716589451,0.0916496217251
2017/07/09/10:02:30.035163,413470,1499565752,839310577,,0.799083009806,0.334692333086,0.162240646828,0.654203764541,0.753021068171,0.0512715840605,0.0484554436404,0.0479439957106,-0.241941775407,-0.0152508643888,-0.0220885962242,-0.0476332328301,-0.328554011195,4.43837356567,1.00446939468,-0.420251250267,-0.475683391094,1.79034519196,0.0438633784652
2017/07/09/10:02:30.045400,413471,1499565752,849320257,,0.799256115478,0.333297081483,0.162043915705,0.655341688725,0.752032576472,0.0515728414053,0.048109427083,0.0443449302055,-0.214748137474,-0.00948348478701,0.0070280080552,-0.0516373339945,-0.286607942298,3.83139204979,0.829309344292,-0.100382305682,-0.379992991686,1.63369858265,0.039826117456
2017/07/09/10:02:30.055195,413472,1499565752,859315801,,0.799866495705,0.330829684362,0.162199816515,0.656375522156,0.751092273447,0.0515003752338,0.0487778846862,0.0463202642902,-0.243194023029,-0.0168175288437,-0.00106486733422,-0.037722913101,-0.325669024447,3.47390651703,0.51548409462,-0.162834212184,-0.257344543934,1.49551939964,0.115210182965
2017/07/09/10:02:30.065465,413473,1499565752,869304587,,0.80035837934,0.327662340337,0.162270196474,0.657693952907,0.749923522567,0.0511670170224,0.0493488700874,0.0416619322478,-0.239713506261,-0.0110765482407,-0.0134097245764,-0.0416366642326,-0.33664594163,3.05487465858,0.55120664835,-0.00860073044896,-0.30396515131,1.3505743742,0.0646261051297
2017/07/09/10:02:30.075901,413474,1499565752,879310775,,0.801325377656,0.326100875297,0.162664267066,0.658666336417,0.74895864777,0.0520914693283,0.0500607633234,0.0508022645421,-0.247864098618,0.00116997460342,-0.0124418524905,-0.0687286917792,-0.345284919197,2.33307290077,0.267352640629,0.182387977839,-0.115636721253,1.12621331215,0.121698543429
2017/07/09/10:02:30.085455,413475,1499565752,889307992,,0.801300243103,0.323453750416,0.162235423932,0.660016106187,0.747804773777,0.051570599681,0.050072279151,0.0512559853746,-0.241939666854,-0.0027931085455,-0.00199199205181,-0.0677418312254,-0.333845901303,2.30745816231,0.300060153008,0.281415492296,-0.0977882668376,1.11964488029,0.141374871135
2017/07/09/10:02:30.095291,413476,1499565752,899336858,,0.801436660561,0.321167498521,0.161662169937,0.661133006667,0.746843222663,0.0512595143977,0.0500081037484,0.0354996068313,-0.253254918921,-0.0177581861366,-0.0244598205993,-0.0335637787824,-0.32940904481,2.07767558098,0.308694779873,0.489406108856,-0.0645402446389,1.08861792088,0.163909852505
2017/07/09/10:02:30.105338,413477,1499565752,909311487,,0.801753199032,0.318665955051,0.161588947184,0.662268788412,0.745815302996,0.0514195528031,0.0501559099441,0.0229538708909,-0.254581775131,-0.01362302613,-0.00912608343368,-0.0057124878224,-0.332211017957,1.90452885628,0.403668403625,0.601831197739,-0.217335700989,1.02956366539,0.10422077775
2017/07/09/10:02:30.115463,413478,1499565752,919311996,,0.801918506952,0.316753138885,0.1621060468,0.66347765303,0.744722017656,0.0516232533159,0.0502151378044,0.0276602232129,-0.240445984008,-0.00293604632789,0.00762121112651,-0.0157588099988,-0.340667562651,1.98871767521,0.371143579483,0.531899273396,-0.265339642763,1.04866492748,0.0445195510983
2017/07/09/10:02:30.125151,413479,1499565752,929304991,,0.802762680908,0.313726315183,0.162289252541,0.665040636655,0.743275194891,0.051819587986,0.0507707254109,0.0290537659722,-0.246039705132,-0.00114136011376,0.019134070357,-0.0191323868992,-0.350330260239,1.74269127846,0.368521094322,0.584635436535,-0.275396555662,0.946408987045,0.0571278333664
2017/07/09/10:02:30.135295,413480,1499565752,939310290,,0.802229289727,0.310925623007,0.161327835307,0.66643475405,0.742115949524,0.0510828866893,0.0501913811743,0.0212040037201,-0.254631206046,-0.0152171718181,0.020090497778,0.00942919540725,-0.345846520796,1.68159043789,0.432260274887,0.523531913757,-0.369996607304,0.90323805809,0.0109865367413
2017/07/09/10:02:30.145023,413481,1499565752,949307375,,0.802757992749,0.308379536306,0.161961626883,0.667820986852,0.740815641577,0.0512787801713,0.0507720535321,0.00845772834425,-0.258567186713,-0.0203108623427,0.0146217778148,0.0290159182349,-0.37405057188,1.21964764595,0.264653980732,0.305138587952,-0.1829456985,0.66986733675,0.100747793913
2017/07/09/10:02:30.155343,413482,1499565752,959316557,,0.802622054158,0.306620112225,0.160879542834,0.668758017689,0.74002397164,0.0511354039315,0.0501239028735,0.0266828199017,-0.269606225143,0.00423185205677,-0.00565205668999,-0.0207691600204,-0.365489465091,0.933491587639,0.293190598488,0.401002287865,-0.217670127749,0.519757807255,0.0741824135184
2017/07/09/10:02:30.165276,413483,1499565752,969312656,,0.803263582689,0.303435542279,0.161719606604,0.669847842266,0.7389758236,0.0512381004329,0.050924035689,0.0366447678908,-0.276051881351,0.0112074244715,-0.00213088105525,-0.0541345699054,-0.371346142697,1.35258185863,0.147174805403,0.48004296422,-0.161359369755,0.717417180538,0.0669942051172
2017/07/09/10:02:30.175255,413484,1499565752,979311412,,0.804169305705,0.301288255817,0.162080508271,0.671435583468,0.737425536176,0.0522622537127,0.051444073377,0.0393895684693,-0.274097093919,0.000797330789808,0.011553807462,-0.0660654584893,-0.374010119586,1.60154724121,0.2870413661,0.412940144539,-0.204911887646,0.81163674593,0.0793289840221
2017/07/09/10:02:30.185531,413485,1499565752,989309393,,0.803881934581,0.29800804455,0.161861321127,0.673057132937,0.736001235787,0.0515232599555,0.0513967937425,0.0291227469858,-0.258815261513,0.00141266529917,0.00932921020941,-0.0448723050676,-0.355832685603,1.51837897301,0.342736244202,0.394515931606,-0.209304839373,0.761635363102,0.0641905814409
2017/07/09/10:02:30.195325,413486,1499565752,999310951,,0.804330641052,0.295246857241,0.161566584276,0.674344955241,0.734801882982,0.051651871685,0.0515476309693,0.0189261333467,-0.288666045314,-4.29174775578e-05,0.0122605726709,-0.017374471879,-0.40700208479,1.37584781647,0.386394739151,0.268409758806,-0.356127172709,0.68770211935,0.0112385302782
2017/07/09/10:02:30.205172,413487,1499565753,9304037,,0.804662628151,0.293253193431,0.161878542388,0.675196597107,0.733979238819,0.0519220545376,0.0518472033122,0.028847419812,-0.272965297366,0.00718652307672,0.0132966665788,-0.0448302092959,-0.3780615148,0.908883094788,-0.776595830917,0.477499812841,0.0237455144525,0.520806789398,0.120287306607
2017/07/09/10:02:30.215327,413488,1499565753,19304781,,0.805002333213,0.289959232007,0.161615674804,0.677095313265,0.732212409125,0.0518474770141,0.0521417664078,0.0512511034378,-0.274303436758,0.0182517278111,0.0201259846582,-0.0959604179678,-0.371540617848,0.411261409521,-0.840247750282,0.37089908123,-0.036330640316,0.348574012518,0.124593682587
2017/07/09/10:02:30.225330,413489,1499565753,29302704,,0.805642079419,0.287507234823,0.16248503754,0.677845602154,0.731420017814,0.0526281644381,0.052729246996,0.0479091693218,-0.306274776886,0.0229154573007,0.00985710484275,-0.0966172358745,-0.431519844835,0.267866373062,-0.532451987267,0.500236451626,-0.0963556319475,0.336243391037,0.104879744351
2017/07/09/10:02:30.235128,413490,1499565753,39311172,,0.806551621506,0.28375780829,0.162696913008,0.68001894667,0.729323701617,0.0528607544358,0.0535435436888,0.0318220502577,-0.304427006771,0.0118669422067,-0.000579438289726,-0.0622320077147,-0.411528369632,-0.043126784265,-0.587002635002,0.455717325211,-0.13680768013,0.215416014194,0.105068638921
2017/07/09/10:02:30.245014,413491,1499565753,49304948,,0.805961417968,0.281989964188,0.162522421917,0.681100579008,0.728371560987,0.0527264768633,0.0528846769696,0.0335974781223,-0.298817650069,0.0169076524898,-0.0125803792631,-0.0632135675101,-0.388339892952,-0.457876980305,-0.24911481142,0.0339661128819,-0.242875397205,0.069764405489,0.052340619266
2017/07/09/10:02:30.255200,413492,1499565753,59307181,,0.806318603207,0.279015321034,0.162493864636,0.682355393178,0.727171412352,0.0527824450544,0.0531682983904,0.0371534603095,-0.299426626546,0.0266258299379,0.0178348587066,-0.080191939172,-0.4131523554,-0.701786100864,-0.285883784294,0.0962536782026,-0.188675552607,-0.0219858791679,0.051226966083
2017/07/09/10:02:30.265321,413493,1499565753,69311190,,0.806417665918,0.275542070985,0.16245686476,0.683882627147,0.725714690272,0.052589412918,0.0536385519765,0.0347800829488,-0.315270256324,0.0139057928547,-0.00668833762181,-0.0724507142377,-0.406322456814,-0.369878560305,-0.444434672594,-0.262454628944,-0.180932223797,0.0654538422823,0.0689958631992
2017/07/09/10:02:30.275346,413494,1499565753,79307698,,0.807471821856,0.272856766755,0.163353195722,0.685059939713,0.724462543501,0.0533243962656,0.0548033833618,0.0251294652124,-0.308794706362,0.000465838461348,-0.0115343708255,-0.059126084496,-0.399828461269,-0.200945690274,-0.439874112606,-0.378110677004,-0.145981550217,0.0856170132756,0.0747080370784
2017/07/09/10:02:30.285143,413495,1499565753,89304983,,0.807578457129,0.270626975652,0.163243381056,0.686364972188,0.723210209099,0.0536198293472,0.0547268883478,0.0348845202789,-0.304193368563,0.0269750671295,0.00573084227895,-0.102303885698,-0.429544158939,-0.388247162104,-0.585867762566,-0.247803151608,0.0147696360946,0.00677054747939,0.144058048725
2017/07/09/10:02:30.295285,413496,1499565753,99310410,,0.808000147192,0.26702757925,0.1639194442,0.688108517028,0.721488391581,0.053740773647,0.0554355378367,0.0448177220609,-0.298331829995,0.0398728603042,0.0197625857379,-0.128376248299,-0.417255699947,0.359038800001,-0.636964857578,-0.136726081371,-0.0278828516603,0.266216516495,0.116023778915
2017/07/09/10:02:30.305578,413497,1499565753,109302704,,0.808420475035,0.264254565583,0.163959443692,0.689659240755,0.719951495666,0.0542138609375,0.0556851220039,0.0331316767461,-0.312134811469,0.0154668576313,0.000902569832192,-0.0937639394275,-0.418342200024,0.458214104176,-0.791814267635,-0.483892738819,-0.0438340455294,0.280333727598,0.100816309452
2017/07/09/10:02:30.315295,413498,1499565753,119310362,,0.808683289367,0.260874786405,0.163800777568,0.691099786293,0.718540047712,0.054159696982,0.0561071514409,0.0481589791964,-0.305153471981,0.0264228439473,0.0096370981757,-0.127714228086,-0.394464227802,0.265501648188,-1.05090713501,-0.687053322792,0.0634845346212,0.192032396793,0.130165666342
2017/07/09/10:02:30.325567,413499,1499565753,129311508,,0.808716229556,0.258442060323,0.163956815205,0.692099462546,0.717556017593,0.0543615097475,0.0561829317252,0.0340153134199,-0.3223034144,0.0156049365008,0.0186029594336,-0.0941372659875,-0.457642007611,0.11722394824,-0.875546097755,-0.611257314682,0.0680859610438,0.143703699112,0.128635242581
2017/07/09/10:02:30.335277,413500,1499565753,139310681,,0.808917874085,0.254807189727,0.164146180855,0.693911806318,0.7157686798,0.0542184249253,0.0567623508082,0.0384955512519,-0.296801805827,0.0297353072328,0.00835932702726,-0.114883835849,-0.409670491477,0.342890143394,0.411910206079,-0.852976024151,-0.737990438938,0.216051459312,-0.0866758227348
2017/07/09/10:02:30.345272,413501,1499565753,149306654,,0.810074320384,0.252754405559,0.165236109327,0.695157949073,0.714388544077,0.055317740924,0.0578306274503,0.031764643901,-0.300296990912,0.0187741601646,-0.0206286996628,-0.0896519988308,-0.410981196257,1.40428042412,1.94463944435,-1.01355290413,-1.49967050552,0.550779521465,-0.377096444368
2017/07/09/10:02:30.355312,413502,1499565753,159305633,,0.809542563058,0.24921539309,0.16403206485,0.6965102559,0.713149952123,0.0544416957697,0.0576776471006,0.0289184135196,-0.287099684915,0.0106380649675,-0.015620954959,-0.0839242954315,-0.379044271304,0.493935137987,1.39284586906,-1.17620289326,-1.25476384163,0.265168011189,-0.253187179565
2017/07/09/10:02:30.365355,413503,1499565753,169308714,,0.810232867364,0.246477409454,0.164655209123,0.697779263556,0.711804726697,0.0551093620333,0.0583188530332,0.0198097588933,-0.308742562964,0.00252613714757,-0.0150170134944,-0.0675595573521,-0.412995076118,0.161689952016,0.981974482536,-0.62016171217,-0.870808601379,0.181314110756,-0.128421410918
2017/07/09/10:02:30.375341,413504,1499565753,179316590,,0.810659057064,0.243763401288,0.165220670886,0.699044635961,0.710473360305,0.0554052999318,0.0591139067472,0.0129909131429,-0.308508183347,0.00763220514477,-0.0259401407561,-0.0583618099443,-0.383774323139,0.0395998619497,-0.061774328351,-0.309599429369,-0.32762542367,0.160004019737,0.0185413360596
2017/07/09/10:02:30.385256,413505,1499565753,189317998,,0.810475079246,0.241013124425,0.165240820399,0.700127279969,0.709422409679,0.0551225499126,0.0591873380019,0.0152154763396,-0.319841979133,0.0166058617717,-0.0519688314295,-0.068289581547,-0.377085374867,-0.803302407265,-0.799217939377,-0.457470238209,0.286723136902,-0.0884213298559,0.21388527751
2017/07/09/10:02:30.395244,413506,1499565753,199303713,,0.810236758166,0.23782527714,0.164794920504,0.70173355729,0.707861422676,0.0548380289111,0.0591186218216,0.00311112391369,-0.294545765925,0.0138020122239,0.00548553116261,-0.0393078378824,-0.395663167939,-1.17433750629,-1.04354679585,-0.452458053827,0.264288902283,-0.212729394436,0.161606863141
2017/07/09/10:02:30.405203,413507,1499565753,209304743,,0.810372144572,0.235335623386,0.165093961383,0.703041780531,0.70654292771,0.054979894908,0.0592161910803,-0.0100262710991,-0.292363343894,0.00344086572284,0.016932204646,0.00174983826143,-0.399699921591,-1.44074177742,-0.712670564651,-0.446406155825,0.107383623719,-0.343838691711,0.153928458691
2017/07/09/10:02:30.415214,413508,1499565753,219304052,,0.810577874827,0.233013194752,0.165562680671,0.704250803369,0.705267177756,0.0554413469907,0.0596260931015,-0.00498863898825,-0.273192277834,0.00561420639135,0.0330256148895,-0.0110796338428,-0.396580284612,-1.62586212158,-0.645761191845,-0.356981307268,-0.0382990539074,-0.391610205173,0.106463849545
2017/07/09/10:02:30.425110,413509,1499565753,229313256,,0.810186032641,0.230708808076,0.165169324547,0.705490398459,0.704096805344,0.0552072300237,0.0590182017656,-0.00144498341703,-0.260920415591,0.000652113873665,0.0609654418452,-0.0161303838549,-0.408387799967,-1.53193640709,-0.403790324926,0.00170084834099,-0.192913413048,-0.323413670063,0.0894932001829
2017/07/09/10:02:30.435127,413510,1499565753,239308311,,0.809797484054,0.227516226466,0.16463978982,0.706806615798,0.702809976096,0.0545373809325,0.0592302240875,-0.00901846983703,-0.264641938833,-0.00805352980293,0.0411525878721,0.00195555828604,-0.378998125187,-1.64377176762,-0.431290626526,-0.143283307552,-0.328894495964,-0.36687618494,0.0121362060308
2017/07/09/10:02:30.445075,413511,1499565753,249305653,,0.810299510959,0.224552698124,0.16505843574,0.708344008827,0.701197334891,0.0551711317702,0.0593903099775,-0.0105774296121,-0.276113301654,-0.0102692418027,0.00789821453534,-0.000919417416952,-0.370080317907,-1.53086948395,-0.988407254219,0.553286075592,-0.13092122972,-0.326561540365,0.0818167477846
2017/07/09/10:02:30.455492,413512,1499565753,259307231,,0.80957651262,0.222174560793,0.164886796156,0.709525405966,0.700074349206,0.0545442750384,0.0591145154111,-0.0169369690509,-0.279152685114,-0.00551021451801,-0.0178789515645,0.0227369644659,-0.345755474707,-1.56546008587,-0.862780213356,0.523394703865,-0.141463652253,-0.368773072958,0.0416770577431
2017/07/09/10:02:30.465416,413513,1499565753,269304545,,0.809496108485,0.219339147377,0.164970386998,0.710609835712,0.698973062515,0.0540178685392,0.0596019223309,-0.0333037583144,-0.25937784275,-0.0152897418839,-0.00501393608138,0.0677426765358,-0.34287518516,-1.79817974567,-0.534476459026,0.797696888447,-0.19608694315,-0.555100142956,0.0456564575434
2017/07/09/10:02:30.475414,413514,1499565753,279303989,,0.80939174217,0.218004340859,0.164570658079,0.711596324713,0.698009207088,0.0541034809733,0.0590476995473,-0.00906634818632,-0.235302922543,-0.00342311995952,0.009174843248,0.00915626882406,-0.313465239261,-2.3952395916,-0.402294039726,0.750671267509,-0.244367152452,-0.799619495869,0.0535292029381
2017/07/09/10:02:30.485412,413515,1499565753,289302916,,0.809803091055,0.215453455747,0.164908159474,0.712657071418,0.696833161789,0.0543264266688,0.0599339849727,-0.00658677098095,-0.250338103807,-0.0101903158642,0.0145509673181,0.00954666556665,-0.361201622259,-2.37639760971,-0.00806671380997,0.91439473629,-0.442272156477,-0.750907480717,-0.0535863116384
2017/07/09/10:02:30.495765,413516,1499565753,299321648,,0.809570294869,0.212501355722,0.16438247622,0.714195204508,0.695307169,0.0539706621354,0.0596684022199,0.00296003398081,-0.261695981148,-0.0044820110634,0.0061904706792,-0.020223858998,-0.363048630762,-3.09743666649,-0.406682312489,1.04222595692,-0.280689746141,-0.969125986099,0.0152566283941
2017/07/09/10:02:30.505157,413517,1499565753,309303740,,0.809619225645,0.210726366209,0.16451011007,0.714800101524,0.694655185811,0.0543011711762,0.0597190965822,0.00664800493407,-0.251924857049,-0.00181707580046,0.00222423234932,-0.0351518666134,-0.344983392226,-2.88641023636,-0.16956743598,1.280990839,-0.360928535461,-0.838594734669,0.00343531370163
2017/07/09/10:02:30.515139,413518,1499565753,319335856,,0.809952499136,0.208024078705,0.164378611977,0.715981607101,0.693389801184,0.0544469132496,0.060136973182,0.0125933077606,-0.246211291692,0.00472664677853,-0.0141391114303,-0.0578717929775,-0.312251392003,-4.13333368301,-0.578922212124,1.35816955566,-0.219614744186,-1.25120782852,0.0200122892857
2017/07/09/10:02:30.525130,413519,1499565753,329304606,,0.810382380232,0.205127637303,0.164955630899,0.717191046216,0.69204696212,0.0545366719308,0.0611044749795,0.0225198196754,-0.265614505402,0.016847927451,-0.0267514596518,-0.079003692151,-0.343207850867,-4.42434692383,-0.891728997231,1.63458585739,0.134314998984,-1.33227145672,0.15244987607
2017/07/09/10:02:30.535246,413520,1499565753,339311044,,0.810309988854,0.203415773006,0.16471400315,0.717893136463,0.691343139068,0.0542944136731,0.061042815522,0.0209382207497,-0.249529976372,0.000454277101989,-0.0180297965385,-0.0640641632885,-0.324431278281,-5.25338077545,-0.832221925259,1.6845625639,0.126829490066,-1.61708331108,0.141328722239
2017/07/09/10:02:30.545498,413521,1499565753,349310603,,0.810494386639,0.200848594019,0.16462521844,0.71922895594,0.689935557418,0.0542269023333,0.0613031696741,0.0183369241779,-0.250979022278,0.00162675438723,-0.0378654380285,-0.0560327524197,-0.31343971775,-4.58657026291,-0.874603271484,1.70755493641,0.125085651875,-1.37230920792,0.140073060989
2017/07/09/10:02:30.555306,413522,1499565753,359310313,,0.810843869728,0.197774559656,0.164764986896,0.720321982711,0.688746188699,0.0543088424263,0.0617695589339,0.0114998138453,-0.259979007645,-0.00118213721667,-0.0383617063807,-0.0260070648789,-0.336644106664,-4.73448467255,-0.844003915787,1.7811948061,0.229590266943,-1.51811146736,0.193859562278
2017/07/09/10:02:30.565340,413523,1499565753,369302437,,0.810676668573,0.196354965326,0.164617260449,0.721125447554,0.687929711351,0.0540641210553,0.0617079569044,0.0194247252401,-0.242850391934,0.00156033423798,-0.00862017220689,-0.0403479375995,-0.347483246059,-4.87511634827,0.220127388835,1.42595791817,-0.030670620501,-1.60090911388,0.151084452868
2017/07/09/10:02:30.575381,413524,1499565753,379310356,,0.81120224192,0.193833512991,0.164876517986,0.722554476434,0.686365855136,0.0544703031497,0.0620477845193,0.0151059441855,-0.221476068996,0.000658191126845,-0.0161533709046,-0.0240834734622,-0.285932203099,-4.68585920334,-0.306927770376,1.65328085423,0.117408707738,-1.57776594162,0.182885810733
2017/07/09/10:02:30.585324,413525,1499565753,389311862,,0.811078905289,0.191854254819,0.164537489556,0.723293699924,0.685603383823,0.0541030178774,0.0621859083421,0.0255087902717,-0.259663420878,-0.01048304149,-0.0271460170157,-0.0403867770104,-0.355373083231,-5.34099721909,-0.070894703269,1.66243100166,0.133075252175,-1.81286668777,0.165770858526
2017/07/09/10:02:30.595357,413526,1499565753,399310734,,0.811601145428,0.189745448868,0.164677811763,0.724318792158,0.684477422943,0.0542915307594,0.0624929955743,0.038414545664,-0.215004715507,-0.00634228583936,-0.0152101191524,-0.0630137673699,-0.27978451154,-5.33245563507,-0.141594916582,2.11104536057,0.255879491568,-1.81928575039,0.233653753996
2017/07/09/10:02:30.604988,413527,1499565753,409313882,,0.811784484207,0.187490004011,0.16413879221,0.725068995799,0.683678881578,0.054023138555,0.0627665413678,0.0360899115001,-0.245373275827,0.00157714079036,-0.0218620133123,-0.0633733197721,-0.313302601502,-5.61469602585,-0.226348638535,1.69075882435,0.243767023087,-1.92287266254,0.201148733497
2017/07/09/10:02:30.615202,413528,1499565753,419303710,,0.812376916189,0.185486334204,0.164466733946,0.726062977189,0.682548943318,0.0544051198518,0.0632422016184,0.0305473617534,-0.230077347452,-0.0123999163568,-0.00767903275302,-0.0406813468639,-0.293347314133,-5.58315944672,-0.253362029791,1.96494543552,0.30379319191,-1.92111718655,0.235518664122
2017/07/09/10:02:30.625283,413529,1499565753,429311894,,0.81241755785,0.182903124204,0.164153635413,0.727030936369,0.681519807278,0.0542919881912,0.0633178479436,0.0355725466464,-0.226999496079,-0.00858428313383,-0.0172989721845,-0.0477058055827,-0.29724576876,-5.17450380325,-0.400119423866,1.81045675278,0.234484791756,-1.72264206409,0.197940602899
2017/07/09/10:02:30.635261,413530,1499565753,439305001,,0.812709950819,0.180870785336,0.163645410631,0.728182037843,0.680291961862,0.0543112880819,0.0632775661249,0.0244546469813,-0.214024966015,-0.0306113081552,0.0269557484966,-0.0129974878841,-0.297598783497,-5.38597393036,-0.12784537673,1.44690072536,0.107783325016,-1.87979507446,0.167038917542
2017/07/09/10:02:30.645509,413531,1499565753,449303673,,0.81338788605,0.177999957098,0.163749768012,0.729457160426,0.67885180235,0.0546222776354,0.0637878384592,0.036386896575,-0.223012909985,-0.0142355140667,0.0206673741903,-0.0459540260552,-0.312487473631,-5.44545841217,-0.868490457535,1.40594112873,0.479377478361,-1.9858622551,0.319516807795
2017/07/09/10:02:30.655314,413532,1499565753,459311160,,0.814147472848,0.176831033141,0.163978377258,0.729951768611,0.678244431256,0.0550601700807,0.0642128074612,0.0514398929925,-0.242032754748,-0.00618903462801,-0.00528153139319,-0.0795958919764,-0.334524034676,-5.34389019012,-0.187388926744,1.14626586437,0.253724217415,-2.00525832176,0.230570703745
2017/07/09/10:02:30.665362,413533,1499565753,469311082,,0.814281483951,0.174180877684,0.163584913468,0.731177954298,0.676942710803,0.0546681893407,0.0643331525258,0.0400647363668,-0.229601532883,-0.0302663073422,-0.00599610919356,-0.0315132243756,-0.304553065059,-5.38654327393,-0.251856744289,1.04920947552,0.273823440075,-2.03502082825,0.278721094131
2017/07/09/10:02:30.675416,413534,1499565753,479310756,,0.814430629772,0.171671130878,0.162659981341,0.731843265475,0.676239549722,0.0539961520027,0.0647296048139,0.0243355819646,-0.22884609894,-0.0388271243653,-0.0283656894295,0.0120929407556,-0.270067367506,-5.21697902679,-0.162668764591,0.904122650623,0.216410726309,-2.01802444458,0.230480015278
2017/07/09/10:02:30.685438,413535,1499565753,489306010,,0.814859549981,0.169645808485,0.162348897771,0.733139275449,0.67483772926,0.0542401796902,0.0644891065905,0.0246837519967,-0.224065935932,-0.0388549733764,-0.0350764698831,0.0140717280026,-0.266073618935,-5.71369791031,-0.699280261993,0.683911919594,0.417066037655,-2.26212334633,0.289761245251
2017/07/09/10:02:30.695448,413536,1499565753,499308053,,0.815231188337,0.168182415998,0.162307480114,0.733484968158,0.67444836118,0.0541367843362,0.064717989537,0.028359196199,-0.245868943251,-0.052400327745,-0.0276034999787,0.01172014034,-0.305523873712,-4.6586689949,-0.200712561607,1.28505766392,0.339593201876,-1.92880034447,0.237291187048
2017/07/09/10:02:30.705354,413537,1499565753,509304448,,0.815130486115,0.165869976151,0.161285387426,0.734696026688,0.673199175081,0.0538948099886,0.0641869807318,0.0330012581566,-0.234290780621,-0.0627643939812,0.00471124352256,0.0183560931516,-0.30756448644,-5.02326154709,0.0211759060621,0.754645526409,0.23418776691,-2.10546422005,0.243142485619
2017/07/09/10:02:30.715466,413538,1499565753,519306277,,0.816231275756,0.163625112342,0.161347982345,0.735597719996,0.672114021118,0.0543121033462,0.0648762852093,0.0493252319907,-0.207198297227,-0.0507585050573,0.0227456647526,-0.011944466148,-0.264150684675,-5.13781785965,-0.214951977134,1.00577151775,0.193925574422,-2.17951273918,0.24842916429
2017/07/09/10:02:30.725374,413539,1499565753,529305034,,0.816983155064,0.161080791668,0.160826463958,0.736528105915,0.671040433901,0.0542860001401,0.065453154663,0.0547550390644,-0.224548325711,-0.0481433950279,-0.0284650235244,-0.0333576894966,-0.25794498006,-5.29006385803,-0.103637330234,1.11832690239,-0.0521814748645,-2.27899551392,0.129555776715
2017/07/09/10:02:30.735215,413540,1499565753,539311352,,0.817506083092,0.158612325254,0.160424247961,0.737496947903,0.669963925969,0.0539614201501,0.0658388553129,0.0669066643886,-0.245897377025,-0.0422293223807,-0.0393822738815,-0.0611365340888,-0.298339488548,-6.03032016754,-0.532120943069,0.885467708111,0.119316533208,-2.57569479942,0.192997127771
2017/07/09/10:02:30.745309,413541,1499565753,549304750,,0.818274702172,0.157063662959,0.159666692109,0.738128656026,0.669238159812,0.0540944966505,0.0660314927576,0.070654387967,-0.234961449285,-0.0541944513876,-0.00480773285953,-0.0586948460452,-0.293731523371,-4.95396757126,0.402994662523,0.434380531311,-0.0313759744167,-2.20110082626,0.163454338908
2017/07/09/10:02:30.755291,413542,1499565753,559308887,,0.818550274141,0.154811123429,0.158534223813,0.739048548575,0.668255790962,0.0539127676478,0.0658396095098,0.0770427143353,-0.225549108608,-0.0633307635164,-0.0100631113519,-0.0554219234754,-0.282448356978,-4.15588283539,-0.447129786015,-0.36578887701,0.181277692318,-1.88822960854,0.222806349397
2017/07/09/10:02:30.765544,413543,1499565753,569304430,,0.818979696104,0.152210912964,0.15772289612,0.740286749379,0.666908271539,0.0537633491392,0.0657144454146,0.057800547688,-0.230787280539,-0.0837041263229,-0.0180380444361,-0.0118093620719,-0.271038672862,-3.6473429203,-0.817655563354,0.0469951294363,0.305387496948,-1.73185026646,0.237936124206
2017/07/09/10:02:30.775117,413544,1499565753,579311107,,0.819544506513,0.149597540235,0.15664370159,0.740823441961,0.66629866423,0.0530718077345,0.0664085921436,0.0620881834063,-0.241160346242,-0.0809814986299,-0.0329629487887,-0.0109343379291,-0.277255767594,-3.33742308617,-0.615017294884,-0.0773846954107,0.319906651974,-1.65713047981,0.24657189846
2017/07/09/10:02:30.785200,413545,1499565753,589311068,,0.820352541239,0.147919900455,0.156178290331,0.741667742382,0.665327090679,0.0532855120995,0.0665543125569,0.0645552524117,-0.247316042945,-0.0757743964562,-0.061719853923,-0.0103502179712,-0.278447351785,-3.39695429802,-0.416548967361,-0.145216301084,0.28312727809,-1.74880278111,0.230422496796
2017/07/09/10:02:30.795433,413546,1499565753,599310983,,0.821123548399,0.145252662012,0.155218904243,0.742762023475,0.66409710082,0.0532041174408,0.0667003677134,0.0688450839042,-0.234673060871,-0.0721097353268,-0.0309037977169,-0.0125550713834,-0.274277074136,-2.72118067741,-0.197477266192,-0.359696090221,-0.0440490096807,-1.56155359745,0.0829641222954
2017/07/09/10:02:30.805691,413547,1499565753,609307885,,0.821671772004,0.14290366488,0.154659530089,0.74364069386,0.663107293721,0.0529140391779,0.066987610107,0.105209841111,-0.233230705169,-0.0444533685812,-0.0331145105644,-0.101753770202,-0.26829104631,-3.50967359543,-0.151163443923,-0.0580569542944,0.0446607768536,-1.79823875427,0.196710169315
2017/07/09/10:02:30.815382,413548,1499565753,619304841,,0.822608835381,0.140860222777,0.153909368478,0.74436476123,0.662239803066,0.052960820478,0.067488495085,0.0823528178536,-0.234860752909,-0.064479753016,-0.0324359993111,-0.054451436074,-0.27183262777,-3.71129608154,-0.292674899101,0.0243217870593,0.0315687656403,-1.81403970718,0.16070458293
2017/07/09/10:02:30.825475,413549,1499565753,629310717,,0.823675637848,0.138330522263,0.153859392218,0.745315599329,0.661088226022,0.0531450929717,0.068136729484,0.0590173861528,-0.265298590171,-0.101067458614,-0.0499629022367,0.00680161896534,-0.301023433842,-3.59290528297,-0.531493067741,0.318285673857,0.234812185168,-1.73663270473,0.244656383991
2017/07/09/10:02:30.835331,413550,1499565753,639310906,,0.823989625752,0.135774236165,0.152305646738,0.746182928161,0.660167377459,0.0524719958815,0.0680937670337,0.0695865959845,-0.27343954639,-0.0893168479233,-0.0742600547789,-0.0176826732544,-0.291839620556,-2.85690951347,-0.20102468133,-0.256334424019,0.206882923841,-1.42008292675,0.215984687209
2017/07/09/10:02:30.845498,413551,1499565753,649303546,,0.824275601749,0.133796339027,0.151321176273,0.746812316211,0.659509645926,0.052144958061,0.0678180996084,0.070791886168,-0.269833553579,-0.0737756638198,-0.0815124849891,-0.0177905111671,-0.286982055471,-3.20256352425,0.211812883615,-0.40965950489,0.0312015041709,-1.46166467667,0.175901323557
2017/07/09/10:02:30.855050,413552,1499565753,659304463,,0.825095064131,0.130768820089,0.151141408888,0.747720446286,0.658422870084,0.0516123023461,0.0687722953092,0.0532013309764,-0.245220778589,-0.0859860883921,-0.0754567132501,0.0416811908286,-0.24537268366,-3.00559139252,-0.303994864225,-0.108774490654,0.112819388509,-1.45141553879,0.196204215288
2017/07/09/10:02:30.865272,413553,1499565753,669311457,,0.824991805103,0.127709454894,0.149903703786,0.748853771655,0.657236275433,0.0504692620134,0.0686393511446,0.0522066971714,-0.259581419623,-0.0886679250515,-0.102101608093,0.0489458807329,-0.25612188861,-3.66051054001,-0.810657262802,-0.404386967421,0.236196652055,-1.74108326435,0.224873185158
2017/07/09/10:02:30.875448,413554,1499565753,679310353,,0.826182820111,0.126152866524,0.149380422982,0.749169719187,0.65683084669,0.0502684434542,0.0692174420461,0.0485030164708,-0.279115401922,-0.0815269581451,-0.114035755443,0.064372011911,-0.284404646057,-3.13874864578,0.469129174948,-0.49539104104,0.0454340726137,-1.70881450176,0.218806579709
2017/07/09/10:02:30.885692,413555,1499565753,689306780,,0.826094275285,0.12331958205,0.148260882837,0.750292998427,0.655657520889,0.0493463000393,0.0688373044581,0.0268446006408,-0.256428922039,-0.0930671410575,-0.118767237859,0.124149199818,-0.24550161573,-3.58678650856,-0.153014093637,-0.600823581219,0.0589354783297,-1.87391579151,0.191879525781
2017/07/09/10:02:30.895308,413556,1499565753,699309629,,0.825658658604,0.120381320755,0.146767804965,0.751021598194,0.654965235416,0.0474720286827,0.0688004791814,0.014349634768,-0.283547213425,-0.0941223878154,-0.142456616371,0.152154726252,-0.262184359154,-3.06164979935,-0.0725949853659,-1.09377944469,-0.000412732362747,-1.77197778225,0.169689491391
2017/07/09/10:02:30.905107,413557,1499565753,709305518,,0.826412501519,0.118503122529,0.146424288082,0.751374592777,0.654561762292,0.0469119265726,0.0691692982382,0.0142204928847,-0.291009688354,-0.0972362103167,-0.15595519764,0.147211679208,-0.252090275073,-1.94010615349,0.203734338284,-0.782388031483,-0.0456241220236,-1.39007997513,0.147109568119
2017/07/09/10:02:30.915271,413558,1499565753,719310787,,0.826385073308,0.114821253904,0.145528092329,0.752567545366,0.65324179787,0.0457213430297,0.0694751896005,0.00998051525367,-0.295568029492,-0.0927728807152,-0.153471505925,0.155556197926,-0.272306064035,-0.652582645416,-0.66663223505,-0.480328738689,0.189824670553,-0.818711042404,0.192016720772
2017/07/09/10:02:30.925332,413559,1499565753,729306142,,0.826902680949,0.112860347768,0.144922794807,0.752875299145,0.652904143219,0.0450241788075,0.0697695279264,0.0182397277359,-0.306919394706,-0.0903733543498,-0.179414681597,0.139491786748,-0.279694638848,0.486876577139,-0.00219118595123,-0.335123062134,0.0974205434322,-0.329634934664,0.160635635257
2017/07/09/10:02:30.935588,413560,1499565753,739319640,,0.826884437563,0.109195485965,0.144361219737,0.753756237276,0.6519306553,0.0432879416734,0.0704564372693,0.0184266959513,-0.291556620683,-0.0882822831812,-0.171531389974,0.141475308982,-0.248069842388,0.0508922189474,-0.454365670681,0.148625805974,0.124922737479,-0.438913494349,0.131883665919
2017/07/09/10:02:30.945248,413561,1499565753,749323807,,0.826994361661,0.106171280272,0.143255006879,0.754642951793,0.650969391043,0.0420318212306,0.0706129820797,0.00838438420185,-0.322171033696,-0.0775150934955,-0.208298145896,0.143244544855,-0.276801781978,0.322302907705,0.155104577541,-0.924115717411,-0.00953520834446,-0.333710640669,0.104674644768
2017/07/09/10:02:30.956015,413562,1499565753,759333428,,0.827262522442,0.103076252757,0.142679991219,0.755505119361,0.649983920799,0.0409504057012,0.0711054259186,0.0205448575761,-0.31170092789,-0.0779532819633,-0.217491328717,0.127593602346,-0.259973962664,0.207501277328,-0.227670326829,-0.29179495573,0.126102775335,-0.328862190247,0.140837073326
2017/07/09/10:02:30.965192,413563,1499565753,769311585,,0.827627063367,0.100600673463,0.142073809589,0.756109998347,0.64931074384,0.0399961394926,0.0713690210076,0.0402124924149,-0.290656802532,-0.0587806024136,-0.195665243275,0.0931761585803,-0.250975020789,0.789557337761,-0.509371817112,-0.499851852655,0.15585449338,0.00772950425744,0.123071089387
2017/07/09/10:02:30.975487,413564,1499565753,779331698,,0.827062182201,0.0974731256856,0.14077008066,0.756899495391,0.64853478832,0.038160777941,0.071060095987,0.00722066881311,-0.314488407022,-0.0695303697739,-0.212052517803,0.164094853149,-0.269110855959,1.06199419498,-0.886042237282,-1.0399273634,0.199229642749,0.15099298954,0.121161714196
2017/07/09/10:02:30.985113,413565,1499565753,789303751,,0.827453755667,0.0949462877986,0.140741709429,0.75758283987,0.647738680464,0.0370236205159,0.0716386354559,-0.0120725358006,-0.341418084882,-0.0709284003589,-0.227868206097,0.19545915328,-0.288306573537,1.44110405445,-0.321345359087,-0.167011454701,0.226236671209,0.232282862067,0.159282267094
2017/07/09/10:02:30.995169,413566,1499565753,799310275,,0.826985746555,0.0905739841472,0.139736201053,0.759035861321,0.646113498874,0.0350586263461,0.0719221837836,-0.0123338082215,-0.312140968172,-0.0711494111244,-0.202912450454,0.212110729908,-0.268861262731,1.44443154335,-0.787123560905,-0.465093433857,0.136633068323,0.272846847773,0.125521481037
2017/07/09/10:02:31.005138,413567,1499565753,809303311,,0.826772635126,0.0875845019636,0.139545062219,0.759652773662,0.645448628565,0.0331168522495,0.0722980321199,-0.00388013812233,-0.320350902773,-0.0559835039546,-0.217346734342,0.190299293112,-0.281514183381,1.23844122887,-0.907823324203,-0.244419887662,0.13877093792,0.232408344746,0.106238953769
2017/07/09/10:02:31.015374,413568,1499565753,819308549,,0.827282730393,0.0845128494474,0.139617367996,0.760438132961,0.644482794251,0.0325340617504,0.072919878494,-0.0166328715444,-0.324099916067,-0.0558942184877,-0.215098352704,0.209404094132,-0.288480213286,1.44418179989,-0.786860823631,-0.337600052357,0.0871966332197,0.288980662823,0.124413527548
2017/07/09/10:02:31.025291,413569,1499565753,829310482,,0.82705363554,0.0812205258656,0.138891810117,0.7613885957,0.643420773546,0.031025173842,0.0730380250008,-0.00396827812595,-0.318519730932,-0.047489671267,-0.235198705377,0.177528092936,-0.253130349738,1.47227954865,-0.518518149853,0.0238947197795,0.0282804071903,0.373238623142,0.0950112193823
2017/07/09/10:02:31.035318,413570,1499565753,839310567,,0.82706897162,0.0789520234938,0.138169798281,0.761808785392,0.642972939645,0.0294364570512,0.0732575482823,0.00617839927488,-0.309186609625,-0.0363464383632,-0.22471906524,0.139620044875,-0.269537463313,1.35510873795,0.145801141858,0.0472236014903,-0.0938786417246,0.357687830925,0.0569919198751
2017/07/09/10:02:31.045016,413571,1499565753,849307049,,0.826767668786,0.0756511446744,0.137603890211,0.762450190735,0.642249035207,0.0277384196539,0.0735966269474,-0.00862531258736,-0.31496743503,-0.0388886957871,-0.255055612389,0.178905779155,-0.241676871057,1.34806072712,-0.436538338661,-0.219418644905,-0.00374578684568,0.474150300026,0.0314709097147
2017/07/09/10:02:31.055571,413572,1499565753,859304155,,0.827320795349,0.0726682343525,0.138270764739,0.763284659332,0.641173069484,0.0268539738465,0.0746490983611,-0.0149471551597,-0.357156367863,-0.0288437733011,-0.300307107075,0.173968233534,-0.265241819196,2.42879652977,-0.666445612907,0.616537570953,0.291606903076,0.804163515568,0.0650377124548
2017/07/09/10:02:31.065103,413573,1499565753,869317444,,0.826806759181,0.0695042492514,0.137100890088,0.763996156004,0.640397041566,0.0247588804141,0.0747562746934,-0.00792036455309,-0.330651386102,-0.0290353001806,-0.246208940166,0.166774791771,-0.304126747707,3.02431130409,-0.454579770565,0.0394758172333,0.225791499019,0.992877721786,0.0651215612888
2017/07/09/10:02:31.075094,413574,1499565753,879310675,,0.825917370377,0.0663960840453,0.13667408356,0.765183137655,0.639092053553,0.0233588045572,0.0742326018944,-0.00563535960456,-0.315938013614,-0.0196152112377,-0.231003537811,0.151537240658,-0.291474511373,2.10008025169,-0.948118209839,-0.543853223324,0.267474204302,0.758580267429,0.0942585021257
2017/07/09/10:02:31.085229,413575,1499565753,889305728,,0.826551531466,0.0633989545009,0.136974511112,0.765688805276,0.63840044709,0.0224966549669,0.0752291376138,-0.0140201550547,-0.291502519712,-0.0345165474624,-0.179980596339,0.169550110844,-0.276582516821,2.79924631119,-0.93143928051,0.523375153542,0.0856351256371,0.981678247452,0.0251348912716
2017/07/09/10:02:31.095080,413576,1499565753,899310716,,0.825900676314,0.0602442034072,0.136119260564,0.76684671025,0.63708347434,0.0208468276366,0.0750744928647,-0.0186792377338,-0.307690352846,-0.0392436263431,-0.168784876692,0.168769796106,-0.296054791142,3.31099033356,-0.719371318817,0.235373526812,0.154335767031,1.26257622242,0.0469688847661
2017/07/09/10:02:31.105244,413577,1499565753,909303414,,0.827373718623,0.0584504563903,0.136951757347,0.767547776581,0.636096689251,0.0211745998618,0.0761777455066,-0.00533635790876,-0.315562285373,-0.0181250940885,-0.184467733223,0.119929921084,-0.325777149159,4.4004611969,-0.339290738106,0.843862891197,-0.0308604985476,1.62454521656,-0.0389428138733
2017/07/09/10:02:31.115383,413578,1499565753,919307978,,0.82623564789,0.0554700201854,0.1361892621,0.768239970827,0.63538336469,0.0190355513026,0.0757164109462,0.00720883714198,-0.289667632083,-0.00458290695816,-0.177857741863,0.0886421264499,-0.304127996257,2.65132188797,-0.0434029251337,0.2127584517,-0.138448253274,1.12523913383,-0.021132171154
2017/07/09/10:02:31.125424,413579,1499565753,929310088,,0.826368697948,0.0524168807857,0.136529377629,0.769403438083,0.633931473433,0.0183897014059,0.0762302783633,-0.00605151039467,-0.304025386356,-0.00119399679713,-0.177982920598,0.0986823669018,-0.315591294073,3.49091291428,-0.440729409456,0.421797662973,0.0389675796032,1.40878534317,-0.0058601051569
2017/07/09/10:02:31.135079,413580,1499565753,939310805,,0.826338202795,0.0503223605169,0.135456316636,0.769985615852,0.633246668084,0.0173263352291,0.0762929016956,0.0051039288158,-0.292922703188,0.0108920916634,-0.175324164908,0.0695664171844,-0.309275461006,4.01104640961,-0.274481594563,-0.45509326458,0.0635916367173,1.61001801491,-0.0341506451368
2017/07/09/10:02:31.145136,413581,1499565753,949306084,,0.826047043154,0.0471884594551,0.136329859815,0.770855857864,0.632157656053,0.016260240058,0.0767694527961,-0.0167165869053,-0.293081219969,-0.00010380805785,-0.152293201095,0.103327267846,-0.323613310092,4.31012010574,-0.799037694931,0.0477370619774,0.223698675632,1.70943665504,-0.00267343223095
2017/07/09/10:02:31.155135,413582,1499565753,959306664,,0.826585417073,0.0442248525338,0.13671466556,0.772137456367,0.630498107941,0.0161567811497,0.0775554174826,-0.00844313517305,-0.283459631633,0.00281305175737,-0.143591878737,0.0830888304935,-0.301715351901,4.5351099968,-0.95033800602,0.193600028753,0.14029020071,1.75464403629,-0.0328420847654
2017/07/09/10:02:31.165359,413583,1499565753,969302582,,0.826173647683,0.041830867997,0.136294794434,0.772925247181,0.629582917007,0.0151776656599,0.0773404897126,-0.0162179671547,-0.278034937679,-0.00112614756122,-0.113487194057,0.085770360189,-0.321880506642,4.22904872894,-0.621688783169,0.159353226423,0.0152633562684,1.57098913193,-0.0275420844555
2017/07/09/10:02:31.175373,413584,1499565753,979307699,,0.826352777084,0.0395929974781,0.136432126387,0.774158848939,0.628059331378,0.015326277028,0.0773605720643,-0.0053588751812,-0.274941197082,0.00601662109021,-0.105220687545,0.0493821852053,-0.332370141015,3.5899605751,-0.311206668615,-0.268675744534,-0.140938669443,1.37970328331,-0.0399685427547
2017/07/09/10:02:31.185528,413585,1499565753,989317830,,0.825760057234,0.0369352908244,0.13612865679,0.775277195904,0.626725705486,0.014330854993,0.0771672611225,-0.00253785068897,-0.240945822253,0.00386397340969,-0.0405038472939,0.0387089557007,-0.329212254917,3.82351231575,-0.72885286808,0.0893849134445,-0.0161218494177,1.48475825787,-0.0263054966927
2017/07/09/10:02:31.195290,413586,1499565753,999310681,,0.826738524264,0.034793271949,0.136519450455,0.775879602979,0.625870622939,0.0147236340732,0.0779744805836,0.00901713269116,-0.245854416894,0.00731576062899,-0.0458157473977,-0.00324879098614,-0.328905070345,4.77456903458,-0.803513228893,0.739159226418,0.115426570177,1.74088156223,-0.0250363349915
2017/07/09/10:02:31.205394,413587,1499565754,9309360,,0.827064639419,0.0326295234347,0.136885367427,0.776567444729,0.624959816135,0.0148015551808,0.0784164904093,0.0273197153314,-0.246449565272,0.00892436419668,-0.0338295139069,-0.0530829323911,-0.331152411422,5.5945520401,-0.756607294083,0.850386023521,0.207269906998,2.10711216927,-0.0531922578812
2017/07/09/10:02:31.215271,413588,1499565754,19303889,,0.826844270962,0.0300087918924,0.136272957278,0.778045482649,0.62315003143,0.0145383336138,0.0782170193334,0.0254391755373,-0.23238007762,0.00567689283033,-0.0104427387339,-0.0558608785436,-0.315104591477,5.21562767029,-1.2614222765,0.0979659259319,0.44649887085,1.99902451038,-0.00333386659622
2017/07/09/10:02:31.225094,413589,1499565754,29308975,,0.827339166521,0.0276219919567,0.136962530293,0.778954639929,0.621898709775,0.0148385029796,0.0790663173766,0.00744371768226,-0.227442175222,-0.00590148487988,0.000626948841461,-0.0191662105578,-0.318568830771,5.09057331085,-1.30795490742,0.465346217155,0.430445790291,1.88389182091,0.0015844553709
2017/07/09/10:02:31.235270,413590,1499565754,39310126,,0.827461622938,0.0260862972462,0.136871030186,0.779816358077,0.620860815451,0.0153717233066,0.0786257313823,0.0342389141625,-0.235336267602,0.0127765980675,0.00913967421652,-0.103861080459,-0.344347071905,6.73834609985,-1.39658415318,-0.282614707947,0.493055820465,2.63239836693,-0.0663523972034
2017/07/09/10:02:31.245446,413591,1499565754,49306715,,0.827589378815,0.0235617746013,0.13670198965,0.780585756527,0.619844102539,0.0152448159393,0.0790364526112,0.0284357052597,-0.196256571062,0.0024175075467,0.0453557748739,-0.0838847698331,-0.316473491868,5.58471918106,-1.27766776085,-0.112144686282,0.395738661289,2.26003861427,-0.085312448442
2017/07/09/10:02:31.255034,413592,1499565754,59304887,,0.827961716159,0.0226593402679,0.13671784262,0.781354393944,0.618889124193,0.0158224317974,0.0788112534605,0.0190279638846,-0.21076855049,0.00462985534003,0.0268579019678,-0.0740516208522,-0.32348034978,5.53855419159,-0.657687723637,0.435739159584,0.28309315443,2.1532356739,-0.0557295233011
2017/07/09/10:02:31.265123,413593,1499565754,69303408,,0.828218690414,0.0202955603712,0.136684582609,0.782681620927,0.617194037669,0.0164902604318,0.0787976613853,0.0231002605436,-0.231918675315,0.0180576716056,-0.00426674583012,-0.1027449097,-0.31975237416,5.10277843475,-1.27029418945,0.298222899437,0.417037039995,1.93520879745,-0.031227439642
2017/07/09/10:02:31.276366,413594,1499565754,79307741,,0.828396193179,0.0179960006252,0.137112005027,0.783635202622,0.615888042906,0.0164417348997,0.0795453152006,0.0241153096728,-0.21252556335,0.0231202032862,0.0510289501582,-0.109333917683,-0.328225305974,4.54716205597,-1.10194420815,0.599488139153,0.401624023914,1.63097989559,0.0562066659331
2017/07/09/10:02:31.285477,413595,1499565754,89310412,,0.828802229624,0.015969131576,0.137545623816,0.784854962307,0.614285797873,0.0173116653737,0.0797242304166,0.0115455150467,-0.207046456382,0.00295392354404,0.0427076941707,-0.085053960839,-0.313902171657,4.72670173645,-0.967478990555,0.326480329037,0.263926804066,1.66302239895,-0.0284913852811
2017/07/09/10:02:31.295375,413596,1499565754,99325897,,0.829283482484,0.0138809031954,0.137353029929,0.785119326569,0.613823074839,0.0173122395234,0.0806793790562,0.0126968451335,-0.225798362144,-0.0052616921813,0.028321314596,-0.101684661797,-0.350240906251,5.14448356628,-1.63356041908,0.231057196856,0.440281629562,1.79918420315,-0.0215561836958
2017/07/09/10:02:31.305042,413597,1499565754,109304420,,0.829527720635,0.012207139985,0.137313367141,0.786229042328,0.612382405556,0.0181130885912,0.0806448906439,0.0251217225998,-0.234722493073,-0.0045166840274,-0.0240708344673,-0.13342213432,-0.302869068894,5.48647403717,-1.25261843204,0.469100475311,0.391259968281,2.00703191757,-0.0142145454884
2017/07/09/10:02:31.315282,413598,1499565754,119310729,,0.828949905897,0.00898273081044,0.136689236904,0.787312157658,0.610942793593,0.0177098969307,0.0810853187179,0.0342781929959,-0.215054806605,0.00103412195566,-0.0022333018628,-0.160352966931,-0.287017972087,3.92742538452,-1.23611843586,0.215846762061,0.324103951454,1.54130923748,-0.00250068306923
2017/07/09/10:02:31.325447,413599,1499565754,129306083,,0.829690418331,0.00754076792742,0.137514474865,0.788067952465,0.609861954186,0.0186573365594,0.0816651879734,0.0203045829796,-0.221318138572,-0.00135632168944,-0.00823676016207,-0.138311158502,-0.289842184218,3.92538762093,-0.343659430742,0.83603143692,0.0729168355465,1.52568352222,-0.0382191389799
2017/07/09/10:02:31.336316,413600,1499565754,139310927,,0.82937950924,0.00495346168981,0.137248962092,0.788774784383,0.608914340438,0.0185948375094,0.0819261713288,0.000729780327077,-0.228738497886,-0.00634523326902,0.00362353860859,-0.100001786136,-0.299019994597,2.02960658073,-0.335422098637,1.09617292881,0.13019618392,0.85775834322,0.0282028988004
2017/07/09/10:02:31.345199,413601,1499565754,149305479,,0.829323358809,0.00329280639595,0.136645722565,0.789795382358,0.607605151677,0.0190708447891,0.081703956702,0.0165936850594,-0.202788137196,0.00155749341801,0.00812195831347,-0.130093046565,-0.268878909332,1.77472817898,-0.862474560738,0.590091943741,0.154298588634,0.834834992886,0.0453122779727
2017/07/09/10:02:31.355300,413602,1499565754,159304144,,0.829332502368,0.000688566875839,0.136902693264,0.790602345472,0.606437530755,0.0190966732338,0.0825637311277,-0.00549336077378,-0.218709542442,-0.0127573263258,-0.0057482938465,-0.0862541574311,-0.290234471421,2.42284560204,-0.571120619774,0.44906193018,0.102674491704,1.06540393829,-0.023581340909
2017/07/09/10:02:31.365185,413603,1499565754,169304881,,0.829005939224,-0.000914002736675,0.136170357305,0.791363138547,0.605485308465,0.019171700647,0.0822457906272,-0.0237690346523,-0.241828883546,-0.0215157362621,-0.00675916310595,-0.0628004784011,-0.321135113633,2.25024056435,-0.423767447472,0.476354390383,0.108017615974,0.998273611069,-0.0111834779382
2017/07/09/10:02:31.375361,413604,1499565754,179310598,,0.82830697719,-0.0029053837609,0.135635094332,0.792362557899,0.604245879605,0.0190606863976,0.0817629748404,-0.0320019772646,-0.234124769602,-0.0305781526033,-0.0113167375444,-0.0342744512076,-0.314249705034,3.07524800301,-0.644086062908,-0.139261126518,0.263138920069,1.29154241085,-0.0123133808374
2017/07/09/10:02:31.385456,413605,1499565754,189304487,,0.828074934473,-0.00524697643789,0.135144779949,0.793218736103,0.603089595982,0.0188298060671,0.0820512907761,-0.0442861637805,-0.214719007983,-0.0596055118541,0.038873871112,0.0101068664102,-0.310227501465,2.46463036537,-0.38260281086,0.265517055988,0.115947254002,1.04375708103,-0.0391116663814
2017/07/09/10:02:31.395499,413606,1499565754,199303691,,0.827539363926,-0.00712373898262,0.134913174335,0.794085792951,0.601981748941,0.0191651821248,0.0817216199616,-0.0382541331942,-0.205664800984,-0.0552325357039,0.0293757672335,0.00279067456157,-0.273132325103,2.02148914337,-0.213499009609,0.682114481926,-0.0615885965526,0.994127035141,-0.0757560804486
2017/07/09/10:02:31.405229,413607,1499565754,209332523,,0.827389743928,-0.00859190893161,0.133808345289,0.794719170715,0.601178944187,0.0191911543995,0.0814678854351,-0.0196819788593,-0.227876676601,-0.0302439699157,0.0400432240358,-0.0833476977611,-0.318959468645,1.47742414474,0.254742026329,0.215082079172,-0.0720650404692,0.790820717812,-0.0956747457385
2017/07/09/10:02:31.415118,413608,1499565754,219310443,,0.827115586984,-0.0114592684361,0.133760060141,0.795823443482,0.599648980723,0.0193727691059,0.0819197322998,-0.0383516463966,-0.210127949905,-0.0495454286052,0.04414094854,-0.025956396789,-0.303089581898,1.53838384151,-0.371365308762,0.530237555504,0.0474496558309,0.834738910198,-0.0609059035778
2017/07/09/10:02:31.426222,413609,1499565754,229303044,,0.826683333848,-0.0130735554362,0.133176161953,0.796708941187,0.59851439261,0.0195596782817,0.0815647218816,-0.0375749966375,-0.210593025148,-0.0498410449088,0.0389035335616,-0.0233009312366,-0.272195011236,1.33583009243,-0.891211390495,0.455730319023,0.175564691424,0.786833286285,-0.0601365864277
2017/07/09/10:02:31.435323,413610,1499565754,239312022,,0.825997302755,-0.0160074968373,0.132215219444,0.797534569844,0.597371547187,0.018686657341,0.0820771183273,-0.0545096138039,-0.237925286521,-0.0638059273802,0.0103594034544,-0.00231598430604,-0.303151771268,2.1290345192,-1.09508514404,0.667114377022,0.298044145107,1.06839454174,-0.0748213380575
2017/07/09/10:02:31.445435,413611,1499565754,249309750,,0.825708185631,-0.0173721005312,0.131605844497,0.798304097696,0.596411209881,0.0195000220361,0.0813878705415,-0.0379799924169,-0.212971888906,-0.05713556872,0.0340737571958,-0.0290829414153,-0.290361266834,2.25815153122,-0.512498378754,0.464544415474,0.193878889084,1.1621992588,-0.0964571982622
2017/07/09/10:02:31.455747,413612,1499565754,259310998,,0.825131045884,-0.019227442815,0.130869560331,0.799005480071,0.595510930791,0.0191708402132,0.0811754458576,-0.0544835538599,-0.189372695888,-0.0739552684704,0.0494522281328,0.0288743487886,-0.262812953391,1.8340369463,-0.686097204685,-0.0307553261518,0.0757656469941,1.06211829185,-0.173495650291
2017/07/09/10:02:31.465622,413613,1499565754,269309207,,0.82426084779,-0.0220985623491,0.130313985485,0.79999304012,0.594182052504,0.0188584569639,0.0812599707307,-0.0544813756505,-0.211916791866,-0.0663797724416,0.0346228507014,0.0153827394898,-0.279854334328,1.02600705624,-0.790964007378,0.243720471859,0.0420743227005,0.788275718689,-0.143085986376
2017/07/09/10:02:31.475350,413614,1499565754,279310357,,0.823826772367,-0.0237649112171,0.129971970699,0.801009388706,0.592849190567,0.0189091598385,0.0809706127068,-0.0585719936836,-0.214093510456,-0.0660476955024,0.0135914080741,0.022476825356,-0.257786364822,1.30309009552,-0.116211995482,0.687779903412,0.0802314952016,0.791196465492,-0.117681026459
2017/07/09/10:02:31.485270,413615,1499565754,289305114,,0.823873074095,-0.0255552298709,0.129684107188,0.80136106654,0.592298017395,0.0191284688206,0.0814714754035,-0.0498770512235,-0.215900064118,-0.0587145576311,0.0357399853583,-0.0190593908334,-0.294430966976,1.35813379288,0.348665893078,1.10981595516,-0.0182553008199,0.822268843651,-0.155774414539
2017/07/09/10:02:31.495345,413616,1499565754,299316603,,0.823151488973,-0.0273643624676,0.128579252389,0.802217773569,0.591205037814,0.018975039405,0.081013547714,-0.0449016546096,-0.215076015464,-0.0561018167772,0.00521003199754,-0.0192718366547,-0.270697264938,1.04734933376,-0.0740990936756,0.790338099003,0.0423766225576,0.748330891132,-0.144839197397
2017/07/09/10:02:31.505146,413617,1499565754,309309784,,0.822584943169,-0.02933613154,0.127607337152,0.802907941663,0.590300044843,0.0190401959632,0.0807599232923,-0.0604274061909,-0.194688840626,-0.0844154897186,0.0464369575601,0.0226992135793,-0.26646763378,1.86791586876,-0.470429450274,0.465689450502,0.09248483181,1.03841555119,-0.187671691179
2017/07/09/10:02:31.515306,413618,1499565754,319306118,,0.821995464795,-0.0316334225889,0.126557048353,0.804149563806,0.588615565375,0.0190313102001,0.0807031874322,-0.0522629055559,-0.208529284803,-0.0743808179893,0.0478262738452,-0.0154433204048,-0.292098924971,2.12629437447,-0.406075835228,-0.13317553699,0.113242641091,1.08221149445,-0.197248488665
2017/07/09/10:02:31.525212,413619,1499565754,329303576,,0.82160032776,-0.0340814631262,0.126313946865,0.804937758408,0.587488150347,0.0189670976161,0.081074826546,-0.047278051789,-0.213070710539,-0.072014465103,0.0439163736356,-0.0351232703329,-0.301593627502,2.00825333595,-0.698702633381,0.193262338638,0.161432087421,1.0443789959,-0.187751054764
2017/07/09/10:02:31.535391,413620,1499565754,339315357,,0.821097387662,-0.0359169593748,0.125559715727,0.805776404052,0.58637546971,0.0193991864092,0.0806961384598,-0.0255063478061,-0.189025096182,-0.0598271083384,0.0185585799709,-0.0572931650908,-0.255566449851,1.50409555435,-1.2035330534,0.296382844448,0.390403449535,0.953604280949,-0.114021152258
2017/07/09/10:02:31.546274,413621,1499565754,349324783,,0.821558631561,-0.0371149596101,0.125466944343,0.806045764829,0.585896424906,0.0197835768331,0.081389276753,-0.0370456692933,-0.204768337016,-0.0731828922605,0.0242359590247,-0.0412826644306,-0.258198229455,2.55646514893,-0.816759705544,0.419892728329,0.301832020283,1.2718654871,-0.176574409008
2017/07/09/10:02:31.555418,413622,1499565754,359311027,,0.820592403842,-0.038742825288,0.124073465211,0.807113350887,0.584559990838,0.0197073412282,0.0804318135615,-0.0414689386598,-0.211546084973,-0.0709736167263,0.0145135160074,-0.0369264177772,-0.261765691361,1.60163545609,-0.714080452919,-0.208540841937,0.256189852953,0.946351647377,-0.143280074
2017/07/09/10:02:31.565351,413623,1499565754,369303107,,0.820855248788,-0.0401917494797,0.123998651363,0.807476960389,0.58394997854,0.0201892878782,0.0810911441453,-0.0520889013843,-0.185173368921,-0.0927692076176,0.0507724770144,-0.00185716274665,-0.269264633595,2.07602882385,-0.601530492306,0.330693602562,0.303138822317,1.02167570591,-0.12594512105
2017/07/09/10:02:31.575289,413624,1499565754,379307846,,0.820523337217,-0.0419361185546,0.122537343227,0.808237971806,0.582932593975,0.0204874388073,0.0807541742809,-0.0437393903919,-0.19985477816,-0.0849418249719,0.0215314754877,-0.0304242457398,-0.259306530403,2.14337992668,-0.33210220933,0.124429933727,0.210609003901,1.0524238348,-0.163643449545
2017/07/09/10:02:31.585524,413625,1499565754,389310139,,0.819720836698,-0.0448857829917,0.12243604552,0.809416286208,0.5812442109,0.0205046288194,0.0811172183495,-0.0219335909603,-0.199942957957,-0.0501767644101,0.0262988249283,-0.10220708516,-0.258950218104,1.35317778587,-0.713233113289,0.608865559101,0.260190844536,0.806747734547,-0.114655137062
2017/07/09/10:02:31.595320,413626,1499565754,399310610,,0.819922845971,-0.04646231067,0.121904356313,0.80975382379,0.58065854612,0.0207762365207,0.0818702978639,-0.00972170930034,-0.163566684061,-0.0510804747418,0.0126547670418,-0.100082708271,-0.196821877155,1.27298891544,-0.552387237549,0.336555421352,0.138376444578,0.783324658871,-0.184531822801
2017/07/09/10:02:31.605379,413627,1499565754,409310586,,0.820261897975,-0.0476080568207,0.121140676907,0.81010570896,0.580112290741,0.0215151301034,0.082070516133,-0.0149451451943,-0.182313765052,-0.068501225727,0.00526573122359,-0.0979598076908,-0.235997489528,1.95861232281,0.173206701875,0.0920407325029,0.0179307702929,0.945687055588,-0.174065649509
2017/07/09/10:02:31.615280,413628,1499565754,419309252,,0.819256980558,-0.0508729367992,0.120476132964,0.811203809925,0.578537788119,0.0211922024948,0.0824214597891,-0.0194654445196,-0.206729419406,-0.0816480401536,-0.0150352536138,-0.0974463676823,-0.254231411578,1.57001316547,-0.93937253952,0.258879929781,0.200924411416,0.899102091789,-0.167178139091
2017/07/09/10:02:31.625456,413629,1499565754,429305224,,0.818913988624,-0.0523141085283,0.119699543801,0.811794618972,0.577713425533,0.0216267777452,0.0822737932238,-0.0310439542071,-0.209450851269,-0.0709391594519,0.006738872456,-0.084813627925,-0.265403718733,0.76455706358,-0.703640639782,-0.137623563409,0.190176337957,0.541784405708,-0.0837414860725
2017/07/09/10:02:31.635153,413630,1499565754,439308481,,0.818877522169,-0.0539161132307,0.119134715128,0.812446222515,0.576732006641,0.0216884298368,0.0827099755134,-0.0217563119879,-0.186843771381,-0.0717306874908,0.0129474308838,-0.0947541147571,-0.234693826066,-0.010397573933,-0.0331347733736,0.429366976023,0.0209176652133,0.238401159644,-0.0871805101633
2017/07/09/10:02:31.645409,413631,1499565754,449304874,,0.819124116095,-0.055320589031,0.118750021049,0.812816817491,0.57611769768,0.0223346697426,0.0831768125782,-0.0102131649141,-0.177609458653,-0.0725940741216,0.0244894467141,-0.121152739057,-0.228606843653,0.283957242966,0.139698147774,0.25149551034,0.0654977411032,0.311881631613,-0.0799853652716
2017/07/09/10:02:31.658341,413632,1499565754,459304741,,0.818127466329,-0.0580419716752,0.117546855152,0.813820506508,0.574704096007,0.0222466393361,0.0831653308647,-0.0332482229487,-0.194127967512,-0.0776906181067,0.0220711453178,-0.0807657455226,-0.252088177898,0.433922082186,-0.163140445948,0.0863838270307,0.0830538868904,0.364259809256,-0.0862417370081
2017/07/09/10:02:31.665410,413633,1499565754,469315254,,0.817942233218,-0.0596475376935,0.116647820615,0.814560853152,0.573619454242,0.0225931106338,0.0833120014115,-0.0310705292475,-0.210314607068,-0.0859305455319,-0.00358151153535,-0.0893285680849,-0.253551797961,0.226620450616,0.413123875856,-0.0784640014172,-0.0203787032515,0.259495615959,-0.0953546687961
2017/07/09/10:02:31.675236,413634,1499565754,479317171,,0.817675283059,-0.0610669148372,0.115911620953,0.814904945976,0.573088038844,0.0225021693191,0.0836282316829,-0.0208523188761,-0.188901688631,-0.0859060004549,0.000642624422683,-0.0997111573376,-0.239517646991,0.332390606403,0.17077408731,-0.273875355721,0.0685334056616,0.379262238741,-0.0466964021325
2017/07/09/10:02:31.685497,413635,1499565754,489308574,,0.817784337047,-0.063228707938,0.115386981284,0.815710195956,0.571830372635,0.0232802927784,0.0841720209741,-0.0236106691408,-0.184313562757,-0.0763171490188,-0.00114021327495,-0.094187442304,-0.237046522246,-0.898367404938,-0.175715208054,-0.346289217472,0.0501883551478,-0.0999716073275,-0.0316368602216
2017/07/09/10:02:31.695106,413636,1499565754,499310595,,0.817599611553,-0.0641816464853,0.114542653359,0.815934325966,0.571526402947,0.0236187386582,0.0839696470665,-0.0331794385803,-0.18415022446,-0.0770497620426,0.00829676524519,-0.0745880025884,-0.217723428799,-0.609143316746,0.479755550623,-0.113308668137,-0.123601615429,-0.081581659615,-0.0606543347239
2017/07/09/10:02:31.705356,413637,1499565754,509304005,,0.817322268015,-0.0657432266789,0.113664427052,0.816655336238,0.570459950889,0.0240810068069,0.084080980829,-0.0281457132457,-0.178772899314,-0.0582849415918,0.0192606504942,-0.094473386804,-0.230397897751,-0.060153670609,0.0083209425211,0.080138400197,0.0624753423035,0.165240511298,-0.0672448650002
2017/07/09/10:02:31.715338,413638,1499565754,519316860,,0.816322800639,-0.0683772046372,0.112866823051,0.81765377162,0.569019485893,0.0238181810393,0.0842129959126,-0.02230823525,-0.166526070851,-0.06297658119,0.0374248922807,-0.104033603041,-0.219047260231,0.233671888709,-0.73767721653,-0.233623936772,0.226492613554,0.359457463026,-0.0403345040977
2017/07/09/10:02:31.725336,413639,1499565754,529306512,,0.815867494715,-0.070004887858,0.112388712776,0.817826580553,0.568743575499,0.023392730906,0.084517510678,-0.055198067224,-0.191709669537,-0.0884234053929,0.0271787594918,-0.0367748668046,-0.257571980431,1.16152703762,-0.464363843203,-0.420499175787,0.366495639086,0.589490711689,-0.0227149445564
2017/07/09/10:02:31.735100,413640,1499565754,539322592,,0.815829622219,-0.0704475059218,0.111475701637,0.818526341379,0.567775314008,0.0244658172561,0.0839478710762,-0.0506802944083,-0.141238726028,-0.10129852133,0.0380778285137,0.00596905708795,-0.186442479421,0.978077530861,-0.23229072988,0.016454257071,0.148417532444,0.488746255636,-0.0807998925447
2017/07/09/10:02:31.745336,413641,1499565754,549331929,,0.814317904624,-0.0729780572944,0.110037962996,0.819387025227,0.566621722304,0.0235136412101,0.0836171954821,-0.0577799141044,-0.177256080159,-0.0867353355975,0.0268041518763,-0.0183248044375,-0.239586963024,-0.0306601654738,0.0205146372318,-0.0242267884314,0.00733775086701,0.161318004131,-0.0606519430876
2017/07/09/10:02:31.755264,413642,1499565754,559304040,,0.81404232465,-0.074977169813,0.109736690673,0.820089495115,0.565516786184,0.0237314706045,0.0841475005499,-0.0530210033223,-0.186053820845,-0.07015603057,0.0137139859734,-0.0408335581761,-0.239736963753,-0.0987247899175,-0.309110969305,-0.1747867167,0.117528215051,0.103969834745,-0.0427846834064
2017/07/09/10:02:31.765595,413643,1499565754,569303733,,0.813946438329,-0.0756087581103,0.108943702599,0.820425821146,0.565060137748,0.0240997307875,0.0838314720266,-0.0508944743013,-0.165597188774,-0.0730780197013,0.0261096900923,-0.031007916206,-0.230144911198,-0.184207305312,0.0193950757384,-0.221977517009,0.076685898006,0.0441590771079,-0.0188635252416
2017/07/09/10:02:31.775206,413644,1499565754,579310397,,0.813334248996,-0.0773928855975,0.108435323502,0.821239074284,0.563883932157,0.0241215373211,0.0837821303175,-0.0443585577535,-0.139110681465,-0.0715027667212,0.0325702834356,-0.0236731954829,-0.191066399317,-0.589372873306,0.0123084485531,-0.190371274948,0.0188062414527,-0.0807238519192,-0.0255206692964
2017/07/09/10:02:31.785145,413645,1499565754,589304467,,0.813160001092,-0.0789442460796,0.107607485544,0.821813509503,0.563003553605,0.024578569056,0.0839371679822,-0.0648971512907,-0.156601972387,-0.0741580087668,0.0585031361919,-0.00377335606042,-0.225483448531,0.0514466390014,0.0850191861391,-0.668187201023,0.070091098547,0.109881691635,-0.0474130623043
2017/07/09/10:02:31.795296,413646,1499565754,599309774,,0.812375176382,-0.0802478439805,0.106778842227,0.822482507022,0.562086373009,0.0244075457378,0.08358053979,-0.0532700972321,-0.135209322143,-0.0790798039607,0.0404715396339,0.0016823668838,-0.184898244828,-0.553832292557,-0.237428620458,-0.340424984694,0.157531291246,-0.0360989496112,-0.000987026840448
2017/07/09/10:02:31.805143,413647,1499565754,609302576,,0.811493428438,-0.080848949316,0.105924291237,0.822845651305,0.561669735793,0.0241297213371,0.0828848512794,-0.0644171845089,-0.144022882668,-0.069837241975,0.0493623536701,0.0133776646226,-0.198956871533,-1.06282567978,0.178795188665,0.00621523149312,0.0297853313386,-0.242064505816,-0.0361282117665
2017/07/09/10:02:31.815166,413648,1499565754,619305672,,0.811184838118,-0.0816583623725,0.105823384049,0.823065359421,0.561363511462,0.0243536259816,0.0827122906369,-0.0834329114499,-0.142291617659,-0.0755130220601,0.0545021810893,0.0599869598971,-0.202240215183,-0.982096195221,0.856735706329,0.443702340126,-0.205793052912,-0.198069766164,-0.114358499646
2017/07/09/10:02:31.825351,413649,1499565754,629310483,,0.810339712389,-0.0835648705449,0.105142268242,0.82363313223,0.560538591579,0.023838229644,0.0828051305891,-0.0783090859216,-0.138671620349,-0.0634911416912,0.0442048759569,0.0492657784503,-0.192627726684,-1.62066411972,0.68553173542,0.390962928534,-0.168024867773,-0.405174165964,-0.0786239206791
2017/07/09/10:02:31.835273,413650,1499565754,639340023,,0.809045434559,-0.0859133549656,0.104340441876,0.824703118059,0.559036667188,0.0238678036173,0.0822988441779,-0.0929172007864,-0.14763843166,-0.0886949243654,0.0474131465603,0.0761505503552,-0.200890342384,-1.50099146366,0.41429823637,0.500311434269,-0.195177167654,-0.370208352804,-0.094587855041
2017/07/09/10:02:31.845572,413651,1499565754,649311010,,0.808970365287,-0.0859214838497,0.103489912064,0.824694057331,0.559091098155,0.0238637876988,0.0820205791508,-0.0687766610305,-0.15135431063,-0.0576723112355,0.0283778493352,0.0111500715325,-0.202864715958,-1.37335884571,0.942101836205,0.211798876524,-0.196352094412,-0.310887128115,-0.078226774931
2017/07/09/10:02:31.855546,413652,1499565754,659311435,,0.807781625329,-0.0877499231259,0.102743685358,0.825572767995,0.557876271235,0.0233962636487,0.0815860624473,-0.0658669981644,-0.127793904617,-0.0645081077459,0.0350475460572,0.0274372401467,-0.176851426336,-1.55702579021,0.583962500095,0.23019130528,-0.154559254646,-0.283439427614,-0.0957150757313
2017/07/09/10:02:31.865364,413653,1499565754,669314798,,0.807529385289,-0.0883600350601,0.102051530495,0.82576318725,0.557614461133,0.0235009517466,0.081418527277,-0.0719448738061,-0.122435802394,-0.0673987213675,0.0497191216352,0.039575866585,-0.194066498887,-0.242459058762,0.238252148032,0.425518155098,0.0583914741874,0.101926028728,-0.101643741131
2017/07/09/10:02:31.875526,413654,1499565754,679307033,,0.806660386354,-0.0899114948629,0.101706904549,0.826105893634,0.557129219729,0.0230401532282,0.0813955549594,-0.0656837794638,-0.111849288888,-0.0741484445867,0.0400067343095,0.049324278589,-0.14818291474,-0.551904022694,0.165227234364,0.444540411234,0.0158586427569,0.0501076243818,-0.117171399295
2017/07/09/10:02:31.885239,413655,1499565754,689303241,,0.806395322702,-0.0910252493963,0.101367671764,0.826732135728,0.556190413476,0.0234643924343,0.0813364739736,-0.0629983412111,-0.130915340511,-0.050653893482,0.0209420861956,0.0270435573742,-0.175344650399,-1.19853913784,0.517592787743,0.80963075161,-0.00713369250298,-0.206744134426,-0.0779321491718
2017/07/09/10:02:31.895379,413656,1499565754,699310902,,0.80572290139,-0.0916451685437,0.100202233904,0.82710522168,0.555741934708,0.0233650957761,0.0806345247176,-0.0633153767623,-0.107840612411,-0.05720221039,0.0419966844195,0.0435480465353,-0.163539055736,-1.27088880539,0.829761147499,0.32424902916,-0.191343933344,-0.188453614712,-0.147281184793
2017/07/09/10:02:31.905619,413657,1499565754,709310071,,0.805090377641,-0.0929515608364,0.100115933291,0.827523354433,0.555118721325,0.0229405582981,0.0807591102395,-0.0595603390998,-0.104757861924,-0.0643882095271,0.0403789137757,0.0332802796323,-0.158978123561,-1.83455407619,0.824972510338,0.682628691196,-0.187078461051,-0.338623344898,-0.084483243525
2017/07/09/10:02:31.915413,413658,1499565754,719311700,,0.804481047455,-0.0944745260027,0.0994279080191,0.828169372615,0.554168241106,0.0229805561584,0.0806532383153,-0.0502277791694,-0.0989711820534,-0.0546141548545,0.0387317021918,0.0153971323329,-0.133995329081,-1.39798879623,0.606601834297,0.366982132196,-0.031161390245,-0.223943859339,-0.0858858078718
2017/07/09/10:02:31.925541,413659,1499565754,729309160,,0.804096770584,-0.0947642712606,0.0987652690061,0.828176029791,0.55420756059,0.022805751176,0.0803638051492,-0.0424243853689,-0.0946725636851,-0.0523950358399,0.0239351793819,0.0130038473453,-0.135085332262,-1.43746435642,0.752872288227,0.120276659727,0.0214911550283,-0.298276215792,-0.0464277714491
2017/07/09/10:02:31.935493,413660,1499565754,739310352,,0.803336437077,-0.0966224086769,0.0983907140409,0.829017223663,0.55294169521,0.0226744855162,0.0804474503955,-0.0610727357996,-0.126018898786,-0.0475317732642,0.00109140809528,0.0215776551423,-0.149453604007,-1.30111908913,0.199405387044,0.128287196159,0.00903248786926,-0.231372281909,-0.106270477176
2017/07/09/10:02:31.945104,413661,1499565754,749307082,,0.802665548969,-0.0969557922116,0.0979791886143,0.82924361205,0.552698923652,0.022324756191,0.0798782631846,-0.0428073721384,-0.09690319163,-0.0517858027978,0.0221901482468,0.00559135389131,-0.137719766598,-1.48492121696,0.778794527054,-0.0988654345274,-0.102647230029,-0.342290014029,-0.0797838568687
2017/07/09/10:02:31.955443,413662,1499565754,759307118,,0.80255054733,-0.0977040784419,0.0974182417022,0.829357732923,0.552500208891,0.0226282226017,0.0799827078742,-0.0494678597035,-0.0756354342285,-0.0649495904193,0.0321113770229,0.0368147489473,-0.120681686326,-1.46043968201,0.672358989716,0.22008818388,-0.186435312033,-0.438694596291,-0.0809264481068
2017/07/09/10:02:31.965746,413663,1499565754,769326467,,0.802159623779,-0.0987922936043,0.096737123065,0.829755342595,0.551906131711,0.0225535109477,0.0799814500916,-0.0479495307823,-0.10736432757,-0.0451216700252,0.0156562454234,-0.00115211509759,-0.143946519892,-2.54138660431,1.30483615398,0.138193920255,-0.298885166645,-0.874891161919,-0.0695941448212
2017/07/09/10:02:31.975325,413664,1499565754,779311050,,0.802012418522,-0.099449068939,0.0967944231408,0.829999836362,0.551514454637,0.0227763087536,0.0800831925286,-0.0399712171105,-0.0983222003841,-0.0386737950288,0.0326403535083,-0.0232420527639,-0.152540751094,-2.45467591286,1.22044098377,0.678871750832,-0.225400060415,-0.861961364746,-0.0151559337974
2017/07/09/10:02:31.985162,413665,1499565754,789318938,,0.801702689091,-0.100095327102,0.0964927374559,0.830299076505,0.551073435571,0.0227890981572,0.0800135561517,-0.0305366527279,-0.0590162058228,-0.0550828560984,0.0221252182367,0.0112342375871,-0.0764180087851,-1.76893699169,1.0630428791,0.278945982456,-0.197556838393,-0.64414960146,-0.0549804419279
2017/07/09/10:02:31.995342,413666,1499565754,799310123,,0.801191281371,-0.101223002017,0.0958717877784,0.830634888722,0.550581535492,0.0225854571464,0.0799721922824,-0.0262319051364,-0.0550623879497,-0.0456008346742,0.0161525507,0.00992470907754,-0.0688016550522,-1.67550456524,0.255396723747,-0.115282990038,-0.00967517495155,-0.487323731184,-0.0354924947023
2017/07/09/10:02:32.005524,413667,1499565754,809303732,,0.800519942464,-0.101996366619,0.0952304414204,0.831018389405,0.55006435359,0.0222568062618,0.0796384200975,-0.0373461696445,-0.0920446817356,-0.0398819511125,0.0112301709579,-0.0100352771757,-0.126743317566,-1.47717571259,0.237356767058,0.00937426276505,0.100052699447,-0.387363940477,-0.0424777120352
2017/07/09/10:02:32.015476,413668,1499565754,819313812,,0.800871065156,-0.102203804451,0.0949513609361,0.831005095127,0.550041071324,0.022818945836,0.0797787405311,-0.0197685205307,-0.056566636757,-0.0347523723769,0.0106306996696,-0.0119555405868,-0.0837251504698,-1.34156644344,0.336525738239,0.0138506740332,0.15786331892,-0.366706997156,-0.000315792858601
2017/07/09/10:02:32.026124,413669,1499565754,829306496,,0.800805140192,-0.102907674219,0.0949246028355,0.831542818048,0.549179271288,0.0229373879024,0.0800783739577,-0.0308369078472,-0.068797439122,-0.0420243549642,0.00234394161463,0.0115225193249,-0.091129402026,-1.7064589262,0.579287111759,0.343261688948,-0.0300371497869,-0.4806419909,-0.0417016148567
2017/07/09/10:02:32.035228,413670,1499565754,839310011,,0.799964904884,-0.10379687705,0.0942174614978,0.8315877925,0.54917390585,0.0223228551598,0.0798213920905,-0.0445015867808,-0.0708362720154,-0.0456910751976,0.0044832224441,0.0432755683708,-0.103023751934,-2.58472824097,0.937928557396,-0.0820021629333,-0.0979753062129,-0.767808020115,-0.0204809606075
2017/07/09/10:02:32.045343,413671,1499565754,849311615,,0.799483747772,-0.103838951348,0.0939119676761,0.831819358447,0.548917750331,0.0222749758419,0.0791813345182,-0.0455683542655,-0.0630480636407,-0.0359518385187,0.0297533774234,0.0394939477104,-0.0769529574561,-3.29582810402,1.43486905098,0.373990684748,-0.310776174068,-1.07397782803,-0.0147960111499
2017/07/09/10:02:32.055157,413672,1499565754,859310160,,0.799269560179,-0.10392667178,0.093154507042,0.831903965495,0.548843304399,0.0222949190861,0.0788020050057,-0.0500656004405,-0.0577900094911,-0.0333944743327,0.0348729043117,0.0580307272807,-0.0790201414622,-2.92429351807,1.71479010582,0.136186107993,-0.430812448263,-0.997831523418,-0.0507115833461
2017/07/09/10:02:32.065250,413673,1499565754,869304523,,0.798578092492,-0.103922576609,0.0928984954025,0.8317789968,0.549134359389,0.0216586422795,0.0782691448508,-0.0458569938797,-0.0343558680527,-0.0386446821571,0.0575817843047,0.0592214723782,-0.0740291740529,-1.55290484428,1.06393194199,0.286649823189,-0.0660820528865,-0.487245500088,-0.059169061482
2017/07/09/10:02:32.075237,413674,1499565754,879303302,,0.798527771357,-0.104214914901,0.0929307468688,0.83223913432,0.548451995797,0.0219621632036,0.0780774935484,-0.0306197749156,-0.0116907704993,-0.0330944308795,0.0443794642575,0.0569088635129,-0.0385518726399,-0.73527264595,0.24261943996,0.438858956099,0.119527384639,-0.213564962149,-0.0462729260325
2017/07/09/10:02:32.085003,413675,1499565754,889310789,,0.797995162022,-0.105035585204,0.0925918484618,0.832330121474,0.548325906414,0.0214168478263,0.078144659901,-0.0705091695022,-0.0409507490535,-0.0478957261696,0.0557862962538,0.115352084109,-0.0886770538381,-0.687390446663,0.00268942117691,0.309640228748,0.197375580668,-0.331845998764,-0.0466636195779
2017/07/09/10:02:32.095295,413676,1499565754,899303042,,0.797508050852,-0.105770944271,0.0920992946676,0.83297233379,0.547394856752,0.0213652113866,0.0778427240245,-0.0403158840483,-0.0507813810008,-0.0232925659682,0.0443202683183,0.0304909975777,-0.0954772614682,-1.02225482464,0.123625412583,0.0979987680912,0.167367532849,-0.438332885504,0.00105606764555
2017/07/09/10:02:32.105417,413677,1499565754,909305985,,0.797585168134,-0.104584737992,0.09189191256,0.832622669568,0.548015006516,0.0216240421764,0.0771455997103,-0.0278091012941,-0.034987724275,-0.0213802592222,0.0335354230111,0.0221655922806,-0.0748532481387,-1.15509498119,1.35018205643,0.0552533343434,-0.241155058146,-0.485293537378,-0.0819181352854
2017/07/09/10:02:32.115697,413678,1499565754,919306433,,0.797401328231,-0.10484281568,0.0914806637653,0.832768946959,0.547822450314,0.0215633076434,0.0769510732647,-0.00516960567053,-0.019652144813,-0.0234912357883,0.0015941565631,0.00449111123194,-0.0183818467926,-0.371806144714,1.40194058418,-0.0194659605622,-0.265731692314,-0.174009904265,-0.127579957247
2017/07/09/10:02:32.125663,413679,1499565754,929310988,,0.796492232226,-0.106159517802,0.0908591973257,0.833291240261,0.547066982811,0.0209458029438,0.0768420364223,-0.0163371952987,-0.0257263130002,-0.0297325430991,-0.00265587896907,0.025124852855,-0.0337473734776,-1.64421486855,0.566705822945,-0.503335595131,-0.21206253767,-0.509163856506,-0.0895311161876
2017/07/09/10:02:32.135304,413680,1499565754,939310893,,0.796528857238,-0.106197064882,0.0909091919655,0.833061973587,0.547398331275,0.0207886538216,0.0770106937602,-0.0223642022474,-0.0283284767474,-0.0239090450782,0.0137615250134,0.02527868206,-0.0384609045496,-1.72661316395,0.710955321789,-0.0145280770957,-0.144748389721,-0.588383972645,-0.0589827224612
2017/07/09/10:02:32.145238,413681,1499565754,949310959,,0.796638383535,-0.10753154933,0.0914128320283,0.833379262694,0.546801973697,0.0210198866709,0.0777481217613,-0.0285080603613,-0.0583993993711,-0.0259988893506,-0.0338629560238,0.0266683407827,-0.0406559554532,-2.75377011299,0.119538091123,0.657250165939,-0.0244576111436,-1.04503393173,0.0392065942287
2017/07/09/10:02:32.155175,413682,1499565754,959306383,,0.796385790885,-0.106987074115,0.090570613323,0.83297935091,0.547458574082,0.0203750856371,0.0775845764704,-0.0359476928322,-0.0700218130904,-0.0135061497107,-0.06535691946,0.0442931415569,-0.0371035002277,-2.76001119614,1.44087660313,0.459584474564,-0.341239631176,-1.00493299961,-0.0388862788677
2017/07/09/10:02:32.165134,413683,1499565754,969307614,,0.795786229065,-0.107492327749,0.0902516064346,0.8331881022,0.54722172333,0.020029253569,0.0771025347755,-0.0193111816821,-0.0409183918864,-0.0170342061498,-0.0617597439463,0.0344925547177,0.000788838030016,-2.5727660656,1.28056538105,0.627491533756,-0.386665463448,-0.904151082039,-0.0854594856501
2017/07/09/10:02:32.175333,413684,1499565754,979309729,,0.795649522698,-0.108056750552,0.0907011926104,0.832905052681,0.547579950781,0.0194782835829,0.0777558177228,-0.0345180674399,-0.031730419384,-0.0368834955851,-0.0322448264447,0.0694858569489,0.00275407001664,-2.1164419651,1.19654905796,1.15696263313,-0.241557791829,-0.766958653927,-0.0661936923862
2017/07/09/10:02:32.185219,413685,1499565754,989304182,,0.795238750938,-0.108966514506,0.0904179292391,0.833342881762,0.546901263476,0.0192303944853,0.077902768581,-0.0174300976138,-0.0262817501761,-0.00589850978564,-0.051157563696,0.0367100456736,-0.000282269805755,-1.53711521626,0.511053204536,0.969821691513,-0.116866931319,-0.485436350107,-0.0800912305713
2017/07/09/10:02:32.195164,413686,1499565754,999307755,,0.795226201363,-0.108805135818,0.0901745840109,0.833369233065,0.546881279895,0.0191754467816,0.0777746058971,-0.0435935465937,-0.061613857805,-0.0127785221575,-0.060428319103,0.0679605970057,-0.0481206829346,-2.22891926765,0.676865816116,0.743539094925,-0.0228742882609,-0.824619531631,-0.00937665253878
2017/07/09/10:02:32.206065,413687,1499565755,9322886,,0.794911647175,-0.109244436918,0.0898776422036,0.833262943187,0.547045454784,0.0186473243093,0.0778871954071,-0.0220773997073,-0.0323877293414,-0.01848308063,-0.0443258813291,0.0473115002621,-0.00158199163741,-1.91624701023,0.916391432285,1.08481550217,-0.0815602615476,-0.72445577383,-0.0256363227963
2017/07/09/10:02:32.215178,413688,1499565755,19305027,,0.795118177604,-0.108738493381,0.090068889605,0.833122043727,0.547264683175,0.0189182341943,0.0777889916405,-0.00639200585552,-0.0193689181089,-0.00903324967012,-0.0306353946636,0.0129721817497,0.00118388183948,-1.29371714592,0.957746863365,1.13717889786,-0.130298659205,-0.481214553118,-0.0547058731318
2017/07/09/10:02:32.225218,413689,1499565755,29303973,,0.794619579901,-0.108992133218,0.089591566979,0.833319491756,0.547029905455,0.0183549254474,0.0774596921619,-0.00453524954261,0.00399971946059,-0.0102243683357,-0.0215761342772,0.0279822766382,0.0247539033922,-2.54092144966,1.18576049805,0.756711602211,-0.265581458807,-0.902459859848,-0.0195765048265
2017/07/09/10:02:32.235259,413690,1499565755,39307261,,0.794581498456,-0.109962765416,0.0898090999603,0.833393668005,0.546821577394,0.0179920400345,0.0782140851774,-0.0120136743898,-0.0263663272735,-0.0011441693988,-0.0486314646939,0.0278873137306,0.00021918895117,-2.1094186306,0.43315166235,0.970876038074,-0.114161469042,-0.706904411316,-0.0238921567798
2017/07/09/10:02:32.245239,413691,1499565755,49303833,,0.794674871373,-0.109109298396,0.0896385481088,0.832936860801,0.547556472982,0.0176560922762,0.0780151089211,-0.00563621288796,-0.0127928572743,-0.0131571155227,-0.0577366329816,0.0389061235703,0.0346677491636,-2.05473065376,0.9995226264,1.04357755184,-0.133941039443,-0.777989923954,-0.00821972638369
2017/07/09/10:02:32.255485,413692,1499565755,59306609,,0.794504201464,-0.109977841274,0.0895212933892,0.832832183119,0.547666091816,0.0173171543968,0.0784380188361,-0.00483483615768,-0.00694385100717,-0.00233296422878,-0.0551696912605,0.0287391244301,0.0203006286556,-1.49387443066,-0.0698790997267,0.462027907372,0.0556609928608,-0.509732723236,-0.0306515097618
2017/07/09/10:02:32.265388,413693,1499565755,69311067,,0.794814597674,-0.110241689909,0.0899104889635,0.832968969394,0.547383471398,0.0174861046248,0.078919372853,-0.0164872946472,-0.00960356460068,-0.0133778176992,-0.0561013066758,0.0573401923784,0.0380842175132,-0.236216112971,0.134197562933,0.537229478359,0.127312511206,-0.186899229884,-0.0423722825944
2017/07/09/10:02:32.275307,413694,1499565755,79327428,,0.794082361974,-0.110442287112,0.0896492602916,0.832958603963,0.547473340058,0.0168808151254,0.0785362597239,-0.00359235739539,-0.0145089170649,0.00575115272207,-0.0626908083482,0.0202127572182,0.0218432348079,-1.05223882198,-0.365346550941,0.306558936834,0.220067739487,-0.318252652884,-0.0270967110991
2017/07/09/10:02:32.285349,413695,1499565755,89311099,,0.794289417094,-0.109845077943,0.0893115814122,0.832756104042,0.54779373329,0.0168634364703,0.0784533075128,-0.00846811647864,-0.00739502181168,0.00149199049435,-0.0458957237891,0.0315525200573,0.0217362132027,-0.522065162659,0.0190297365189,0.256256818771,0.129135429859,-0.194256275892,-0.0520788952708
2017/07/09/10:02:32.295501,413696,1499565755,99319063,,0.794540570788,-0.109257814695,0.0895408379577,0.832290088364,0.548495203541,0.0166820495969,0.0785361682574,-0.00900877056497,-0.00340668309734,-0.0140270809485,-0.0269798721389,0.0317336172357,0.0195243900826,0.0294425562024,0.441128432751,0.563589990139,0.127036273479,-0.0977174043655,-0.0651805400848
2017/07/09/10:02:32.305396,413697,1499565755,109304854,,0.794339140034,-0.109885405496,0.0891833257505,0.832680466474,0.547911117711,0.016875288073,0.0784338733824,-0.00150983591596,0.00344250754762,-0.00521432935312,-0.00279621328708,0.0123811794698,0.00449365722755,-0.898273468018,-0.178657203913,0.609605908394,0.205755740404,-0.336608529091,0.00988829880953
2017/07/09/10:02:32.315372,413698,1499565755,119316240,,0.79475327815,-0.109593873716,0.0891168152599,0.83249916937,0.548156290797,0.0170393268452,0.0786096380758,-0.00263016187377,-0.00384671288872,0.00295698443554,-0.0163378080507,0.00871419470195,0.00468207295498,-0.33660146594,0.360715478659,0.143551856279,0.0875441431999,-0.220264822245,-0.0223318934441
2017/07/09/10:02:32.325297,413699,1499565755,129310369,,0.794538301317,-0.109698520435,0.0900127112386,0.832291832125,0.548445494288,0.0165795844003,0.0788857614107,0.00447167004272,-0.00159509678777,0.00464399100516,-0.00983231880281,-0.00648250092098,0.0166056610135,0.120578244328,-0.0684029757977,0.766238570213,0.136139541864,-0.048188470304,-0.0680218935013
2017/07/09/10:02:32.335459,413700,1499565755,139311025,,0.794159970784,-0.110102081071,0.0892021611401,0.832451086699,0.548237660238,0.016188905255,0.0787310326206,-0.00352476425432,0.000867894737534,0.00456569675364,-0.0068306352786,0.0141788401741,0.00692592373528,-0.52759295702,-0.020272642374,0.0237168669701,0.0284587219357,-0.229492589831,-0.0595551989973
2017/07/09/10:02:32.345638,413701,1499565755,149306309,,0.794392356396,-0.109710856331,0.0896036300469,0.832340095673,0.548388069368,0.0163951538064,0.0788142718158,-0.0210146724401,-0.000599468151218,-0.0167615031191,-0.0101214779852,0.0578380926886,0.0171004700197,0.472539722919,0.438347160816,0.612652480602,0.0531554147601,-0.00754797458649,-0.102782376111
2017/07/09/10:02:32.355313,413702,1499565755,159314850,,0.79433962571,-0.109952420553,0.0897808526259,0.832283032041,0.548466885272,0.016349997064,0.0788778037998,-0.0146181320426,-0.00226655351392,0.0038381809157,-0.00752990397498,0.0352070894418,0.00127209124779,-0.0552344992757,0.041826158762,0.599106609821,0.110234044492,-0.162692725658,-0.0630219429731
2017/07/09/10:02:32.365188,413703,1499565755,169311938,,0.794127026014,-0.110398633734,0.0894556615612,0.832495214257,0.548138847341,0.016112749057,0.078967725007,-0.000208324615191,-0.00747935403131,0.0115873760889,-0.0309080560092,0.00261385070812,0.0129652025772,-0.0699931234121,-0.335028588772,0.222251147032,0.186193138361,-0.165180966258,-0.0593284070492
2017/07/09/10:02:32.375245,413704,1499565755,179316419,,0.793908378398,-0.109539790902,0.089024574956,0.83244282685,0.548340978557,0.0161457340797,0.0781052273001,-0.00844965555719,-0.0194697218142,-0.00100000356288,-0.0163033447135,0.00697407104509,-0.0251352735499,0.325562536716,-0.053852468729,0.149778991938,0.217858493328,-0.0282561983913,-0.0501376613975
2017/07/09/10:02:32.385517,413705,1499565755,189308173,,0.794505436129,-0.109690759751,0.0899687082777,0.832450399499,0.548232738478,0.0167752765848,0.078649773869,0.00899061041517,-0.0013894567868,0.000329033077612,0.0112821566885,-0.0250021042725,-0.00744056755293,0.95531475544,-0.285136282444,0.00745997391641,0.33004039526,0.173564776778,-0.0528245717287
2017/07/09/10:02:32.395517,413706,1499565755,199305379,,0.794246107955,-0.110596946586,0.0896757268957,0.83271753247,0.547784182408,0.0164968359437,0.0790054113588,0.00198452634086,-0.00778464517403,0.00070358994651,-0.00696509446451,-0.0131186296894,-0.0105202963806,-0.0177932791412,-0.685591876507,-0.318221390247,0.242084741592,-0.0542819797993,-0.0687478780746
2017/07/09/10:02:32.405223,413707,1499565755,209311410,,0.794087946423,-0.110476662905,0.0898538396303,0.832637732028,0.547919722516,0.0160629796885,0.0789959844853,-0.00178352195964,-0.00746367513786,0.0045167612541,-0.0155550331025,0.00310471331091,0.00257724346192,1.06324803829,-0.460615694523,0.0409800186753,0.300219714642,0.284861773252,-0.0857874304056
2017/07/09/10:02:32.415376,413708,1499565755,219317277,,0.794131379176,-0.110665913626,0.0898656358897,0.832552164658,0.548036516076,0.0162824949624,0.0790427133195,0.0134847389249,0.0111557361495,0.00301631458552,-0.00257349102233,-0.013124485768,0.0148074183338,0.960671901703,-1.19561004639,-0.328178912401,0.306947261095,0.343164294958,-0.119636252522
2017/07/09/10:02:32.425166,413709,1499565755,229303916,,0.794525301896,-0.109745548839,0.0900447225595,0.832446487327,0.548214771873,0.0167291653653,0.0788260405096,0.00765771552615,-0.0178004193747,0.0128839556573,-0.0247938129501,-0.0307026156552,-0.0119361069359,0.472965300083,0.106832236052,-0.0143778659403,0.148124814034,0.075253687799,-0.0815483778715
2017/07/09/10:02:32.435290,413710,1499565755,239316839,,0.794243317728,-0.110096611074,0.0897714443955,0.832423046799,0.548266120361,0.0164809256241,0.0787687216658,-0.00675642521658,-0.00454806165482,0.000968764318879,0.00599228381958,0.00564191148891,-0.00368681470751,1.00486755371,-0.253229320049,-0.234441235662,0.292039245367,0.286265462637,-0.0942684561014
2017/07/09/10:02:32.445218,413711,1499565755,249309956,,0.794080855546,-0.110742073912,0.0897410935956,0.8326939798,0.547809141355,0.0161862757777,0.079144710054,0.0188323080138,0.0174215254359,0.00433706533649,-0.00202878784229,-0.0308395868917,0.0271445801026,0.510611772537,-0.790433704853,-0.28659504652,0.286603748798,0.245897263288,-0.069425418973
2017/07/09/10:02:32.455263,413712,1499565755,259303043,,0.79452540773,-0.10965387707,0.0895167576851,0.832279083862,0.548475459391,0.0164257096946,0.0788441061437,0.000536368350349,0.00648407578976,-0.0105730815633,0.00950684265519,0.00311019036694,0.0134872694691,0.523218631744,-0.187864005566,-0.247840225697,0.134363651276,0.182188257575,-0.139380052686
2017/07/09/10:02:32.465690,413713,1499565755,269328951,,0.794479527488,-0.109997419839,0.0898021713464,0.832267673372,0.548465096394,0.016468927988,0.079027414922,0.00616552356835,0.00852105031909,-0.00203999168056,0.00113465210226,-0.00577066642589,0.0227270637853,0.299925297499,-0.599895954132,0.104216963053,0.296194285154,0.15495686233,-0.0889052897692
2017/07/09/10:02:32.475379,413714,1499565755,279317697,,0.79444424489,-0.110459696718,0.0896547826796,0.832582411923,0.547972106012,0.0166115952582,0.0791021699589,0.00458753613237,0.000642379891738,0.00127221795151,0.00149673140384,-0.00904654364816,-0.00524125422061,-0.422789126635,-0.803157746792,-0.229746311903,0.268590271473,-0.10063354671,-0.0579979866743
2017/07/09/10:02:32.485467,413715,1499565755,289304841,,0.794397147316,-0.11091970228,0.089687465273,0.832637118571,0.547851799654,0.0165702376248,0.0793678878349,0.00364115804899,-0.0266950108412,0.0154801805534,-0.0213170562818,-0.0322793418205,-0.0378571029534,-0.423994064331,-0.599482297897,0.034189004451,0.319343268871,-0.129602238536,-0.0301584154367
2017/07/09/10:02:32.495279,413716,1499565755,299316136,,0.794534394167,-0.110464413007,0.0898044712737,0.832747660447,0.54769323569,0.0167340200418,0.0792680652761,0.00981891894544,-0.00239857617208,0.0112200126508,0.000585309027513,-0.0324453362767,-0.0168155403971,0.18709564209,-0.027462258935,-0.224602505565,0.0342817008495,0.093082562089,-0.119501486421
2017/07/09/10:02:32.505477,413717,1499565755,309305390,,0.794522887906,-0.110462012665,0.089984516488,0.832487782405,0.548066087449,0.0165500900373,0.0794591118378,-0.0044499512043,0.0193435814491,-0.0128858129418,0.025745545776,0.0245302527905,0.00628903971838,0.242658853531,-0.583809196949,-0.191293641925,0.23259049654,0.171430319548,-0.114655919373
2017/07/09/10:02:32.515331,413718,1499565755,319311143,,0.79449095022,-0.110275027729,0.0897924979527,0.832412953721,0.548215225234,0.0164538737888,0.0792339027028,0.00573080123283,0.00863932907278,0.0081340538117,-0.00477865819655,-0.003056624657,0.0239814269108,0.329043507576,-0.415373325348,-0.42843362689,0.273372113705,0.156150624156,-0.074315994978
2017/07/09/10:02:32.525364,413719,1499565755,329307364,,0.794479527488,-0.109997419839,0.0898021713464,0.832372824936,0.548305500984,0.0164840810022,0.0790242555919,0.00073866777761,-0.0144607997239,0.00799878773003,-0.0446649967127,0.00277932147318,0.0244704565853,0.063845731318,-0.308298408985,-0.156573206186,0.232219740748,-0.00028283149004,-0.0537334419787
2017/07/09/10:02:32.535353,413720,1499565755,339307224,,0.794853606914,-0.10999208621,0.0904091195823,0.832357313772,0.548280181429,0.0167871234039,0.0792990375146,0.00600429973535,-8.00534567331e-05,0.0023001637897,0.00696531233808,-0.0168128814422,-0.0105799603394,0.897447407246,-0.427272498608,0.144800424576,0.355842530727,0.330625474453,-0.0876822173595
2017/07/09/10:02:32.545468,413721,1499565755,349309869,,0.794615578786,-0.109658506398,0.0896663461347,0.832234233063,0.548515954835,0.016517790399,0.0790163983604,-0.0092441963686,0.00458372485391,-0.015157341882,0.016207344648,0.0211354879373,-0.00540429625559,0.131800740957,-0.438458323479,-0.241918936372,0.190542310476,0.096054404974,-0.0991691052914
2017/07/09/10:02:32.555551,413722,1499565755,359311006,,0.794780725473,-0.109513208688,0.0896013491334,0.832257775926,0.548490847225,0.0168284154394,0.0788770521436,0.0004377249885,-4.36156287041e-05,0.00190165345268,-0.00214917346418,-0.00137103611257,0.00848391353042,0.380361378193,-0.169935017824,-0.130917221308,0.16766422987,0.206918358803,-0.128193095326
2017/07/09/10:02:32.565416,413723,1499565755,369307986,,0.794655379888,-0.110246233353,0.0894744495462,0.832502782234,0.548080196296,0.0166801505639,0.0791769447386,-0.00480839723698,0.00159824306707,-0.00923805835713,0.00177794468061,0.0126556412349,-0.00661792014535,0.291835427284,-0.391405463219,-0.0449736490846,0.274949580431,0.15982311964,-0.0720567852259
2017/07/09/10:02:32.575038,413724,1499565755,379310643,,0.794842658823,-0.1097148025,0.0897161451251,0.832471416267,0.54814898607,0.016939773903,0.078975149445,0.00648745862267,0.00957438781635,-0.0028300221857,0.0113845265724,-0.00956232307925,0.00412869108209,0.662099838257,-0.19479803741,0.399068295956,0.312285214663,0.267499923706,-0.0768901482224
2017/07/09/10:02:32.585214,413725,1499565755,389304183,,0.794765364329,-0.109938415301,0.0890019640643,0.832190753919,0.54856009177,0.0165911905156,0.0791524301999,0.0201265961744,0.0155135916581,0.00205088480042,-0.00699716871863,-0.0238288040001,0.0522338717951,-0.229235947132,-0.721466183662,-0.160674080253,0.27164465189,0.118989415467,-0.0980266258121
2017/07/09/10:02:32.595267,413726,1499565755,399303076,,0.795124500602,-0.109271544909,0.0894614032178,0.832011941287,0.548837025826,0.0168392959919,0.0790600199136,0.0142606042482,0.00680471590583,-0.00109670506377,0.00734925822874,-0.0301250496267,0.00951968645119,0.275740265846,0.122699379921,0.0780326873064,0.15317825973,0.245610386133,-0.116776242852
2017/07/09/10:02:32.605432,413727,1499565755,409307832,,0.794678303322,-0.109651802808,0.0895061068425,0.832214093537,0.548544860306,0.0164101887894,0.0790502653699,0.000496140449795,0.00741343785843,-0.00521531021316,0.00139329460532,0.00771541800004,-0.00478584563014,0.386368185282,-0.341889739037,0.46251052618,0.217138528824,0.305506527424,-0.121544793248
2017/07/09/10:02:32.615286,413728,1499565755,419311513,,0.794202548835,-0.110407635456,0.0889611103228,0.832641965455,0.54792513044,0.0163542860074,0.0788539543987,-0.0248956477944,-0.0159427394418,-0.021984802988,0.000127894702063,0.0496283690454,-0.0362698583391,5.12293100357,0.121822327375,-0.0572599805892,-0.111011624336,2.12291264534,-0.38163715601
2017/07/09/10:02:32.625389,413729,1499565755,429310162,,0.794472610298,-0.109895466073,0.0889912856344,0.832586554264,0.548013562199,0.0165332430743,0.0787871637853,-0.0074509087805,-0.00086159356824,-0.0102438475748,0.0264164710078,0.0118873614308,-0.0155939498997,5.05260848999,0.0111678689718,0.0523637123406,-0.0685559436679,2.0904314518,-0.374402314425
2017/07/09/10:02:32.635291,413730,1499565755,439312398,,0.794740969732,-0.109707788921,0.0890437926964,0.832410649951,0.548259712231,0.0167863694941,0.0788797540104,-0.00374325090549,0.0104560374884,-0.00563251683909,0.0128157218872,0.0138006460359,0.000586309709371,4.35136985779,-0.360892593861,-0.0204244907945,0.0444908738136,1.81340432167,-0.334467202425
2017/07/09/10:02:32.645370,413731,1499565755,449304225,,0.794977227808,-0.109700469679,0.0896027062934,0.832422626841,0.548197852043,0.0170778161055,0.0791203737101,0.00564001608755,0.00273077514067,0.00486195191566,-0.0099457187499,-0.0106575597154,0.0152303318986,4.27197933197,-0.526267647743,-0.0534957535565,0.0213652476668,1.83967363834,-0.385197162628
2017/07/09/10:02:32.655369,413732,1499565755,459312213,,0.794634699439,-0.1096171432,0.0890177446377,0.832417647198,0.548270016096,0.0170396849425,0.0786797256018,0.00346887731627,0.00297079754225,-0.00363668887804,0.0156206454564,-0.0162441953961,-0.00595843008408,4.56829595566,-0.573472499847,-0.0612989626825,0.0551742017269,1.91968345642,-0.369900554419
2017/07/09/10:02:32.665735,413733,1499565755,469315807,,0.795092638121,-0.109422610352,0.0891380153537,0.832144138011,0.54863532192,0.0170433559143,0.0790249399544,0.00534008480727,-0.000485190740381,0.00759951486003,-0.00110044188052,-0.0193373485442,0.0184569377182,4.42470359802,-0.540125727654,-0.0806277245283,0.101994246244,1.84447419643,-0.327153891325
2017/07/09/10:02:32.675565,413734,1499565755,479332747,,0.794506736868,-0.109641367789,0.0887113069618,0.832239337314,0.548552576841,0.0166715880712,0.0786753711098,0.00314775409869,-0.00423728835797,0.000867546353895,-0.0396828758992,0.00788538886128,0.0150428256856,4.04360103607,-0.419464498758,0.000224776566029,0.0220912098885,1.72116518021,-0.350612431765
2017/07/09/10:02:32.685129,413735,1499565755,489302887,,0.794578629344,-0.109266311452,0.0887627474963,0.832213720991,0.548612914055,0.0167207237792,0.0785150337367,0.00178838418862,0.0116443513318,-0.00269173878335,0.029115731598,-0.000323073475697,0.000977897095752,3.69579315186,-0.302259832621,-0.159479290247,0.0329775437713,1.50447154045,-0.266792953014
2017/07/09/10:02:32.695379,413736,1499565755,499309535,,0.795536577582,-0.109512744778,0.0896929676369,0.832259165547,0.548390050649,0.0173421833948,0.0794498734279,-0.00203272175518,-0.00883332141168,-0.0038446432869,-0.00584073246291,0.00178281995116,-0.0121056722018,3.09263491631,0.16888615489,-0.0262559875846,-0.113913118839,1.31615936756,-0.291583418846
2017/07/09/10:02:32.705709,413737,1499565755,509306380,,0.794853391737,-0.110108829679,0.0894535070928,0.832367568802,0.548268045506,0.0167948485429,0.0792736636385,0.0242746546623,-0.00507435310722,0.0148122764271,-0.0109431888677,-0.0589951775388,-0.00491938544343,3.00732898712,-0.0780133530498,-0.118999965489,-0.0598219670355,1.32202029228,-0.285367667675
2017/07/09/10:02:32.715363,413738,1499565755,519310372,,0.795004622256,-0.110431515086,0.0894654272853,0.832392084252,0.5481760262,0.0168834719104,0.0796329752733,-0.0041725984365,-0.00666106672968,-0.00587915172839,-0.0107125291511,0.00631348366729,0.0138204595271,2.53011393547,-0.107410088181,-0.127356186509,0.0126920938492,1.15806484222,-0.256069481373
2017/07/09/10:02:32.725219,413739,1499565755,529310381,,0.794969596735,-0.110082125462,0.0892373646939,0.832545111523,0.547977181016,0.0171170041825,0.0793514620652,0.00476583551298,0.00192455283925,-0.00105896812578,-0.0045536072675,-0.0111170491118,0.0102241818703,2.34738111496,-0.786803543568,0.0762546658516,0.398100435734,1.09159648418,-0.166734665632
2017/07/09/10:02:32.735268,413740,1499565755,539308291,,0.794668999862,-0.110082852347,0.0889925662245,0.83254117589,0.548039871233,0.0167523054692,0.0790370182212,0.0149630628823,-0.000671376763031,0.00346020177668,-0.00152760143522,-0.0408693651119,-0.0149660265163,1.97189056873,-0.763431191444,0.0331130623817,0.424568414688,0.949339747429,-0.119656279683
2017/07/09/10:02:32.745370,413741,1499565755,549304363,,0.794762949772,-0.110471675896,0.0892995835356,0.832514256364,0.548027654812,0.0169143797505,0.0793700590196,0.00399482888325,-0.0181027205363,0.00724007435155,-0.00255740369267,-0.0327619419695,-0.0416042231652,2.00406098366,-0.654739797115,0.0889838412404,0.358328133821,0.998582780361,-0.169562578201
2017/07/09/10:02:32.755386,413742,1499565755,559304769,,0.794923530539,-0.110058400318,0.088824374711,0.832375978396,0.548264314208,0.0170405340837,0.0791586543225,-0.0137945785736,-0.00384411330544,-0.00573578998925,0.0108141326738,0.0221589427792,-0.00489377812808,2.58922123909,-1.14538908005,-0.0612379945815,0.541932880878,1.17054867744,-0.134956285357
2017/07/09/10:02:32.765410,413743,1499565755,569312319,,0.794815862872,-0.10992520787,0.0888249635117,0.832581097293,0.547993678145,0.0172168136865,0.0788367076276,0.000662374872096,-0.00145333728497,0.00861232038595,0.00214211962743,-0.00424001226525,0.00320161527071,2.17781424522,-0.87360650301,-0.192654520273,0.376510441303,0.986065387726,-0.133679270744
2017/07/09/10:02:32.775097,413744,1499565755,579310374,,0.795378444467,-0.109455656967,0.0895687889319,0.832185622273,0.548530982368,0.0173615873612,0.0792428340478,-0.00212544402213,0.00671114855485,0.0111068221869,0.00640781087118,0.00135412532548,-0.000656685914916,2.00755691528,-0.912248849869,-0.0621653608978,0.425241053104,0.930108845234,-0.103393211961
2017/07/09/10:02:32.785193,413745,1499565755,589303733,,0.794685799448,-0.110482823369,0.0895186726794,0.832676946415,0.547806020945,0.017064473139,0.0791610389121,-0.0114973393741,-0.0277535793023,0.00612112532676,0.000167680520852,-0.00668990734128,-0.0457006166964,2.21911501884,-0.928853452206,-0.19716244936,0.432117730379,0.966408729553,-0.121962733567
2017/07/09/10:02:32.795255,413746,1499565755,599307689,,0.794786523572,-0.110606302435,0.0892355103029,0.832853010465,0.547523122551,0.0172407921182,0.0792278254063,-0.0107685954342,-0.0294290396418,0.00888342537386,-0.0111741518494,-0.00409051836497,-0.0371833395065,2.47347640991,-0.989306569099,-0.164610534906,0.40248131752,1.09690892696,-0.174587309361
2017/07/09/10:02:32.805410,413747,1499565755,609308862,,0.794961967352,-0.110188698119,0.0894044164797,0.832417958311,0.548174243027,0.0172020136644,0.0793059435928,-0.0022827889449,-0.00946875156906,0.00298777464017,-0.00852907633064,-0.000884462257126,-0.0126511753047,1.9531327486,-0.756013989449,-0.189485996962,0.371811807156,0.889705717564,-0.0999961346388
2017/07/09/10:02:32.815236,413748,1499565755,619304591,,0.794236382035,-0.111028099061,0.0891622449056,0.832729189969,0.547757934734,0.0167935710044,0.0790020068267,-0.00317053019359,-0.0136950777804,0.00547240214768,-0.00267671120288,-0.00815254866025,-0.00173768856895,1.43779027462,-0.352994352579,-0.221808686852,0.159249663353,0.707276821136,-0.155270129442
2017/07/09/10:02:32.825380,413749,1499565755,629311518,,0.794461563592,-0.110743382833,0.0897310359065,0.832805995324,0.547626688508,0.017130445042,0.0790299439399,-0.0121305125375,-0.0278835405876,-0.00485061575535,-0.0157866380756,0.00574032697267,-0.0276312440276,1.88888013363,-0.773244678974,-0.228898018599,0.395227879286,0.875897586346,-0.0909485369921
2017/07/09/10:02:32.835367,413750,1499565755,639308188,,0.794188739581,-0.110662974023,0.08926825883,0.832715096864,0.547802179847,0.0166776136085,0.0788682218204,0.000308855867199,-0.0201246329538,0.00461366223831,-0.00906328137429,-0.0179248780966,-0.0260306665755,0.402099460363,-0.124147228897,-0.136735275388,0.203460142016,0.295762449503,-0.053347222507
2017/07/09/10:02:32.845663,413751,1499565755,649309831,,0.794172760156,-0.111150973316,0.0890697560987,0.832815480643,0.547619015498,0.0168169230942,0.0790504912323,0.00345892586727,-0.0149413817494,0.0085351141442,-0.00902709512198,-0.0178935582592,-0.00321066115763,1.28981375694,-0.301729202271,-0.380825698376,0.137247979641,0.654596090317,-0.114000789821
2017/07/09/10:02:32.855201,413752,1499565755,659304843,,0.794486704957,-0.110828488288,0.0891123103177,0.832989576384,0.547344586011,0.0172609235433,0.0790210751484,-0.0117800047472,-0.0289338446811,-0.00541941056723,-0.0040658335673,-0.00224056404864,-0.0431477982225,1.22978675365,0.128157526255,-0.36229673028,-0.03460771963,0.627731859684,-0.165504708886
2017/07/09/10:02:32.865186,413753,1499565755,669304195,,0.794006253394,-0.112054472121,0.0891664896527,0.833313341493,0.546825667544,0.0170137072239,0.0792533782976,-0.00441353223196,-0.019708272774,-0.00975381272946,-0.000830254443414,-0.0118640797681,-0.0455489975488,1.31133890152,-0.297578275204,-0.48282495141,0.167534068227,0.64323168993,-0.107259005308
2017/07/09/10:02:32.875414,413754,1499565755,679309056,,0.79401421125,-0.112656813521,0.0898821185044,0.833288571626,0.546795598534,0.0169646016455,0.0797303713333,-0.0269111658929,-0.0095502754168,-0.0115449689888,0.0142520605348,0.047047714333,-0.0144976113981,1.6679033041,-0.430991947651,-0.490606665611,0.238382607698,0.773206472397,-0.110890269279
2017/07/09/10:02:32.885365,413755,1499565755,689309126,,0.794040351995,-0.111916730348,0.0893362257225,0.833193673801,0.546997829894,0.0169905726207,0.0793284089755,-0.0122178936601,-0.00992433324141,-0.00209033736952,-0.0019057231054,0.0207523016067,-0.0131278984402,0.864153146744,0.292475253344,-0.23005656898,-0.125345245004,0.486419528723,-0.15768776834
