time,.header.seq,.header.stamp.secs,.header.stamp.nsecs,.header.frame_id,.ch0,.ch1,.ch2,.ch3,.ch4,.ch5,.ch6,.ch7
2017/07/09/10:02:09.174827,156753,1499565729,174243927,0,58,279,190,80,47,62,145,89
2017/07/09/10:02:09.180702,156754,1499565729,180571079,0,62,284,179,77,46,60,147,94
2017/07/09/10:02:09.203439,156755,1499565729,203156948,0,63,284,178,73,46,62,152,100
2017/07/09/10:02:09.226128,156756,1499565729,225889921,0,71,283,164,58,40,63,139,95
2017/07/09/10:02:09.240801,156757,1499565729,240617990,0,70,288,160,58,35,63,130,95
2017/07/09/10:02:09.263752,156758,1499565729,263501882,0,73,320,181,66,44,79,135,107
2017/07/09/10:02:09.286229,156759,1499565729,285981893,0,79,300,183,71,49,81,138,104
2017/07/09/10:02:09.301172,156760,1499565729,300945043,0,82,330,192,99,64,88,142,115
2017/07/09/10:02:09.323426,156761,1499565729,323178052,0,77,367,216,105,75,110,173,126
2017/07/09/10:02:09.346270,156762,1499565729,346050977,0,112,414,235,113,81,113,183,135
2017/07/09/10:02:09.360882,156763,1499565729,360661983,0,116,462,237,112,78,109,189,157
2017/07/09/10:02:09.392768,156764,1499565729,392486095,0,112,552,300,122,83,119,234,157
2017/07/09/10:02:09.406405,156765,1499565729,406109094,0,117,603,308,125,93,148,368,179
2017/07/09/10:02:09.421349,156766,1499565729,420969963,0,127,650,330,132,93,140,370,199
2017/07/09/10:02:09.443938,156767,1499565729,443589925,0,117,674,341,130,96,153,375,197
2017/07/09/10:02:09.466104,156768,1499565729,465827941,0,126,677,342,144,103,152,408,214
2017/07/09/10:02:09.481163,156769,1499565729,480819940,0,142,695,314,146,108,153,418,235
2017/07/09/10:02:09.503697,156770,1499565729,503490924,0,154,700,329,148,105,135,354,222
2017/07/09/10:02:09.526208,156771,1499565729,525949001,0,160,682,296,149,124,134,496,227
2017/07/09/10:02:09.548625,156772,1499565729,548362016,0,163,677,281,152,129,156,561,308
2017/07/09/10:02:09.564654,156773,1499565729,564483880,0,154,627,264,142,129,157,588,302
2017/07/09/10:02:09.587930,156774,1499565729,587429046,0,138,597,293,142,124,160,618,302
2017/07/09/10:02:09.608780,156775,1499565729,608464956,0,122,533,267,129,120,163,621,312
2017/07/09/10:02:09.624928,156776,1499565729,624803066,0,124,505,285,124,98,159,587,308
2017/07/09/10:02:09.647182,156777,1499565729,647082090,0,150,489,285,133,225,208,646,434
2017/07/09/10:02:09.668247,156778,1499565729,668143987,0,164,512,301,137,241,216,699,458
2017/07/09/10:02:09.685467,156779,1499565729,685075044,0,206,445,247,129,246,215,683,468
2017/07/09/10:02:09.707263,156780,1499565729,707125902,0,243,485,243,134,250,210,688,504
2017/07/09/10:02:09.728765,156781,1499565729,728446960,0,252,513,236,163,262,216,671,505
2017/07/09/10:02:09.744947,156782,1499565729,744811058,0,260,475,217,151,168,166,659,432
2017/07/09/10:02:09.767559,156783,1499565729,767379999,0,260,556,236,149,153,156,604,405
2017/07/09/10:02:09.788304,156784,1499565729,788194894,0,252,617,283,148,144,155,642,412
2017/07/09/10:02:09.804724,156785,1499565729,804584980,0,222,577,286,145,136,161,707,416
2017/07/09/10:02:09.834819,156786,1499565729,834673881,0,208,530,263,108,116,156,692,406
2017/07/09/10:02:09.848414,156787,1499565729,848154067,0,182,546,272,114,133,119,612,319
2017/07/09/10:02:09.871619,156788,1499565729,871232986,0,185,510,250,118,142,116,627,367
2017/07/09/10:02:09.887570,156789,1499565729,887420892,0,164,437,191,118,145,133,661,372
2017/07/09/10:02:09.908754,156790,1499565729,908548116,0,173,513,238,134,146,123,675,353
2017/07/09/10:02:09.930820,156791,1499565729,930648088,0,182,516,251,146,147,139,650,376
2017/07/09/10:02:09.947333,156792,1499565729,947180032,0,215,553,257,144,135,179,696,429
2017/07/09/10:02:09.968973,156793,1499565729,968481063,0,246,509,264,148,199,238,729,470
2017/07/09/10:02:10.001170,156794,1499565730,1009941,0,243,501,268,155,224,234,657,460
2017/07/09/10:02:10.007418,156795,1499565730,7082939,0,247,477,236,135,240,242,638,481
2017/07/09/10:02:10.028320,156796,1499565730,28143882,0,264,469,223,129,242,239,639,493
2017/07/09/10:02:10.051030,156797,1499565730,50762891,0,257,436,209,132,238,227,597,459
2017/07/09/10:02:10.067654,156798,1499565730,67477941,0,244,491,221,124,176,168,509,394
2017/07/09/10:02:10.088219,156799,1499565730,88110923,0,251,491,213,111,139,156,504,383
2017/07/09/10:02:10.112049,156800,1499565730,111881017,0,258,465,207,113,112,145,421,382
2017/07/09/10:02:10.144371,156801,1499565730,143687009,0,293,506,214,133,142,177,440,394
2017/07/09/10:02:10.148351,156802,1499565730,148150920,0,285,487,225,127,142,177,435,400
2017/07/09/10:02:10.170990,156803,1499565730,170857906,0,290,487,221,128,145,179,494,456
2017/07/09/10:02:10.187191,156804,1499565730,187042951,0,288,566,247,133,159,215,500,465
2017/07/09/10:02:10.208693,156805,1499565730,208393096,0,346,572,244,153,168,217,474,456
2017/07/09/10:02:10.230987,156806,1499565730,230834960,0,326,595,262,142,148,197,477,482
2017/07/09/10:02:10.247259,156807,1499565730,247078895,0,331,580,242,146,148,187,447,485
2017/07/09/10:02:10.269245,156808,1499565730,268692016,0,320,526,224,154,150,191,385,435
2017/07/09/10:02:10.298875,156809,1499565730,298639059,0,326,557,331,171,139,157,393,446
2017/07/09/10:02:10.307737,156810,1499565730,307526111,0,247,550,346,151,121,151,369,409
2017/07/09/10:02:10.328378,156811,1499565730,328119993,0,269,523,338,138,115,152,324,371
2017/07/09/10:02:10.352965,156812,1499565730,352807998,0,250,520,339,141,112,165,333,380
2017/07/09/10:02:10.375657,156813,1499565730,375241041,0,283,543,359,127,102,204,342,447
2017/07/09/10:02:10.388491,156814,1499565730,388228893,0,281,411,243,97,99,201,333,448
2017/07/09/10:02:10.411195,156815,1499565730,410913944,0,291,404,219,102,101,206,336,457
2017/07/09/10:02:10.427382,156816,1499565730,427174091,0,239,358,207,104,87,202,379,473
2017/07/09/10:02:10.448920,156817,1499565730,448527097,0,260,411,214,91,86,197,414,512
2017/07/09/10:02:10.471197,156818,1499565730,470984935,0,245,385,176,86,80,156,389,484
2017/07/09/10:02:10.487397,156819,1499565730,487147092,0,257,448,203,118,100,150,344,467
2017/07/09/10:02:10.509895,156820,1499565730,509715080,0,322,488,218,140,116,178,395,502
2017/07/09/10:02:10.530797,156821,1499565730,530630111,0,331,496,208,142,116,171,380,494
2017/07/09/10:02:10.547751,156822,1499565730,547422885,0,324,451,203,151,118,163,343,459
2017/07/09/10:02:10.570587,156823,1499565730,570455074,0,332,564,293,167,121,153,325,423
2017/07/09/10:02:10.591154,156824,1499565730,590993881,0,341,535,279,164,123,161,329,416
2017/07/09/10:02:10.615021,156825,1499565730,614855051,0,300,485,272,182,156,190,383,432
2017/07/09/10:02:10.628499,156826,1499565730,628088951,0,304,471,277,185,164,201,364,404
2017/07/09/10:02:10.651335,156827,1499565730,651010036,0,332,521,284,184,169,218,350,403
2017/07/09/10:02:10.667660,156828,1499565730,667339086,0,315,429,205,173,168,225,344,379
2017/07/09/10:02:10.690434,156829,1499565730,690033912,0,334,452,219,179,172,267,385,419
2017/07/09/10:02:10.710812,156830,1499565730,710702896,0,318,428,198,143,139,266,292,414
2017/07/09/10:02:10.727272,156831,1499565730,727154970,0,316,438,204,143,135,256,285,409
2017/07/09/10:02:10.748776,156832,1499565730,748538017,0,308,390,191,149,134,244,276,411
2017/07/09/10:02:10.770825,156833,1499565730,770653963,0,310,336,171,150,133,246,290,429
2017/07/09/10:02:10.787260,156834,1499565730,787060022,0,296,269,151,135,119,245,278,424
2017/07/09/10:02:10.808453,156835,1499565730,808176994,0,292,305,168,136,108,202,262,358
2017/07/09/10:02:10.831255,156836,1499565730,830923080,0,311,401,223,146,115,202,294,353
2017/07/09/10:02:10.853611,156837,1499565730,853440046,0,395,605,291,147,109,201,369,337
2017/07/09/10:02:10.870061,156838,1499565730,869787931,0,421,619,297,187,159,218,387,383
2017/07/09/10:02:10.891323,156839,1499565730,890938043,0,409,640,304,188,159,174,413,402
2017/07/09/10:02:10.907353,156840,1499565730,907143115,0,411,644,315,188,162,170,401,409
2017/07/09/10:02:10.930225,156841,1499565730,930059909,0,409,625,289,178,156,166,382,435
2017/07/09/10:02:10.951238,156842,1499565730,951109886,0,344,441,232,172,154,157,330,474
2017/07/09/10:02:10.967781,156843,1499565730,967551946,0,308,428,230,132,106,162,304,463
2017/07/09/10:02:10.990461,156844,1499565730,990228891,0,296,428,229,129,106,158,233,429
2017/07/09/10:02:11.010814,156845,1499565731,10608911,0,326,427,228,137,115,161,242,443
2017/07/09/10:02:11.027985,156846,1499565731,27606964,0,306,378,212,140,116,178,242,443
2017/07/09/10:02:11.049660,156847,1499565731,49523115,0,259,348,191,140,126,220,233,386
2017/07/09/10:02:11.071508,156848,1499565731,71135044,0,256,329,184,131,120,190,218,359
2017/07/09/10:02:11.087380,156849,1499565731,87296009,0,293,306,175,123,114,182,193,361
2017/07/09/10:02:11.117533,156850,1499565731,117351055,0,256,258,138,107,100,180,194,323
2017/07/09/10:02:11.131243,156851,1499565731,130966901,0,261,220,120,100,101,191,226,305
2017/07/09/10:02:11.147568,156852,1499565731,147330045,0,265,242,137,95,92,145,200,306
2017/07/09/10:02:11.168469,156853,1499565731,168217897,0,282,281,174,101,96,162,242,287
2017/07/09/10:02:11.190737,156854,1499565731,190594911,0,260,266,172,127,111,163,255,267
2017/07/09/10:02:11.207591,156855,1499565731,207165002,0,257,268,178,125,109,188,267,278
2017/07/09/10:02:11.228667,156856,1499565731,228472948,0,248,268,179,125,104,158,237,253
2017/07/09/10:02:11.251303,156857,1499565731,250977039,0,315,282,183,125,103,161,249,307
2017/07/09/10:02:11.267345,156858,1499565731,267251014,0,302,290,157,124,101,149,231,300
2017/07/09/10:02:11.289942,156859,1499565731,289792060,0,288,297,152,96,84,160,243,340
2017/07/09/10:02:11.311013,156860,1499565731,310743093,0,299,293,143,105,92,126,234,354
2017/07/09/10:02:11.333665,156861,1499565731,333364963,0,319,291,147,108,96,130,277,350
2017/07/09/10:02:11.349902,156862,1499565731,349761009,0,280,242,132,101,89,118,285,315
2017/07/09/10:02:11.370747,156863,1499565731,370644092,0,293,195,125,99,88,119,287,370
2017/07/09/10:02:11.393764,156864,1499565731,393438100,0,300,256,124,102,93,127,284,397
2017/07/09/10:02:11.410199,156865,1499565731,409969091,0,302,282,134,109,94,131,290,403
2017/07/09/10:02:11.430911,156866,1499565731,430780887,0,277,286,129,102,87,175,272,415
2017/07/09/10:02:11.447355,156867,1499565731,447262048,0,231,285,117,101,84,190,259,394
2017/07/09/10:02:11.470191,156868,1499565731,469981908,0,211,284,106,100,87,203,253,367
2017/07/09/10:02:11.491244,156869,1499565731,490855932,0,187,242,105,93,79,193,241,292
2017/07/09/10:02:11.513379,156870,1499565731,513170003,0,197,236,102,72,67,195,252,278
2017/07/09/10:02:11.529830,156871,1499565731,529721021,0,220,251,116,70,64,186,219,263
2017/07/09/10:02:11.550879,156872,1499565731,550637960,0,228,245,115,74,69,203,225,285
2017/07/09/10:02:11.573968,156873,1499565731,573616981,0,228,249,113,64,62,189,231,264
2017/07/09/10:02:11.590042,156874,1499565731,589844942,0,253,310,153,75,62,188,232,258
2017/07/09/10:02:11.615201,156875,1499565731,611241102,0,244,316,157,78,62,195,211,257
2017/07/09/10:02:11.633549,156876,1499565731,633238077,0,227,303,148,88,70,190,212,267
2017/07/09/10:02:11.649923,156877,1499565731,649717092,0,219,304,147,83,65,178,202,241
2017/07/09/10:02:11.671536,156878,1499565731,671201944,0,198,286,146,81,62,178,183,223
2017/07/09/10:02:11.693404,156879,1499565731,693269014,0,182,193,95,68,61,181,186,244
2017/07/09/10:02:11.710204,156880,1499565731,710076093,0,183,284,150,80,71,169,188,265
2017/07/09/10:02:11.730959,156881,1499565731,730627059,0,181,293,153,72,67,149,194,256
2017/07/09/10:02:11.753811,156882,1499565731,753379106,0,183,301,157,73,67,147,198,261
2017/07/09/10:02:11.770023,156883,1499565731,769900083,0,187,309,157,72,67,151,204,270
2017/07/09/10:02:11.791460,156884,1499565731,791071891,0,172,306,157,73,65,141,252,257
2017/07/09/10:02:11.813958,156885,1499565731,813608884,0,149,204,108,60,52,140,243,207
2017/07/09/10:02:11.837282,156886,1499565731,837109088,0,141,222,124,53,49,134,233,221
2017/07/09/10:02:11.851652,156887,1499565731,850984096,0,156,243,129,52,48,99,241,249
2017/07/09/10:02:11.873534,156888,1499565731,873332023,0,151,235,130,55,48,131,235,248
2017/07/09/10:02:11.892681,156889,1499565731,889977931,0,156,219,124,53,52,154,183,247
2017/07/09/10:02:11.911224,156890,1499565731,910793066,0,155,203,120,49,49,166,185,259
2017/07/09/10:02:11.933429,156891,1499565731,933151006,0,161,183,96,53,50,167,206,237
2017/07/09/10:02:11.950565,156892,1499565731,950429916,0,143,149,82,54,52,180,192,195
2017/07/09/10:02:11.970948,156893,1499565731,970748901,0,142,149,78,57,55,158,191,197
2017/07/09/10:02:11.994000,156894,1499565731,993617057,0,135,174,86,62,56,132,208,197
2017/07/09/10:02:12.009880,156895,1499565732,9645938,0,121,168,65,62,57,120,214,195
2017/07/09/10:02:12.030972,156896,1499565732,30725002,0,102,160,84,61,53,127,198,196
2017/07/09/10:02:12.053693,156897,1499565732,53468942,0,100,153,88,57,52,125,200,193
2017/07/09/10:02:12.078218,156898,1499565732,77909946,0,101,167,97,55,55,124,210,194
2017/07/09/10:02:12.091266,156899,1499565732,90996026,0,104,142,90,53,50,123,200,202
2017/07/09/10:02:12.113458,156900,1499565732,113197088,0,109,138,91,53,53,120,199,200
2017/07/09/10:02:12.137928,156901,1499565732,137792110,0,114,119,69,50,55,107,197,209
2017/07/09/10:02:12.154240,156902,1499565732,150912046,0,114,132,73,53,56,100,195,214
2017/07/09/10:02:12.173453,156903,1499565732,173285961,0,132,126,90,58,63,85,189,242
