time,.header.seq,.header.stamp.secs,.header.stamp.nsecs,.header.frame_id,.pose.position.x,.pose.position.y,.pose.position.z,.pose.orientation.x,.pose.orientation.y,.pose.orientation.z,.pose.orientation.w,.twist.linear.x,.twist.linear.y,.twist.linear.z,.twist.angular.x,.twist.angular.y,.twist.angular.z,.wrench.force.x,.wrench.force.y,.wrench.force.z,.wrench.torque.x,.wrench.torque.y,.wrench.torque.z
2017/07/09/10:06:36.344770,438101,1499565999,149014650,,0.782141499481,0.397393117974,0.16640154145,0.624725867541,0.778235815942,0.0558477583234,0.0307836498942,0.00255687631865,-0.0128876865608,-0.000617834614542,-0.00641078291709,-0.000776778683062,0.000420082471896,5.60191345215,1.44822216034,-0.677812099457,-0.745672643185,2.09111428261,0.0622366964817
2017/07/09/10:06:36.354601,438102,1499565999,159020022,,0.781521353546,0.398118882778,0.165967919721,0.624574284438,0.778387779582,0.0559098356132,0.0298917730697,0.00105026668755,-0.0293837329805,-0.00446558491469,-0.00887280253831,0.00555277581118,-0.0307380335664,5.72955942154,1.82862687111,-0.830093860626,-0.980624556541,2.09170341492,-0.0359915532172
2017/07/09/10:06:36.364407,438103,1499565999,169018334,,0.781596675473,0.396177663418,0.165663808443,0.625073617739,0.778052088221,0.0546927569455,0.0304404789399,0.00365017511254,-0.0261187689746,0.000617882739291,0.0105189248063,0.00641699418,-0.0570193419698,5.77512359619,1.93150293827,-0.726261496544,-0.961291491985,2.12404346466,0.0192312598228
2017/07/09/10:06:36.374218,438104,1499565999,179020336,,0.781379368024,0.397453657956,0.165592438459,0.624998802812,0.778086566432,0.0554618117302,0.0296947648806,-0.00769867279525,-0.0497852992573,-0.0113582552825,-0.0412241636475,0.0417957413673,-0.0461523937805,6.2144317627,2.07810664177,-0.774808764458,-1.03667807579,2.28470754623,0.0169200748205
2017/07/09/10:06:36.384072,438105,1499565999,189011436,,0.781855385272,0.396283764721,0.16611342097,0.62503818793,0.778023818418,0.0553085309797,0.0307760946716,0.00379951086211,-0.046896825839,-0.0102751714072,-0.01181986607,0.0115972492338,-0.0621290884451,6.42792320251,2.11696195602,-0.698771297932,-1.0012011528,2.37928080559,0.0176895670593
2017/07/09/10:06:36.394480,438106,1499565999,199012467,,0.782637872999,0.395546822423,0.166743970835,0.625481302052,0.777615244175,0.0556774991893,0.0314275180968,0.00776285178197,-0.0336862239442,0.00367355503102,-0.00518157748771,-0.00782608203441,-0.0446329115953,5.91096925735,2.12604427338,-0.836638092995,-0.940816521645,2.13883805275,0.0453244745731
2017/07/09/10:06:36.404625,438107,1499565999,209015771,,0.78220659958,0.395304598219,0.166256805307,0.625742019952,0.777460084297,0.0553180399842,0.0307027074286,0.0131122381326,-0.0521777298834,-0.00175596162178,-0.0185139938592,-0.00929769611569,-0.0739225296331,5.91758537292,1.98102259636,-0.911323070526,-0.840718984604,2.15223884583,0.0893983468413
2017/07/09/10:06:36.414422,438108,1499565999,219012818,,0.782169607796,0.394927078813,0.165876871057,0.625976920148,0.777285704882,0.0551166370003,0.0306917701177,0.0133663305797,-0.0638369160758,0.00206612982449,-0.0249556185411,-0.000555101050159,-0.0758133006032,5.31398439407,2.04582095146,-0.74490904808,-0.904349923134,1.90177631378,0.0394518524408
2017/07/09/10:06:36.424497,438109,1499565999,229012635,,0.782778932707,0.39485912174,0.166449310067,0.626346061131,0.776927039759,0.0557869324707,0.0310290954207,0.0142859175057,-0.0396833844195,0.018421905623,-0.0111148364398,-0.022676610821,-0.0717859145938,3.27467679977,1.61203837395,-0.149005144835,-0.747706055641,1.14763486385,-0.0322828963399
2017/07/09/10:06:36.434593,438110,1499565999,239020102,,0.782866351521,0.394018553698,0.166540213403,0.626369951816,0.776910932544,0.055530353223,0.0314080599071,0.0148397983627,-0.0533860743141,0.0120135015362,-0.0138121564123,-0.0184840710489,-0.0859044808764,3.14291167259,1.5156314373,0.211071997881,-0.710108816624,1.13591384888,-0.0102975107729
2017/07/09/10:06:36.444361,438111,1499565999,249015013,,0.783049038019,0.393021963066,0.166978131551,0.626966403362,0.776419368601,0.0555843062629,0.0315670400025,0.0116596804774,-0.0804493651869,0.00570839853913,-0.023089865924,-0.0077201423704,-0.103967654398,3.86993432045,1.74778819084,0.0604510195553,-0.841153979301,1.39316320419,-0.0311941131949
2017/07/09/10:06:36.454440,438112,1499565999,259016657,,0.782592283746,0.392147731144,0.166372078706,0.627358888437,0.776166141008,0.0549116569702,0.0311714064492,0.0146122163747,-0.0825257941876,0.0015926400801,-0.0216560912222,-0.00868150349399,-0.0977936908654,4.34622573853,1.52711164951,-0.215681418777,-0.672060608864,1.57605731487,0.0242428891361
2017/07/09/10:06:36.464397,438113,1499565999,269025833,,0.782798358848,0.391605978764,0.166381623123,0.627631883553,0.775946230661,0.0550259208851,0.0309485686437,0.0173541684581,-0.0837709861145,0.00317084737506,0.00399165566879,-0.00375362610396,-0.111217969834,4.45720720291,0.948765814304,-0.41136264801,-0.373501062393,1.59410393238,0.0824293941259
2017/07/09/10:06:36.474420,438114,1499565999,279018362,,0.783586755395,0.390036690444,0.166911194424,0.628544372454,0.775149467934,0.0553475466862,0.0318107417926,0.0211188279578,-0.1150180061,0.00286483161791,-0.0288347582121,-0.00325046935463,-0.14726939249,4.51747226715,0.555828094482,-0.564768195152,-0.168428122997,1.62650895119,0.132120683789
2017/07/09/10:06:36.484366,438115,1499565999,289018645,,0.783394746001,0.388789644911,0.166419952693,0.629031738375,0.774807355469,0.0546305789851,0.0317511238989,0.0125110337565,-0.0973536052958,-0.00114284426566,-0.0253576945348,0.0128126886352,-0.137157871307,4.6121635437,0.51143348217,-0.652617990971,-0.174689918756,1.62963271141,0.128215372562
2017/07/09/10:06:36.494311,438116,1499565999,299021994,,0.783800783759,0.387887962977,0.166647395876,0.629532518954,0.774375017629,0.0547009224653,0.0322482361052,0.0341292436615,-0.114506269542,0.0141913290673,-0.0111153792907,-0.0365276469579,-0.167136224871,4.36771249771,0.668868720531,-0.731454432011,-0.253950476646,1.53233909607,0.0720782279968
2017/07/09/10:06:36.504249,438117,1499565999,309012519,,0.784305909545,0.387386804911,0.166770555894,0.629997184605,0.773959385389,0.0553128959846,0.0321076423473,0.0333771721668,-0.133689594028,0.00886397642426,-0.0175882758036,-0.0201613144777,-0.19912006373,4.42363023758,1.16014492512,-0.831644952297,-0.515737712383,1.47477138042,0.0555881932378
2017/07/09/10:06:36.514342,438118,1499565999,319018936,,0.784346332661,0.385959323184,0.167379559143,0.630600751556,0.773483681335,0.0550100397186,0.0322425553469,0.0173289351404,-0.123304808721,-6.33628796945e-05,-0.0220956056218,0.0165528914964,-0.155176089555,4.30049657822,1.56096923351,-0.997362732887,-0.62618792057,1.41064918041,-9.11317765713e-05
2017/07/09/10:06:36.524624,438119,1499565999,329024927,,0.78438182198,0.383998683126,0.166851143194,0.631814978198,0.772516439819,0.0546814281016,0.0322199465395,0.0187811314454,-0.132572484614,0.00622028148011,-0.00799737521064,0.00917600971686,-0.192021230357,4.13145971298,1.50083661079,-1.09443116188,-0.604528069496,1.34512352943,0.0302603840828
2017/07/09/10:06:36.534245,438120,1499565999,339026475,,0.7843663124,0.382378282579,0.1664072203,0.632636438974,0.771900074888,0.0541283448979,0.0318046026468,0.0258367018662,-0.135150393663,0.00643772610414,-0.00176318278586,-0.0135975988758,-0.200484771774,3.80623030663,1.37430369854,-1.05580723286,-0.534284293652,1.20467019081,0.0150848003104
2017/07/09/10:06:36.544503,438121,1499565999,349016351,,0.784921949854,0.382037191204,0.167086655205,0.632634039864,0.771822812156,0.0549511819853,0.0323123171501,0.0345864022756,-0.148997864542,0.0128906600662,-0.00955147110445,-0.0249369598639,-0.196025357793,4.28163433075,1.32014942169,-1.1098600626,-0.555470883846,1.42284286022,0.0107705257833
2017/07/09/10:06:36.554493,438122,1499565999,359019498,,0.785371501733,0.379685668799,0.16718906513,0.634066755536,0.770650844806,0.0547173774224,0.0325980602547,0.028772468357,-0.168674696825,-0.00734579543382,-0.0282655558651,-0.00790944346461,-0.215682910298,5.09256267548,1.15999448299,-1.11065399647,-0.431194037199,1.7479660511,0.0878492295742
2017/07/09/10:06:36.564301,438123,1499565999,369019616,,0.785403738411,0.377563285135,0.167022033046,0.634893147532,0.770001812709,0.0542612421008,0.0326131453259,0.0220620773731,-0.163606553251,-0.00396157093195,-0.00678221582689,0.00811831408602,-0.211103156971,5.00652456284,1.15632760525,-1.16683220863,-0.454289644957,1.67863035202,0.0424867495894
2017/07/09/10:06:36.574428,438124,1499565999,379018860,,0.785511783329,0.375767359513,0.166638534,0.63623178749,0.768925723294,0.0542054140591,0.0320018394904,0.0230045165028,-0.186875091379,0.00124788842774,0.00823165151442,0.0196770688117,-0.275426175087,4.74984025955,0.753063321114,-1.25806856155,-0.26123175025,1.56047439575,0.105672985315
2017/07/09/10:06:36.584192,438125,1499565999,389013113,,0.785991918169,0.374078806643,0.167169025498,0.636883882337,0.768354982102,0.054277259255,0.0326116701055,0.0222162153345,-0.199708998325,0.00958060943509,0.00829928516407,0.0207181378478,-0.299516982968,4.97609853745,1.05492651463,-1.40731787682,-0.442441999912,1.55907535553,0.0434873402119
2017/07/09/10:06:36.594405,438126,1499565999,399018242,,0.786259344722,0.372280294842,0.167176260682,0.637959603328,0.767460831684,0.0543390231795,0.0325374693712,0.0322343335556,-0.20947426254,0.0156855133293,-0.0314050572222,-0.0145746166103,-0.259501475959,4.85174274445,1.15874528885,-1.50935482979,-0.420218765736,1.4596323967,0.0512105114758
2017/07/09/10:06:36.604801,438127,1499565999,409013142,,0.786496387043,0.370191307216,0.167273225928,0.639205170982,0.766425258863,0.0541686518162,0.032784586735,0.011403267967,-0.190723550648,0.00252390704931,-0.0186810252571,0.0341838636557,-0.254441194109,5.01343679428,0.990649223328,-1.66020667553,-0.301222860813,1.49583280087,0.0868452712893
2017/07/09/10:06:36.614351,438128,1499565999,419019532,,0.786500650251,0.367899122481,0.167094479236,0.640258565795,0.765594967034,0.0535934852551,0.0325738194986,0.00205960346795,-0.200439293302,-0.00962176751795,0.00358860732041,0.0681231449485,-0.28923339369,5.16861248016,1.07720315456,-1.71207153797,-0.354564547539,1.51300787926,0.0568362884223
2017/07/09/10:06:36.624436,438129,1499565999,429017819,,0.786571410068,0.367170017782,0.167077601776,0.64065420472,0.765251511565,0.0539468191268,0.0322808724691,0.0260928209245,-0.207318751407,0.0096268692089,-0.00533202777898,0.0133863296758,-0.292692171172,5.47182703018,1.05462682247,-1.63753223419,-0.325239866972,1.63032817841,0.104728870094
2017/07/09/10:06:36.634314,438130,1499565999,439019255,,0.786977998469,0.364831506266,0.167293642535,0.642125238292,0.764005558995,0.0540246194389,0.0324349297456,0.0330292424621,-0.205765906881,0.0107923724466,-0.000598390872547,-0.00774469412654,-0.286714624037,5.52122020721,1.01864337921,-1.66763854027,-0.306755632162,1.6496771574,0.0918171480298
2017/07/09/10:06:36.644304,438131,1499565999,449015915,,0.787116427872,0.361723663557,0.167015116747,0.643434879988,0.762951815474,0.0531401202879,0.0327446193444,0.0263222173351,-0.222663650411,0.0031001085426,-0.016666307115,0.000914518167649,-0.292138199547,5.14839363098,0.850403308868,-1.61371994019,-0.23154091835,1.51572823524,0.113124467432
2017/07/09/10:06:36.654487,438132,1499565999,459019571,,0.78721044642,0.359885173176,0.167003844505,0.644217833956,0.762305281312,0.0530335415114,0.0325804231419,0.0190566817203,-0.229782302114,-0.017435717962,-0.0174465891164,0.0339408203823,-0.309541806135,5.19980144501,0.969346046448,-1.68162083626,-0.258152723312,1.50800836086,0.115385077894
2017/07/09/10:06:36.664330,438133,1499565999,469013398,,0.787394846923,0.357131523761,0.166821814063,0.645774622731,0.76100527609,0.0527462159509,0.0326181406873,0.0273202108277,-0.253468058778,-0.000228996325858,-0.0153974673324,0.024098302776,-0.337809040395,5.36523485184,0.999185740948,-1.84591031075,-0.362720549107,1.50675404072,0.0584157928824
2017/07/09/10:06:36.674377,438134,1499565999,479018609,,0.787784010489,0.354319396539,0.167363827189,0.647278027601,0.759719409419,0.0527560691089,0.0327776007118,0.0182416522261,-0.229590539855,0.00944177312203,0.00765043284804,0.0266546875976,-0.314959871361,5.33104562759,0.741595864296,-1.84372186661,-0.19318780303,1.48502659798,0.120184481144
2017/07/09/10:06:36.684426,438135,1499565999,489011148,,0.787680898952,0.352848954539,0.166973914684,0.648265414065,0.758909969049,0.0526274670753,0.0322174101152,0.00705225995534,-0.231153910755,-0.00623763051354,-0.00409174403633,0.0565617656323,-0.313901574635,5.23465967178,0.736173987389,-1.82718145847,-0.180050715804,1.40914726257,0.107008613646
2017/07/09/10:06:36.694418,438136,1499565999,499013244,,0.787567581672,0.350429551755,0.167000576903,0.649572240513,0.75782597024,0.0522403602677,0.0320413474079,0.0106628822393,-0.245969331798,0.00839289563244,-0.00440072927162,0.0437035789347,-0.363784645085,5.5557756424,0.802239537239,-1.87783741951,-0.244813919067,1.50048565865,0.119741916656
2017/07/09/10:06:36.704472,438137,1499565999,509018474,,0.788055862448,0.347972968364,0.167023581096,0.650783033969,0.756772420167,0.0521454238922,0.0325238610714,0.0222596622929,-0.265114482008,0.0149773854231,-0.00753827658679,0.0150568640258,-0.385980824178,5.33879327774,0.471542179585,-1.81500005722,-0.0300090238452,1.41410040855,0.169542744756
2017/07/09/10:06:36.714383,438138,1499565999,519018382,,0.788015535103,0.345930359619,0.167131143628,0.652218343246,0.755564929124,0.0519942243139,0.0320853743928,0.0127043338605,-0.24844951388,-0.00398412696628,-0.00129102265258,0.0384317675256,-0.350586822304,5.62904596329,0.422816336155,-1.91365873814,-0.0310211479664,1.51694297791,0.171108677983
2017/07/09/10:06:36.724335,438139,1499565999,529011602,,0.788017533325,0.343278815728,0.167402063901,0.653209343738,0.754734793431,0.0515464892379,0.0321854669928,0.00321545656085,-0.263569629728,-0.00848417199162,-0.00145877198122,0.0774841121567,-0.363626996192,6.13770437241,0.545982897282,-1.84636306763,-0.0870028585196,1.72459173203,0.172760024667
2017/07/09/10:06:36.734451,438140,1499565999,539019923,,0.788051204832,0.34008959579,0.167264556656,0.654774061673,0.753417693049,0.0509995699891,0.0321208938695,-0.0102310616066,-0.274160251436,-0.00694341024312,-0.0345903938775,0.104553476655,-0.327225906167,5.88378810883,0.501304864883,-1.89867150784,-0.0933391526341,1.64065277576,0.147786021233
2017/07/09/10:06:36.744653,438141,1499565999,549018027,,0.787920816801,0.337357010029,0.166922897523,0.656784786947,0.751719163473,0.0506241647794,0.0314521357248,-0.0137065123851,-0.288382130749,-0.00225553297337,-0.0522076102152,0.107707144463,-0.371642210878,5.58979082108,0.58705073595,-1.62821662426,-0.195026099682,1.58403217793,0.115133687854
2017/07/09/10:06:36.754329,438142,1499565999,559016865,,0.787399149396,0.334686192011,0.16693224201,0.657420455426,0.751240874928,0.0495322168194,0.0313377108645,-0.00956474567181,-0.296694337505,2.8561378283e-05,-0.02470435493,0.100890133859,-0.416693887687,5.46733427048,0.431853890419,-1.62606930733,-0.0424053892493,1.54130983353,0.147154271603
2017/07/09/10:06:36.764519,438143,1499565999,569015971,,0.787876118812,0.331648966097,0.167926595224,0.659076771048,0.749761514404,0.049716762311,0.0316816181488,-0.0216206838806,-0.293008650234,0.00183162900727,-0.0287573826412,0.125661687599,-0.391625259851,5.49855518341,0.676322281361,-1.82993769646,-0.204676613212,1.5550481081,0.10656452924
2017/07/09/10:06:36.774448,438144,1499565999,579011469,,0.787336206738,0.328761257719,0.167467677282,0.660300312949,0.748773189399,0.0485830527739,0.0313351964951,-0.0274253522899,-0.293128460423,0.00564134664613,-0.0320449676956,0.130957315631,-0.3721040161,5.37535572052,0.51595133543,-1.91991853714,-0.144054070115,1.52028679848,0.110669404268
2017/07/09/10:06:36.784426,438145,1499565999,589018662,,0.786659393777,0.325975957384,0.167241144786,0.661647173522,0.747669477403,0.0477125319371,0.0306085711205,-0.0277744240035,-0.290995809656,0.0059376226501,-0.0398029105516,0.13424340438,-0.384081464973,5.46404266357,0.503021717072,-2.00621628761,-0.0764437243342,1.56532502174,0.134665042162
2017/07/09/10:06:36.794284,438146,1499565999,599015883,,0.78715115459,0.322461898498,0.167726072697,0.66376931296,0.745777174231,0.0475501866221,0.0310754778039,-0.0312899871552,-0.30897628847,0.00215017709132,-0.0454300557259,0.150859112372,-0.406055482377,5.21984004974,-0.581044495106,-2.10065245628,0.193438842893,1.48847568035,0.180463314056
2017/07/09/10:06:36.804343,438147,1499565999,609019461,,0.786002698181,0.319487620155,0.167316398485,0.665059881991,0.74475462186,0.046123161443,0.0301423383872,-0.0345422968167,-0.303945147957,0.0110056561406,-0.0413497054165,0.1510426555,-0.403621855719,4.67053079605,-0.295603990555,-2.28075098991,0.0629290640354,1.32939565182,0.142088741064
2017/07/09/10:06:36.814273,438148,1499565999,619016493,,0.785901207162,0.316814205849,0.167679792856,0.666446347639,0.743557116095,0.0455828283821,0.0299046247112,-0.0479389548111,-0.31244853535,0.00819681878959,-0.054811687297,0.177128296731,-0.401185758806,4.75355529785,0.187013089657,-2.28321170807,-0.229897543788,1.34007525444,0.06647965312
2017/07/09/10:06:36.824304,438149,1499565999,629012200,,0.784944715949,0.313710865978,0.167425656448,0.667710007306,0.742533253884,0.0441962425516,0.0292302097814,-0.0462092723355,-0.309090333751,0.0157718141256,-0.0638425768629,0.169477931169,-0.394320978832,4.40633821487,0.0860422700644,-2.337454319,-0.16202801466,1.26990175247,0.0654754564166
2017/07/09/10:06:36.834325,438150,1499565999,639018879,,0.784683347284,0.310887151901,0.167824195747,0.669271080779,0.74116136294,0.0439128141607,0.0287701107083,-0.050055090887,-0.339885630047,0.0154957798184,-0.0757738248213,0.183750024714,-0.427932150175,4.03220033646,0.180428594351,-2.44007849693,-0.157362297177,1.14315402508,0.0557101890445
2017/07/09/10:06:36.844336,438151,1499565999,649011360,,0.783805745833,0.306926674326,0.168106711411,0.670916264841,0.739774742207,0.0423776155585,0.0284400081475,-0.0689134530159,-0.335588603933,0.00852064344242,-0.0649128096417,0.22932988479,-0.41874956256,4.03953313828,-0.169858962297,-2.55002331734,-0.0540727265179,1.20081293583,0.0812076926231
2017/07/09/10:06:36.854341,438152,1499565999,659012534,,0.78314708637,0.304577800734,0.167834216617,0.672541357528,0.738371680311,0.0415769239964,0.0276901339953,-0.0694556112109,-0.334148335086,0.0103721202854,-0.0688419729609,0.226847188788,-0.422531788558,3.94328808784,-0.0332456380129,-2.59328794479,-0.0509813725948,1.18211984634,0.0833088383079
2017/07/09/10:06:36.864446,438153,1499565999,669011029,,0.782365783445,0.300693441644,0.167705866767,0.673929706055,0.737197264217,0.04022778737,0.0272152540012,-0.0652052001134,-0.332425741632,0.0119852686386,-0.0476216420014,0.217308812441,-0.456348386862,4.02104043961,-0.212901413441,-2.46235942841,-0.0252067558467,1.23294079304,0.0853802114725
2017/07/09/10:06:36.874319,438154,1499565999,679014369,,0.782297611335,0.297115082295,0.168146899864,0.675902395711,0.73541879212,0.0396028571559,0.0273270081333,-0.0690263847589,-0.337568831863,0.00407765472498,-0.0497551381715,0.228463291978,-0.442661906278,4.57677555084,-0.455678582191,-2.30851459503,0.149606078863,1.43385767937,0.13354870677
2017/07/09/10:06:36.884374,438155,1499565999,689045362,,0.781203429778,0.294972508484,0.168079656586,0.677183506086,0.734333706951,0.0386595884743,0.0261140219024,-0.079499360261,-0.349107258133,-0.00216639471815,-0.0586022388923,0.25523419501,-0.461706197462,4.21683740616,-0.237951755524,-2.08821702003,0.026040982455,1.34977626801,0.0724727809429
2017/07/09/10:06:36.894250,438156,1499565999,699019366,,0.780904037853,0.291799869814,0.167969437487,0.678344412116,0.733321406991,0.0376926906989,0.0258424779774,-0.0747623115995,-0.350005961627,0.00969738716982,-0.0635028686422,0.236471818969,-0.473012604451,2.14668774605,-0.619191944599,-1.60319018364,0.16751177609,0.550511717796,0.0597111284733
2017/07/09/10:06:36.904204,438157,1499565999,709020970,,0.779877474754,0.287993912327,0.168242874726,0.680482220538,0.731419064503,0.0365797380743,0.0251400551993,-0.0722300805049,-0.318952252871,0.0197813832665,-0.0552308578826,0.218060238944,-0.384996973941,1.43438518047,-0.550700366497,-0.92524087429,0.106241002679,0.333494663239,0.0645215958357
2017/07/09/10:06:36.914339,438158,1499565999,719018622,,0.779827124751,0.283757323946,0.168893956544,0.682445561064,0.729606317271,0.0360521666545,0.025355852625,-0.0629061175261,-0.353136791175,0.0217023105972,-0.0489612307555,0.19479519584,-0.455444434768,1.27230167389,-0.800399124622,-0.839849472046,0.151154756546,0.278969854116,0.0123712047935
2017/07/09/10:06:36.924289,438159,1499565999,729015302,,0.778788310049,0.280374432804,0.168973645755,0.684397364823,0.727863628874,0.0349887173033,0.0243017375165,-0.0714226723838,-0.343463432526,0.0172044094105,-0.0307068427472,0.222112551868,-0.460062847621,1.90325307846,-1.04451692104,-0.752834558487,0.19605691731,0.616361558437,0.0492929592729
2017/07/09/10:06:36.934454,438160,1499565999,739011355,,0.778467778378,0.277978694733,0.169575225699,0.685468135548,0.726890181526,0.034415933559,0.0240757692646,-0.0716234460598,-0.364319777865,0.0255288595619,-0.0507159824882,0.211537601477,-0.498441426136,1.18098759651,-1.08873617649,-0.517811059952,0.395091831684,0.3587872684,0.127366453409
2017/07/09/10:06:36.944481,438161,1499565999,749018230,,0.77799685645,0.273648835689,0.16963950828,0.687755575046,0.724771844797,0.0337588536153,0.0236301033844,-0.0610000302816,-0.357148194003,0.0312971038617,-0.0532454057646,0.181187839911,-0.489431025755,0.997930705547,-1.4291383028,-0.698390066624,0.467200011015,0.300526916981,0.0884144157171
2017/07/09/10:06:36.954140,438162,1499565999,759018335,,0.776750029219,0.271273323915,0.169142925867,0.688756653097,0.723921308253,0.032284859162,0.0225809685489,-0.0681461646806,-0.356486782664,0.0375515670017,-0.0446709165483,0.191144085363,-0.498126525534,0.985794007778,-0.329625248909,-0.83345246315,-0.0511736422777,0.269050300121,0.00342933088541
2017/07/09/10:06:36.964235,438163,1499565999,769018924,,0.776622173474,0.267020615397,0.169891919076,0.691015131318,0.721797541868,0.0314622945414,0.0227270953932,-0.0731348108141,-0.352639593412,0.0299311906957,-0.0492755242873,0.222212440089,-0.480127372727,1.28307056427,1.02948987484,-1.17550706863,-0.684995055199,0.31184861064,-0.12757460773
2017/07/09/10:06:36.974392,438164,1499565999,779019082,,0.775932517595,0.264067219435,0.1703773852,0.692498937522,0.72042374321,0.030693863601,0.0221977135788,-0.0656642984624,-0.360025447477,0.0299386731741,-0.090695262731,0.208013375137,-0.473965007909,1.43369472027,1.42344856262,-0.993398964405,-0.791398763657,0.317556470633,-0.1011364609
2017/07/09/10:06:36.984340,438165,1499565999,789018762,,0.775929999598,0.25994795,0.171175019746,0.694454536893,0.718557351283,0.0299989644552,0.0225453151876,-0.0508673336615,-0.348842305196,0.0454090892443,-0.0679004195737,0.15639092729,-0.466319839284,1.72495365143,1.01991665363,-1.17131793499,-0.638999462128,0.342620283365,-0.0806870013475
2017/07/09/10:06:36.994302,438166,1499565999,799015677,,0.775422771769,0.256522230499,0.171706076587,0.696043591385,0.717051850719,0.0290758739061,0.0226838230454,-0.03092392799,-0.370923795311,0.0586929778665,-0.0809535912976,0.111678898497,-0.490284492483,1.72068476677,0.354109883308,-1.07935392857,-0.244128406048,0.324728190899,-0.0372737571597
2017/07/09/10:06:37.004368,438167,1499565999,809011462,,0.775179368723,0.253101220399,0.171998145967,0.697678859837,0.71549006955,0.0285900388532,0.0223780828259,-0.0405888593407,-0.384836287227,0.0606098101282,-0.0891660284533,0.118251900718,-0.503657384702,1.05150902271,-0.439729571342,-1.01553761959,0.242765188217,0.055942825973,0.0550567694008
2017/07/09/10:06:37.014385,438168,1499565999,819019236,,0.774685955181,0.249225117517,0.172408421504,0.699411476705,0.713833464968,0.0278868414476,0.0220838089995,-0.0412128647062,-0.399684632088,0.0501556050215,-0.0845503530886,0.117543740331,-0.522135001647,1.04976475239,-0.624592900276,-0.879635214806,0.410270094872,0.0824305862188,0.0904385000467
2017/07/09/10:06:37.024317,438169,1499565999,829017450,,0.774316136236,0.24655231492,0.172859688025,0.700959275803,0.71234969201,0.0273585353055,0.0215759241801,-0.0316798738359,-0.36712812136,0.0609402825517,-0.0713933574445,0.0960966872324,-0.485294330643,0.117362432182,-0.795546174049,-0.787789404392,0.557567775249,-0.285507500172,0.177199810743
2017/07/09/10:06:37.034405,438170,1499565999,839018637,,0.774189262078,0.243371405099,0.17362928541,0.702570522626,0.710771126237,0.0270784299338,0.0215829904358,-0.0415867099307,-0.3630293731,0.0563034063081,-0.0589387851763,0.127009713424,-0.488718797095,0.070207208395,-0.526744842529,-0.829888641834,0.229459255934,-0.32201936841,0.0901527479291
2017/07/09/10:06:37.044116,438171,1499565999,849014322,,0.773417468293,0.239108770622,0.174155694819,0.704321124247,0.709087072931,0.0257815183026,0.0215079114458,-0.0305452428226,-0.339585211003,0.0699432731769,-0.00492565985107,0.0902141296994,-0.504596059639,-0.762350022793,-0.82533454895,-0.775816380978,0.188919886947,-0.606140017509,0.11785428226
2017/07/09/10:06:37.054469,438172,1499565999,859016300,,0.773679495874,0.235982646278,0.175353174817,0.705826690385,0.707580817304,0.0256541159751,0.0219074520823,-0.0391154449781,-0.333889258662,0.070396128784,-0.0285314572086,0.117316800143,-0.469614451974,-0.978268444538,-0.520157396793,-0.681947052479,0.110426388681,-0.772734165192,0.100673951209
2017/07/09/10:06:37.064318,438173,1499565999,869015404,,0.772850737282,0.232671370257,0.175553599424,0.707646510701,0.705811193458,0.0250523455901,0.0209607982296,-0.0458988788558,-0.355652645966,0.0661359144708,-0.0564052051272,0.132182457876,-0.469365526836,-1.47560596466,-0.806273877621,-0.892762124538,0.117527544498,-1.00703787804,0.0644145086408
2017/07/09/10:06:37.074138,438174,1499565999,879019392,,0.772148460266,0.230096369121,0.176284200489,0.708618084247,0.704880221252,0.0238443888974,0.0208741343198,-0.0481378735416,-0.356936826267,0.0725626990836,-0.0872176317192,0.124985090295,-0.462597778193,-1.34890544415,-0.465224981308,-0.690041542053,0.188920751214,-0.924922704697,0.0775574669242
2017/07/09/10:06:37.084279,438175,1499565999,889014751,,0.77194479683,0.225540665894,0.177162255665,0.710687703581,0.702803994392,0.0232119917965,0.0212305648016,-0.0506577261785,-0.371845839202,0.0737482377219,-0.0904397475871,0.130377088738,-0.478696582526,-1.62361121178,-0.867298007011,-0.587553322315,0.276506602764,-1.06424987316,0.0350246801972
2017/07/09/10:06:37.094160,438176,1499565999,899014291,,0.771354717048,0.221568698795,0.177453425756,0.712868210456,0.7006357249,0.0223879386161,0.0206706487186,-0.0475415030147,-0.37330286963,0.0709480889868,-0.0658933650722,0.124574396589,-0.506799097568,-2.17266368866,-1.13423848152,-0.194545179605,0.372107684612,-1.26027822495,0.0641204789281
2017/07/09/10:06:37.104375,438177,1499565999,909013989,,0.770722311867,0.21955500679,0.178265653925,0.714013446809,0.699499840331,0.021994096487,0.0200257552263,-0.0540534499661,-0.353752432388,0.0752159379679,-0.0525219376826,0.135006625295,-0.477122662859,-2.70468711853,-0.731058061123,-0.272575289011,0.326528191566,-1.47135090828,0.0577322430909
2017/07/09/10:06:37.114362,438178,1499565999,919049153,,0.770163709001,0.215859830869,0.178955538214,0.715491848209,0.698014482249,0.0209939122275,0.0201606886443,-0.0527102521015,-0.340143833823,0.0815104030813,-0.0317453213438,0.130952169217,-0.486582626088,-3.30869841576,-0.525421738625,-0.310943752527,0.214761719108,-1.67605161667,0.056312084198
2017/07/09/10:06:37.124303,438179,1499565999,929017825,,0.769993157147,0.212564547421,0.179740509536,0.717536809019,0.695922459439,0.0207864473972,0.0200195343537,-0.0621298348468,-0.331642942468,0.0575942450839,-0.032299309294,0.165755472062,-0.487014306702,-3.60175061226,-0.541196167469,0.0503033734858,0.193277925253,-1.79000484943,0.0267143901438
2017/07/09/10:06:37.134310,438180,1499565999,939018630,,0.769340017508,0.209583228997,0.180762837462,0.718912992154,0.694533010864,0.0200588291812,0.0196379710007,-0.0517034141273,-0.3415306423,0.0791541579165,-0.0419999424854,0.120372700225,-0.491226935196,-4.25222349167,-0.637651622295,0.11926870048,0.298798918724,-1.96144783497,0.087105885148
2017/07/09/10:06:37.144108,438181,1499565999,949011851,,0.769258756738,0.206444066001,0.181855890409,0.720297299037,0.693105301975,0.0196809933186,0.0197357512169,-0.0566255331369,-0.337389428906,0.088390142547,-0.0309555027543,0.123564059325,-0.476722572355,-4.62851953506,-0.482635080814,0.486405849457,0.352657318115,-2.10084199905,0.124054767191
2017/07/09/10:06:37.154408,438182,1499565999,959025897,,0.768758881826,0.20282234265,0.182662085832,0.722297028106,0.691043902856,0.0190366375528,0.0195686981159,-0.0642404172367,-0.324130556621,0.0777428617381,-0.0176103449364,0.157367941886,-0.465185212585,-4.79138803482,-0.985586822033,0.816185176373,0.429595887661,-2.16150212288,0.0906974375248
2017/07/09/10:06:37.164318,438183,1499565999,969018811,,0.767703082781,0.199818614911,0.182933638453,0.723461388125,0.689875832378,0.0178779259161,0.0188503463628,-0.0600616948011,-0.325641807292,0.0769082090042,-0.0382211584303,0.149861372415,-0.471911022463,-5.73920917511,-1.10022270679,0.877924621105,0.561109006405,-2.58392715454,0.146467268467
2017/07/09/10:06:37.174432,438184,1499565999,979018999,,0.767496189414,0.196551916953,0.183929124781,0.725032499963,0.688239386433,0.0175219807277,0.0186387003366,-0.0638456887212,-0.313004856474,0.083016704855,-0.0371084135959,0.156131103626,-0.445783042625,-6.25924110413,-1.13329565525,1.03529191017,0.447255373001,-2.80734229088,0.0927114337683
2017/07/09/10:06:37.184468,438185,1499565999,989012704,,0.76662858797,0.193819076494,0.184744035741,0.726391147993,0.686833948649,0.0165720114986,0.0184498112701,-0.0710276578433,-0.34249071571,0.081011399929,-0.060605533988,0.179645813811,-0.481757249167,-6.51629781723,-0.586258530617,1.20141887665,0.350546240807,-2.89607620239,0.105009555817
2017/07/09/10:06:37.194430,438186,1499565999,999018188,,0.765610184443,0.191023087859,0.185430745129,0.728212741567,0.684950389356,0.0156558595958,0.0174373507583,-0.071577026324,-0.327136530051,0.0718266135012,-0.0370921332399,0.178448479228,-0.482530771564,-6.3190112114,-0.114982187748,1.21026051044,0.238238140941,-2.86466646194,0.0851448923349
2017/07/09/10:06:37.204201,438187,1499566000,9018857,,0.765280635903,0.18702964547,0.186093457396,0.729687134458,0.683390847889,0.0146362495771,0.01787218583,-0.0706089287528,-0.332157919388,0.0807732656702,-0.070549720949,0.164735556073,-0.449158495084,-7.17366981506,-0.980074584484,1.112454772,0.660860359669,-3.19198107719,0.19376924634
2017/07/09/10:06:37.214297,438188,1499566000,19016138,,0.764209727597,0.184290689341,0.186511542145,0.730865430264,0.682173307808,0.0134875483117,0.0171285433967,-0.0749289690029,-0.3472883082,0.0835391952292,-0.0843027175361,0.174283157934,-0.452785312402,-6.93328619003,-0.361589163542,0.907988250256,0.439533293247,-3.09024357796,0.144295960665
2017/07/09/10:06:37.224546,438189,1499566000,29017968,,0.764182539816,0.181936141124,0.187685437381,0.732234597003,0.680710528825,0.0135059156173,0.0168303637254,-0.0653881414877,-0.329809199816,0.0842580960548,-0.105395305693,0.157591873409,-0.392983162433,-7.50381135941,-0.461470544338,1.22800564766,0.448401898146,-3.31810092926,0.122201234102
2017/07/09/10:06:37.234219,438190,1499566000,39043441,,0.762950804392,0.178386191459,0.188607393595,0.733422783928,0.679463772641,0.0117278487868,0.016806523936,-0.0709454277902,-0.324967583302,0.0896867747354,-0.0995201003445,0.168899838248,-0.423604302785,-8.19336128235,-0.34213155508,1.29065263271,0.379037380219,-3.53563094139,0.129384741187
2017/07/09/10:06:37.244295,438191,1499566000,49020171,,0.762784024846,0.174758385577,0.189420350791,0.734629706113,0.678158104113,0.0107194496013,0.0174892573179,-0.0625116261057,-0.326212426064,0.0975029661206,-0.127200111443,0.146017365849,-0.415631490431,-8.52193641663,-0.563192129135,1.16841888428,0.363567829132,-3.68081641197,0.119375824928
2017/07/09/10:06:37.254345,438192,1499566000,59018725,,0.761933431535,0.171797125729,0.19036528648,0.736082261966,0.67660520144,0.00967249704907,0.017168220733,-0.0670847182832,-0.33210357902,0.0874839419348,-0.150954392445,0.163039483105,-0.411658348968,-8.56577777863,-0.505575537682,1.0575479269,0.31730312109,-3.697265625,0.13435664773
2017/07/09/10:06:37.264356,438193,1499566000,69026696,,0.761255187333,0.167247123679,0.190940218514,0.737919852509,0.674610612545,0.00815840044789,0.0175571414812,-0.0796191075714,-0.357301233505,0.084321184834,-0.160542170607,0.187426110085,-0.435882187964,-8.63422584534,-1.37014901638,1.07848536968,0.552721619606,-3.74583649635,0.183155655861
2017/07/09/10:06:37.274291,438194,1499566000,79015692,,0.760467561123,0.165028254806,0.19182471925,0.738724694864,0.673750708663,0.00686407802045,0.0172827140843,-0.0870191122645,-0.368008124113,0.0853868404502,-0.186251335702,0.208343015925,-0.404832007764,-8.90376472473,-0.300467610359,1.05119907856,0.347813725471,-3.89985322952,0.174030169845
2017/07/09/10:06:37.284431,438195,1499566000,89013987,,0.759007151117,0.160742121995,0.192713380124,0.740290791372,0.672049907233,0.00468430327881,0.0172198635447,-0.0895790711129,-0.352351961094,0.0797442854132,-0.211606088041,0.227283723661,-0.408106789282,-9.2598400116,-0.923742711544,0.96516597271,0.558183252811,-4.01660251617,0.210981816053
2017/07/09/10:06:37.297512,438196,1499566000,99016729,,0.757942833343,0.15740797177,0.193206705441,0.74166641319,0.670547508142,0.00308014464525,0.0169553407609,-0.108566592026,-0.35664491944,0.0850222212183,-0.264775218418,0.272720209664,-0.369612803961,-9.88739776611,-1.27562963963,0.589290440083,0.721359312534,-4.273873806,0.249757409096
2017/07/09/10:06:37.304255,438197,1499566000,109013563,,0.756929326117,0.154651218168,0.19382057114,0.741895511054,0.670292102313,0.000595906634686,0.0172972006348,-0.100910611679,-0.353744318462,0.0881964576616,-0.268063308199,0.257199424238,-0.339745800669,-10.2757892609,-0.533077299595,0.519060373306,0.62484395504,-4.48723983765,0.286685168743
2017/07/09/10:06:37.314585,438198,1499566000,119019484,,0.756385978664,0.151233833293,0.194693624457,0.742995400406,0.66905906659,-0.00106009085368,0.017795409432,-0.104155050885,-0.335789804618,0.0827460458274,-0.291404068624,0.275103099011,-0.309961887279,-10.11074543,-0.662814259529,0.553361773491,0.629476249218,-4.47476434708,0.281984567642
2017/07/09/10:06:37.324316,438199,1499566000,129016346,,0.755851964571,0.148140450995,0.195859064413,0.743704023628,0.668248795849,-0.00250578131804,0.0184822386561,-0.108836546668,-0.358994122863,0.0715082460592,-0.326135837818,0.286469406096,-0.32755637957,-9.81467151642,-0.658451199532,0.641384780407,0.633556902409,-4.36821508408,0.303572207689
2017/07/09/10:06:37.334455,438200,1499566000,139018416,,0.754344419603,0.144659969131,0.196044385028,0.745050030359,0.666746887622,-0.00495861868204,0.0180125569895,-0.101521180553,-0.366748281374,0.0773107272149,-0.323476358592,0.266478678873,-0.323478588748,-10.5488290787,-0.447790145874,0.5876314044,0.572006762028,-4.72685623169,0.32283899188
2017/07/09/10:06:37.344360,438201,1499566000,149017897,,0.753401198689,0.140654331244,0.196737566152,0.746105542396,0.665520809744,-0.00727431606031,0.0188588369221,-0.0938186565745,-0.360106731536,0.0776671273633,-0.358661976196,0.251735993378,-0.310831490931,-9.78500652313,-0.529780447483,0.497288733721,0.444715291262,-4.37182569504,0.276324599981
2017/07/09/10:06:37.354486,438202,1499566000,159013931,,0.752510897699,0.137941490149,0.197178535819,0.746677834825,0.664852234768,-0.00922235434608,0.0189384552177,-0.0962375506147,-0.365195589404,0.0755836966752,-0.36606792966,0.259064568661,-0.285511441281,-10.597990036,-0.453469932079,0.256896078587,0.463704377413,-4.73737668991,0.361108362675
2017/07/09/10:06:37.364482,438203,1499566000,169019861,,0.751602595575,0.133911511406,0.198671628075,0.747804306199,0.6635149488,-0.0115540485948,0.0200782546421,-0.0969801696687,-0.357369781977,0.0721663389172,-0.389498456849,0.268461571667,-0.286944636835,-10.0851688385,-0.308651655912,0.650313436985,0.328233122826,-4.48056507111,0.313420891762
2017/07/09/10:06:37.374288,438204,1499566000,179011943,,0.750804629751,0.130527220961,0.198788497287,0.748311050841,0.662884495797,-0.0139036438067,0.0205281540827,-0.10563283859,-0.366902682537,0.0829080609385,-0.403445091896,0.284434423743,-0.30546060002,-10.5334129333,0.0894292294979,0.240228503942,0.246956527233,-4.66994285583,0.372330009937
2017/07/09/10:06:37.384209,438205,1499566000,189018173,,0.749931554682,0.126630380332,0.199977186246,0.749323232813,0.661648907867,-0.0164139456426,0.0215869839006,-0.110876271836,-0.356743280146,0.0725786525103,-0.439441504178,0.306451144935,-0.26302938242,-9.44874572754,-0.718590259552,0.61985206604,0.443642407656,-4.21927261353,0.336409896612
2017/07/09/10:06:37.394013,438206,1499566000,199012211,,0.748478891051,0.123264975898,0.200210646042,0.749741174579,0.661082329124,-0.0194243492194,0.0219321662962,-0.113251021679,-0.373956472934,0.0789658922313,-0.478956338858,0.307888104616,-0.269437361259,-9.84860706329,-0.552540302277,0.0613682344556,0.47043839097,-4.35433673859,0.376476019621
2017/07/09/10:06:37.404733,438207,1499566000,209015347,,0.747177853614,0.119177449804,0.201041748706,0.750791446032,0.659754478002,-0.0226524887166,0.0228713374274,-0.116983865273,-0.375439954167,0.0793109820252,-0.523422282702,0.331622887769,-0.244615035436,-9.49684143066,-0.964133262634,0.496715784073,0.59701359272,-4.28418064117,0.406479686499
2017/07/09/10:06:37.414366,438208,1499566000,219023335,,0.74619047318,0.115677829233,0.201615865606,0.751389226154,0.658929090634,-0.0257194322677,0.023773833092,-0.125935700011,-0.401586214613,0.0685630417632,-0.551972656596,0.359596736679,-0.267870245524,-9.34869861603,-0.279511839151,0.229449748993,0.383326679468,-4.27649593353,0.378956645727
2017/07/09/10:06:37.424274,438209,1499566000,229027712,,0.744578570657,0.113091104453,0.201711695568,0.75161681348,0.658553353345,-0.0287732016119,0.0234893456964,-0.129885280789,-0.368291348105,0.0672347155558,-0.534150419275,0.386600944778,-0.231327555258,-10.2715158463,0.0770884305239,0.119015611708,0.344969063997,-4.6485285759,0.485481441021
2017/07/09/10:06:37.434336,438210,1499566000,239030692,,0.743414306042,0.108730910685,0.203045519521,0.752782274776,0.657032850678,-0.0319340150581,0.0246353119704,-0.130802945378,-0.361708952958,0.0763586667497,-0.53396168441,0.384433895185,-0.224030104029,-9.57304000854,-0.571223497391,0.524806559086,0.404922187328,-4.3818154335,0.469741016626
2017/07/09/10:06:37.444395,438211,1499566000,249024140,,0.741963617353,0.105471054087,0.203382246667,0.752784846173,0.656813685451,-0.0356475921059,0.0252983626521,-0.142237188535,-0.375310304179,0.0687820822222,-0.571250958842,0.42471060412,-0.22614314737,-9.86756896973,-0.285681694746,0.263121247292,0.354979455471,-4.43632936478,0.499330312014
2017/07/09/10:06:37.454467,438212,1499566000,259025535,,0.741021227326,0.102675001757,0.204318150667,0.75299903525,0.656358758223,-0.0386442233305,0.0263107852384,-0.14081055639,-0.370442758946,0.0815778537062,-0.598093072725,0.426619803765,-0.207453464627,-9.01867485046,0.00942239910364,0.283282935619,0.281959265471,-4.11171674728,0.472840160131
2017/07/09/10:06:37.464461,438213,1499566000,269024583,,0.739719248793,0.098708493733,0.205071322467,0.753609968779,0.655411680624,-0.0420885076682,0.0271311883549,-0.15181650821,-0.382946386941,0.0682027208419,-0.604024050065,0.465039401981,-0.242858771617,-8.22625732422,0.0919901132584,0.0950641483068,0.245245873928,-3.79030537605,0.445177912712
2017/07/09/10:06:37.474459,438214,1499566000,279017675,,0.738235155859,0.0948614390865,0.20564858584,0.754481100973,0.654134722026,-0.0457763048409,0.0277590278899,-0.139809226037,-0.370531330353,0.07024705201,-0.622673053803,0.448838366137,-0.201436794961,-8.71022605896,-0.453298807144,0.0866351500154,0.391898244619,-3.90269446373,0.496538281441
2017/07/09/10:06:37.484311,438215,1499566000,289019663,,0.736561612619,0.0908137411644,0.206660332296,0.754939542569,0.653240903482,-0.0501659570871,0.0287399692742,-0.152069549459,-0.370930373885,0.0785595451764,-0.6366689142,0.472955525374,-0.209090310401,-8.72299194336,-0.608122169971,0.282509297132,0.47468328476,-3.93406128883,0.525472164154
2017/07/09/10:06:37.494426,438216,1499566000,299021833,,0.734731545518,0.0869131529789,0.207152928078,0.755365767882,0.652388332098,-0.0543735787354,0.02924952633,-0.14967403875,-0.376536170237,0.105583809655,-0.670650722223,0.473846195326,-0.204862485958,-9.28558635712,-0.778255283833,-0.200202643871,0.455469787121,-4.13367795944,0.598366618156
2017/07/09/10:06:37.504557,438217,1499566000,309023971,,0.73372417082,0.0840083721305,0.208084599701,0.755489065371,0.651879943849,-0.0579916650885,0.0304265951454,-0.160116435014,-0.389488391322,0.0879176421947,-0.690809602018,0.519668495649,-0.217189758551,-7.98017454147,0.263174831867,-0.349119633436,0.190984576941,-3.69206404686,0.524017333984
2017/07/09/10:06:37.514389,438218,1499566000,319017198,,0.731389242304,0.0795632289044,0.2085108232,0.756106725065,0.650680912163,-0.0630144362862,0.0307595786247,-0.174285876698,-0.378880725155,0.0882976637551,-0.701400012809,0.557688481829,-0.219784653816,-8.92494392395,-0.454129159451,-0.552855610847,0.308926194906,-4.0467877388,0.613488078117
2017/07/09/10:06:37.524459,438219,1499566000,329010925,,0.729596247505,0.077030239525,0.20958966922,0.756521358748,0.649822458797,-0.0668062929174,0.0307103407157,-0.185153200849,-0.365645350193,0.0895509510801,-0.680934876895,0.586633809104,-0.221105365254,-9.56998920441,-0.0315397977829,0.181260257959,0.225173801184,-4.30862665176,0.666883826256
2017/07/09/10:06:37.534070,438220,1499566000,339014865,,0.728417858413,0.0735351499016,0.210479087776,0.756980058686,0.648846389915,-0.070579555808,0.0315923938291,-0.19853146951,-0.339964749456,0.0786437015167,-0.646253393557,0.636939108106,-0.225622210743,-7.97394418716,-0.122243382037,-0.0277024544775,0.119741283357,-3.76411724091,0.599518537521
2017/07/09/10:06:37.544595,438221,1499566000,349025552,,0.726061421304,0.0699008346882,0.211326016116,0.757199656837,0.648011033218,-0.0756108462042,0.0318336370849,-0.195434603902,-0.354263270904,0.101474812175,-0.669520851424,0.631467176639,-0.230395218627,-8.51017189026,-0.506813943386,-0.189790561795,0.0953227579594,-3.87821507454,0.618263185024
2017/07/09/10:06:37.554390,438222,1499566000,359056964,,0.724470930721,0.0668398609456,0.211959636099,0.757517284432,0.647103956397,-0.0798948677889,0.0322621062896,-0.199198488248,-0.356702083734,0.0847140622353,-0.68381850774,0.650958407004,-0.220458108956,-8.79615783691,0.34237447381,-0.601655304432,-0.00843153893948,-3.97218155861,0.658938169479
2017/07/09/10:06:37.564559,438223,1499566000,369010781,,0.722643732842,0.0633010579184,0.212853391322,0.757951184846,0.646006532046,-0.0843452120411,0.0327329673357,-0.194628454541,-0.337021527979,0.0960854316152,-0.68028958805,0.653133327856,-0.19826643057,-8.65262413025,-0.494497656822,-0.642472565174,0.175811737776,-3.89033842087,0.685597956181
2017/07/09/10:06:37.574544,438224,1499566000,379018211,,0.720367732372,0.0605601603469,0.213800151531,0.758267514009,0.645049703907,-0.0888652379346,0.0323144886369,-0.207157209458,-0.33396676564,0.0857560008986,-0.673924193568,0.690389588081,-0.228376642746,-7.38673019409,-0.266518324614,-0.815168380737,0.110496073961,-3.36844468117,0.5842192173
2017/07/09/10:06:37.584329,438225,1499566000,389018497,,0.719034323102,0.0577465492809,0.214738457907,0.758366814329,0.644323891752,-0.0929250173992,0.0330369275873,-0.212211295228,-0.324153000704,0.0937507943292,-0.644497109242,0.687359429986,-0.250872936667,-5.99020242691,0.141049146652,-0.662297725677,0.0286380983889,-2.85822987556,0.533145964146
2017/07/09/10:06:37.594270,438226,1499566000,399019109,,0.716576465962,0.0545359301351,0.215423053991,0.758842740741,0.643058978824,-0.0977882133093,0.0327155913271,-0.216412522558,-0.313876871966,0.0896690921025,-0.639310852827,0.713462782618,-0.234372357221,-5.89993667603,-0.718859195709,-0.228239908814,0.241804659367,-2.83497619629,0.54402089119
2017/07/09/10:06:37.604479,438227,1499566000,409019202,,0.714584762817,0.051875666377,0.216503943036,0.759230178921,0.6419140431,-0.102255979769,0.0325516710503,-0.197312138481,-0.291780443562,0.103287497588,-0.596452816491,0.665762339238,-0.236241996807,-5.48487138748,-0.840279102325,-0.145462870598,0.228214636445,-2.61201500893,0.487640917301
2017/07/09/10:06:37.614353,438228,1499566000,419019390,,0.71215606789,0.0493254294613,0.217124691788,0.759395532773,0.641038711437,-0.106698354411,0.0316742231007,-0.217250920559,-0.284956354673,0.0985893643947,-0.577598492458,0.726757389643,-0.23226063699,-5.18690776825,-0.706664979458,0.0342744886875,0.257561147213,-2.46293115616,0.487507402897
2017/07/09/10:06:37.624397,438229,1499566000,429015564,,0.710128189884,0.046747448465,0.217850873695,0.7594388092,0.640261063118,-0.111048770187,0.0314107748295,-0.224304541144,-0.27837588757,0.107727239757,-0.572599301009,0.740935017721,-0.240513578088,-4.87402105331,-0.386029720306,-0.541266918182,0.0883749499917,-2.34039473534,0.488318383694
2017/07/09/10:06:37.634360,438230,1499566000,439016990,,0.708024570869,0.0443530680149,0.218912248548,0.759869428502,0.638993900955,-0.115422446687,0.0310307101312,-0.227426216097,-0.260301408116,0.0995802170669,-0.544773106622,0.752050898816,-0.250159985626,-4.62208271027,-0.362579762936,-0.34408646822,0.0964943170547,-2.22138166428,0.456036806107
2017/07/09/10:06:37.644432,438231,1499566000,449016597,,0.706220630956,0.0422837070361,0.219798665422,0.760217787032,0.63790925664,-0.11925453165,0.0303158911217,-0.222256021825,-0.247388443257,0.0987974760933,-0.495726150362,0.73395635459,-0.284822579933,-3.36807966232,-0.271284997463,-0.543619036674,0.00778443366289,-1.73498678207,0.368905872107
2017/07/09/10:06:37.654487,438232,1499566000,459018394,,0.703827998313,0.0404374353211,0.220129817732,0.760378749195,0.636913553676,-0.123711210209,0.0293397236822,-0.213436955538,-0.225403416249,0.095616005409,-0.465008204275,0.717761470192,-0.252346351044,-2.41044998169,-0.241466104984,-0.587198793888,-0.0587743483484,-1.35448801517,0.274010151625
2017/07/09/10:06:37.664301,438233,1499566000,469011292,,0.702312709899,0.0385950889671,0.221977503452,0.760692896,0.635958912433,-0.126740942941,0.0289709001443,-0.21198949905,-0.22135947277,0.104227148623,-0.453633785698,0.693999293122,-0.260917607923,-2.62447667122,0.279558539391,0.198027610779,-0.0718238800764,-1.58897233009,0.380394071341
2017/07/09/10:06:37.674387,438234,1499566000,479022862,,0.700105341988,0.036744297516,0.222167786905,0.760558655771,0.635255038914,-0.131209048977,0.0280312706431,-0.212379732434,-0.213858483106,0.107229912846,-0.431539793117,0.681976162248,-0.271632356627,-2.65678286552,0.700822651386,-0.795086681843,-0.251165360212,-1.52400565147,0.371259838343
2017/07/09/10:06:37.684234,438235,1499566000,489016563,,0.699059049121,0.0344777945915,0.223993904626,0.761347995118,0.633749642882,-0.133812492225,0.0283696563392,-0.216245355062,-0.221137250666,0.0986302002768,-0.433311053102,0.703802507703,-0.290681875608,-1.58412754536,0.168035656214,-0.229147970676,-0.00595530867577,-1.1388771534,0.286760151386
2017/07/09/10:06:37.694111,438236,1499566000,499017981,,0.696888034993,0.0319587439597,0.22534835332,0.761713805327,0.632489430188,-0.137704994339,0.0280452136551,-0.179699071925,-0.206157007026,0.109790119874,-0.42598565492,0.608723182722,-0.239706480027,-1.57537889481,-0.284516572952,-0.120444148779,0.119697675109,-1.06820046902,0.26387694478
2017/07/09/10:06:37.704347,438237,1499566000,509012297,,0.695481554253,0.0305083440851,0.225567482097,0.761856031562,0.631615560776,-0.141010565255,0.0274443262836,-0.170583695496,-0.200435958968,0.100045761783,-0.409792741234,0.572624313306,-0.235863969765,-0.549770355225,0.077963642776,-0.25433164835,0.000685963779688,-0.681551933289,0.17331661284
2017/07/09/10:06:37.714485,438238,1499566000,519021009,,0.693967224836,0.0286373628055,0.226320669038,0.762306545785,0.630397082897,-0.144096992833,0.0269129111413,-0.167036393342,-0.197411511407,0.0873909508618,-0.408854523807,0.564693568139,-0.271177119147,-0.183427423239,-0.198471009731,-0.58392894268,0.0843864530325,-0.538294911385,0.154486566782
2017/07/09/10:06:37.724458,438239,1499566000,529011287,,0.692624293329,0.0262101538296,0.2271109883,0.762722274085,0.629180756685,-0.147189646658,0.0268610489272,-0.157643689556,-0.197768625583,0.102392044063,-0.400785737681,0.526102097155,-0.267888768942,-0.24697265029,-0.15482917428,-0.25446754694,0.0255803130567,-0.62416434288,0.160177141428
2017/07/09/10:06:37.734390,438240,1499566000,539019058,,0.690783780274,0.0247210669448,0.22807234406,0.763009432646,0.62807044172,-0.15051920271,0.0262315753802,-0.154359347624,-0.197909296336,0.0978302584192,-0.390894209086,0.505362414248,-0.260461717557,0.635187745094,0.298485636711,-0.598491370678,0.0401148870587,-0.255065828562,0.128166466951
2017/07/09/10:06:37.744362,438241,1499566000,549019947,,0.689513662877,0.0221668296477,0.229261659744,0.763691573582,0.62660867282,-0.153086065045,0.0264841136463,-0.141764179018,-0.19733507867,0.0960533142378,-0.383950915563,0.46770026157,-0.266650261628,-0.0396702736616,-0.422442436218,0.0373945757747,0.112365759909,-0.473167568445,0.126036047935
2017/07/09/10:06:37.754307,438242,1499566000,559016479,,0.688698070516,0.020941849181,0.230369654876,0.764306174993,0.625370341845,-0.155085913286,0.0263887458577,-0.123447425488,-0.192257897512,0.106318195732,-0.392224834644,0.414313914707,-0.257457630675,-0.79102063179,0.199934393167,0.0596401840448,0.11391171068,-0.849116623402,0.282509326935
2017/07/09/10:06:37.764546,438243,1499566000,569012880,,0.687416717018,0.0190065114787,0.231086011162,0.764227064267,0.624745215911,-0.157970233535,0.0263783008313,-0.122345337409,-0.189975681011,0.100674741354,-0.373488388918,0.401036153578,-0.268083561598,-0.33794555068,0.00837603211403,0.187661379576,0.124010011554,-0.623762011528,0.198708459735
2017/07/09/10:06:37.774108,438244,1499566000,579020715,,0.686397293251,0.0176405438969,0.231745522802,0.764762848996,0.623523466436,-0.16025921398,0.0259471758455,-0.127879891118,-0.204221354358,0.102481656745,-0.383911916887,0.396979711885,-0.265707768998,-0.450592398643,0.4530569911,0.00963439047337,0.041749086231,-0.681335806847,0.241326883435
2017/07/09/10:06:37.784499,438245,1499566000,589046456,,0.685287494252,0.0154060482358,0.232707094921,0.765278039063,0.622200586505,-0.162872280029,0.0262406836719,-0.116564677471,-0.193928870013,0.0980118392036,-0.369029019756,0.373704129949,-0.25727373753,0.2573376894,0.165630400181,-0.285484611988,0.172136574984,-0.465583443642,0.182571545243
2017/07/09/10:06:37.794352,438246,1499566000,599037284,,0.684269257814,0.013657980198,0.233653724338,0.765272123092,0.621525791176,-0.165412620708,0.0265128917873,-0.109800666017,-0.19219568039,0.100550250029,-0.377169676709,0.34917951216,-0.243789377695,0.8467425704,0.434870183468,-0.505876302719,-0.0050788000226,-0.22343544662,0.107312247157
2017/07/09/10:06:37.804377,438247,1499566000,609014859,,0.683321406919,0.0114128359366,0.235121209573,0.766292674924,0.619701597575,-0.167438533357,0.0270148823338,-0.106627042933,-0.186844292079,0.0932953222714,-0.344205412692,0.327289368658,-0.271158305211,1.1216301918,0.0404750555754,-0.301521271467,0.151227176189,-0.136129885912,0.108023025095
2017/07/09/10:06:37.814356,438248,1499566000,619020124,,0.682654385226,0.00930393430322,0.235826082644,0.767031669952,0.618291352182,-0.169202721125,0.0273616569614,-0.0906732548348,-0.193689635734,0.0958479840474,-0.341230191378,0.278058583934,-0.282944923723,0.856320500374,0.137341544032,-0.569737017155,0.0745713561773,-0.231319755316,0.129220142961
2017/07/09/10:06:37.824226,438249,1499566000,629012230,,0.681401124727,0.00737183717008,0.236477764907,0.76739578953,0.617091637095,-0.171917727518,0.027311327406,-0.0949091618605,-0.195035255697,0.0953923426693,-0.330897134647,0.282025595317,-0.27821283353,0.772026777267,0.0558615028858,-0.405369788408,0.111437626183,-0.271949410439,0.153840065002
2017/07/09/10:06:37.834273,438250,1499566000,639019099,,0.680659956067,0.00584238489896,0.237435275784,0.768024887927,0.615863642039,-0.173499670261,0.0273424643742,-0.0948908941843,-0.189113087716,0.0899611259916,-0.348102075571,0.291935011351,-0.263677144984,1.33001196384,-0.000241667032242,-0.249120607972,0.120925500989,-0.0923851132393,0.0693095177412
2017/07/09/10:06:37.844560,438251,1499566000,649017676,,0.680023341115,0.00461600048963,0.238270441781,0.767945864567,0.615383823567,-0.175495614511,0.0276258587948,-0.100219420636,-0.213601201554,0.0905269836753,-0.347148008779,0.270479783711,-0.310644481065,1.00952327251,0.36633849144,-0.560750842094,0.0471341609955,-0.18728967011,0.0967505723238
2017/07/09/10:06:37.854138,438252,1499566000,659098675,,0.679394841348,0.00197315921221,0.239279712677,0.769042616661,0.613452877041,-0.177294279967,0.0285615073147,-0.0924518727258,-0.194676712475,0.092662567672,-0.327929725172,0.258886848197,-0.280213582644,1.2590790987,-0.244426965714,-0.35773396492,0.142108768225,-0.0645832121372,0.0566344261169
2017/07/09/10:06:37.864500,438253,1499566000,669097456,,0.677973788748,0.000637435511798,0.239630272698,0.7696274864,0.612093444351,-0.179566846373,0.0277650003364,-0.0848712544104,-0.185615634657,0.0998791438315,-0.328884148542,0.231299987068,-0.284727909971,1.03420388699,0.42340785265,-1.06897425652,0.00808452069759,-0.0810744166374,0.0623458959162
2017/07/09/10:06:37.874468,438254,1499566000,679096482,,0.677176365634,-0.00144646898381,0.241005796117,0.770393130256,0.610646633117,-0.18112111264,0.0282888117901,-0.0924142549495,-0.189737839585,0.0992943959746,-0.30549922788,0.232064106914,-0.322132255082,1.37360846996,-0.0608803555369,-0.79244697094,0.132128447294,0.00792217254639,0.0524728745222
2017/07/09/10:06:37.884427,438255,1499566000,689094392,,0.676823323347,-0.00322560966406,0.241771468724,0.770899105296,0.609613867432,-0.182388914106,0.0286319070344,-0.0947369177554,-0.193386699087,0.0978971069255,-0.319212903194,0.239134341934,-0.300943578703,1.84987902641,-0.23893430829,-0.514770030975,-0.000789884477854,0.149014800787,-0.00870951265097
2017/07/09/10:06:37.894514,438256,1499566000,699095208,,0.675742330032,-0.0047858793023,0.242991287792,0.77129776935,0.60842561477,-0.184580693928,0.0291202630044,-0.0822965678468,-0.204014328681,0.0974693594067,-0.339285870239,0.198695038494,-0.291015489731,2.62610769272,-0.128202244639,-0.242219746113,-0.0360933095217,0.423166483641,-0.0257983282208
2017/07/09/10:06:37.904493,438257,1499566000,709094769,,0.674558832277,-0.00823472757943,0.243593886507,0.77239223186,0.606261594079,-0.186998275738,0.0298121548849,-0.0885044022686,-0.212978730268,0.0904608397136,-0.362310252588,0.221308786671,-0.276292655781,2.32916641235,-1.08534324169,-0.273472875357,0.0910639315844,0.38551107049,-0.0852429270744
2017/07/09/10:06:37.914433,438258,1499566000,719096345,,0.674104890122,-0.00988888773055,0.244867212498,0.772661529084,0.605325999668,-0.188753146066,0.0307708539042,-0.0984867854262,-0.241451185235,0.107661066507,-0.418246190849,0.222849530563,-0.299401305022,1.24965596199,-0.337375253439,-0.0577705353498,-0.0863839238882,-0.0755231902003,0.0659112036228
2017/07/09/10:06:37.924407,438259,1499566000,729095012,,0.673196027171,-0.0119352677177,0.245912611115,0.773135947753,0.604117889039,-0.190591427802,0.0312616391664,-0.086563747479,-0.226339286873,0.120503605113,-0.439751118129,0.201780521124,-0.275722214337,1.69751167297,0.149788677692,-0.170588061213,-0.120919339359,0.0410792902112,0.00791180506349
2017/07/09/10:06:37.934427,438260,1499566000,739097303,,0.672514612155,-0.0134983344843,0.24713374306,0.773673693833,0.602888461962,-0.192204952329,0.0318083983336,-0.0853555392774,-0.222620489856,0.112323133846,-0.404199509585,0.200157499443,-0.247601169786,1.25796806812,0.542001485825,-0.397313922644,-0.0565555728972,-0.113008491695,0.0904862135649
2017/07/09/10:06:37.944361,438261,1499566000,749095586,,0.671255014323,-0.0161489382796,0.247636977473,0.774449607842,0.601143941529,-0.194488249531,0.0320637999929,-0.0911752256321,-0.23304347768,0.105145747637,-0.416645499848,0.193481784152,-0.300665843619,2.1044447422,0.021447353065,-0.832061171532,0.0983998700976,0.249550029635,-0.0647463575006
2017/07/09/10:06:37.954478,438262,1499566000,759104037,,0.670667010323,-0.0179751500867,0.248739927972,0.774880150824,0.59997258359,-0.196246995016,0.0328750322538,-0.0991712594747,-0.218465579712,0.100730978281,-0.382367534979,0.210804641136,-0.31651492061,2.97844839096,0.0731886550784,-0.3343565166,0.185842931271,0.47164863348,-0.152693152428
2017/07/09/10:06:37.964340,438263,1499566000,769099515,,0.669229944255,-0.0212478212884,0.250114152305,0.775937997408,0.597837475839,-0.198429512218,0.0337091284676,-0.0891497318952,-0.204738287161,0.104445015163,-0.346540541023,0.181957297739,-0.283651352779,2.20269656181,-0.982324540615,0.0114002525806,0.264708936214,0.294989973307,-0.132477447391
2017/07/09/10:06:37.974254,438264,1499566000,779095725,,0.669118426255,-0.0226190943889,0.25078754886,0.776511041204,0.59681265884,-0.199157155487,0.0343755807925,-0.104301377374,-0.227510328916,0.101534358068,-0.348737991451,0.182685838726,-0.332282626368,1.76432800293,-0.423126339912,-0.152490898967,0.0718328952789,0.0886330977082,-0.0435333475471
2017/07/09/10:06:37.984504,438265,1499566000,789102233,,0.668419389459,-0.0238477740259,0.251876031263,0.777069148259,0.595626508877,-0.20050688475,0.034490432219,-0.0951562063188,-0.213885188896,0.0907738496503,-0.316767187725,0.176588217204,-0.308552966615,0.972644805908,0.452645272017,-0.256521582603,-0.173440292478,-0.156728059053,0.108191773295
2017/07/09/10:06:37.994485,438266,1499566000,799099307,,0.667135586408,-0.0261237801009,0.252533739394,0.777559352249,0.594325377571,-0.202417939153,0.0347243029342,-0.0906112093637,-0.194550513341,0.0843213295672,-0.307148730041,0.183824918936,-0.289459518009,1.76667189598,0.0941669121385,-0.378451943398,-0.0667817741632,0.157150000334,-0.0138300731778
2017/07/09/10:06:38.004403,438267,1499566000,809096087,,0.66641403825,-0.0283542398125,0.253301875579,0.77813609779,0.593058933948,-0.203792209472,0.03541256188,-0.102090037338,-0.218678064715,0.0943286011906,-0.329483348668,0.170176709425,-0.316128579156,2.03308463097,-0.245507121086,-0.266364037991,0.0206826664507,0.210976302624,-0.0852926373482
2017/07/09/10:06:38.014366,438268,1499566000,819112500,,0.665493594043,-0.0302953224058,0.254277519373,0.778782616151,0.591623170076,-0.20540707137,0.0358830940855,-0.0840458986205,-0.20601346953,0.0899803067817,-0.311225141754,0.139437928587,-0.272157347956,2.3194205761,-0.399088412523,-0.125318735838,0.131290093064,0.279270589352,-0.110034123063
2017/07/09/10:06:38.024396,438269,1499566000,829102913,,0.664510027401,-0.0321461248831,0.254296498733,0.779515081417,0.590141806582,-0.20690736993,0.0357522899547,-0.0816482799983,-0.198414028383,0.0931929566851,-0.299114076069,0.108299781589,-0.307064837654,1.91239857674,-0.466610729694,-0.935517907143,0.211165741086,0.190997898579,-0.100433021784
2017/07/09/10:06:38.034465,438270,1499566000,839103773,,0.663858019546,-0.0341987644755,0.255784967607,0.78034782352,0.588587997885,-0.208002728268,0.0368280885518,-0.0804957047675,-0.196287739052,0.0811739367893,-0.271916725926,0.110485417552,-0.305181683131,1.80758655071,-0.195254504681,-0.364154219627,0.117514640093,0.136417254806,-0.0686037093401
2017/07/09/10:06:38.044489,438271,1499566000,849096334,,0.662525309679,-0.0354607182008,0.256058864125,0.781057160599,0.587302014175,-0.209161187309,0.0357442827075,-0.0965217398866,-0.177245424999,0.0684616339017,-0.246932432808,0.172893858375,-0.285567259253,1.87679326534,-0.143134251237,-1.05020773411,-0.0158370714635,0.22926184535,-0.0874427109957
2017/07/09/10:06:38.054456,438272,1499566000,859103713,,0.661828214472,-0.0370148108727,0.257115811387,0.781530504944,0.586173516207,-0.210455920234,0.0363178245199,-0.118417097666,-0.1936993053,0.0741786855609,-0.239892561836,0.199606992543,-0.319634419963,1.92762291431,0.206805974245,-0.796278357506,-0.0690433979034,0.21621991694,-0.0529194772243
2017/07/09/10:06:38.064182,438273,1499566000,869095740,,0.661006344641,-0.0388629638138,0.257355785685,0.782041521853,0.585032792897,-0.211692412059,0.0365241291334,-0.0863149202786,-0.15956719629,0.0699370991921,-0.197815919673,0.131570428798,-0.262496540756,1.4035320282,-0.0698187500238,-0.50877225399,-0.0478028506041,0.0137940011919,0.0415455512702
2017/07/09/10:06:38.074345,438274,1499566000,879103488,,0.660178260191,-0.0406002205371,0.257879708111,0.782705278408,0.583735544689,-0.212784839575,0.036713390831,-0.0731422460801,-0.166505722241,0.0690546490976,-0.211724388266,0.0862040092076,-0.274757505798,1.78473091125,-0.476683825254,-0.459556639194,0.0301418434829,0.166505426168,-0.0830687060952
2017/07/09/10:06:38.084582,438275,1499566000,889102852,,0.659670437303,-0.0420706459929,0.258675838164,0.783386981077,0.582724731642,-0.213038518657,0.0367602309466,-0.0895025347339,-0.162538854294,0.0559133930388,-0.16455022637,0.118158586033,-0.296761786628,1.42689561844,-0.760862410069,-0.379018932581,0.187646776438,0.0305184610188,-0.0377567410469
2017/07/09/10:06:38.094519,438276,1499566000,899100269,,0.659506810087,-0.0432707233805,0.259145081245,0.784066149047,0.58174087159,-0.213171479813,0.0370911368768,-0.0896966468253,-0.173763733003,0.043115562651,-0.173996012095,0.115439672988,-0.3013873598,1.73990464211,-0.0563543140888,-0.318280547857,0.0756552740932,0.0323847159743,-0.0578495189548
2017/07/09/10:06:38.104276,438277,1499566000,909099415,,0.658492155828,-0.0443967483817,0.259615142835,0.784557188093,0.58068949846,-0.214273503954,0.0368319222093,-0.077318077479,-0.147751854631,0.0449243549314,-0.142184426167,0.0902970718233,-0.264658444212,0.903458952904,0.0164581611753,-0.668808579445,0.11445248872,-0.244142726064,0.0807605236769
2017/07/09/10:06:38.114591,438278,1499566000,919100450,,0.657290717898,-0.0463688471517,0.259618214826,0.785291450208,0.579273039685,-0.215465465805,0.0365337757546,-0.0699214224134,-0.155511436175,0.0478152478448,-0.140888073804,0.0609421969239,-0.258544096763,-0.363369017839,-0.264971315861,-1.48547887802,0.0259743407369,-0.582753539085,0.212202891707
2017/07/09/10:06:38.124111,438279,1499566000,929097130,,0.656667247664,-0.0480882776705,0.260160517236,0.786087899541,0.578009335759,-0.215904462094,0.0368277778158,-0.0883726424838,-0.153224002979,0.0286533113318,-0.105809128883,0.106058393187,-0.270770102194,0.768356621265,-0.706903576851,-0.8358746171,0.0861046388745,-0.172877430916,0.0127156972885
2017/07/09/10:06:38.134477,438280,1499566000,939101012,,0.655433090524,-0.0496083677303,0.260124342637,0.786497614884,0.576970366861,-0.217283514641,0.0362570242917,-0.0771148049701,-0.145660141907,0.0283011996699,-0.107259258644,0.0817534754554,-0.250959234442,0.243362411857,-0.298171341419,-1.04687809944,-0.0537077262998,-0.314865082502,0.112224936485
2017/07/09/10:06:38.144366,438281,1499566000,949098915,,0.65548245927,-0.0501554546868,0.260153133325,0.787084810515,0.576270902124,-0.217004514162,0.0363096303439,-0.0752509653835,-0.13753445668,0.0231384826861,-0.0999690192955,0.0822872028167,-0.259911836671,0.933119595051,0.198866814375,-1.3137973547,-0.129885092378,-0.147118359804,0.0698152929544
2017/07/09/10:06:38.154255,438282,1499566000,959101799,,0.65437308652,-0.0523456807453,0.260749985088,0.787879891975,0.574810613566,-0.217946847391,0.0365678282782,-0.0656302111912,-0.11421433266,0.00843803396729,-0.054455464752,0.0690810825691,-0.226090188827,0.0943607836962,-0.150742545724,-0.855824589729,-0.0401091650128,-0.403701543808,0.155004784465
2017/07/09/10:06:38.164434,438283,1499566000,969102348,,0.653732964697,-0.05334554402,0.260318734935,0.788164624399,0.574281173459,-0.218384313948,0.0361379312947,-0.0728342637332,-0.130837823866,0.0086336661389,-0.0611507519563,0.0795002763069,-0.215077244909,-0.486070722342,0.0300556868315,-1.41142880917,-0.0715782418847,-0.59874355793,0.232837095857
2017/07/09/10:06:38.174460,438284,1499566000,979102293,,0.653327130057,-0.0546621113042,0.260386245307,0.788640072429,0.573437305892,-0.21885197701,0.0363359949554,-0.0913718410221,-0.162603666334,0.0198737868617,-0.109163244568,0.091890209698,-0.256142125055,-0.545196771622,0.319788783789,-1.21355640888,-0.149840086699,-0.713004291058,0.261656522751
2017/07/09/10:06:38.184356,438285,1499566000,989104826,,0.65232030637,-0.0547479624331,0.260568789539,0.788854754585,0.573002120887,-0.219385854126,0.035307118777,-0.0688602602146,-0.123923151572,0.0067201774415,-0.0713420641398,0.075054467089,-0.195975625893,-1.07582175732,1.0964858532,-0.930522739887,-0.23344284296,-0.916199326515,0.358515232801
2017/07/09/10:06:38.194375,438286,1499566000,999105145,,0.651338918935,-0.0565435918076,0.260881029486,0.789604151388,0.571785911278,-0.219897734,0.0350876382395,-0.0526862964045,-0.105603718083,0.0265951594917,-0.0590716563868,0.0160118706889,-0.191608614542,-1.34308314323,0.485006123781,-0.774638831615,-0.131167322397,-0.917675077915,0.360827177763
2017/07/09/10:06:38.204388,438287,1499566001,9096181,,0.650935124831,-0.0586282070666,0.260654675944,0.790234856644,0.570682582912,-0.220404752416,0.0356651933787,-0.084795269563,-0.126303551081,0.00536002630509,-0.0622558844814,0.104240157059,-0.201224200197,-1.51228356361,0.0349539890885,-1.5541934967,-0.133630007505,-0.983051300049,0.367910563946
2017/07/09/10:06:38.214460,438288,1499566001,19103830,,0.649817064634,-0.0596334041517,0.260734860876,0.790626858632,0.569830997308,-0.221277911713,0.0351836709936,-0.0959694176927,-0.144293895037,-0.00989003532036,-0.0649870978731,0.120926166927,-0.22654945811,-1.42489624023,-0.242424890399,-1.26525068283,-0.0695367082953,-0.917296648026,0.271137833595
2017/07/09/10:06:38.224372,438289,1499566001,29100495,,0.649405116294,-0.0603756525479,0.26057519138,0.790861619361,0.569373431357,-0.221630427599,0.035096271162,-0.0751589410044,-0.134916592497,-0.00682834593109,-0.070091533443,0.0698685021377,-0.21212974559,-1.70913219452,0.503377497196,-1.5107998848,-0.176250874996,-1.06263101101,0.401274889708
2017/07/09/10:06:38.234477,438290,1499566001,39101249,,0.648339804793,-0.0618789216468,0.260252917603,0.791436092941,0.568345926034,-0.222272872427,0.034735994786,-0.0735128591375,-0.11095309266,-0.014210617603,-0.0633647741606,0.0999721413251,-0.162477217651,-2.79741311073,0.575574278831,-1.77951049805,-0.267560333014,-1.4085367918,0.53191691637
2017/07/09/10:06:38.244460,438291,1499566001,49095997,,0.648063963776,-0.0626888046752,0.260564328579,0.791833426328,0.567729091284,-0.222406004365,0.0349152270865,-0.0844792344762,-0.125417327083,-0.00617008021748,-0.0739385457197,0.0950055559291,-0.196744528759,-2.63894367218,0.867048919201,-0.977804899216,-0.264332145452,-1.4051450491,0.545538067818
2017/07/09/10:06:38.254539,438292,1499566001,59100438,,0.647051249569,-0.0640485623403,0.26052639783,0.792145569065,0.566967579671,-0.223296748956,0.0345213400346,-0.0741960682611,-0.133028620254,-0.00549543520343,-0.0915270498818,0.0707358432175,-0.191621300084,-2.65397167206,0.607174992561,-0.993467986584,-0.235986679792,-1.38890516758,0.533011972904
2017/07/09/10:06:38.264547,438293,1499566001,69096036,,0.646351131308,-0.064827481954,0.260568024082,0.792245920874,0.566560175138,-0.223974324719,0.0345176863641,-0.076996783026,-0.127179774143,-0.00573799804657,-0.0894115937558,0.0923776103235,-0.168323055527,-1.37693822384,0.460060983896,-0.499651074409,-0.123836919665,-1.03160810471,0.350834280252
2017/07/09/10:06:38.274483,438294,1499566001,79103142,,0.645196864469,-0.0666822508865,0.260528207409,0.792812695624,0.565438459308,-0.224834793432,0.0343029744314,-0.0673645379606,-0.119419415021,-0.00485239631806,-0.0815475080936,0.0603217479927,-0.159447885473,-0.479012697935,-0.677144408226,-0.496624857187,0.171272143722,-0.665708899498,0.126349493861
2017/07/09/10:06:38.284488,438295,1499566001,89102892,,0.644675156726,-0.0675270665206,0.259966450878,0.793290109124,0.564745935149,-0.224946705844,0.0339383415795,-0.0851848682659,-0.134904074468,-0.0141525777663,-0.0740741520928,0.0936996968506,-0.185760068254,-0.390446782112,-0.279171019793,-0.663132488728,0.115683354437,-0.700524151325,0.163895025849
2017/07/09/10:06:38.294401,438296,1499566001,99099739,,0.644750942103,-0.0682429467994,0.259849234661,0.793296974531,0.564622243576,-0.225177899874,0.0343008114868,-0.0752542200357,-0.128586209297,-0.0185021859398,-0.0756989946039,0.0768223447592,-0.18753121018,-0.62781983614,0.111714050174,-0.514703691006,-0.0226115118712,-0.850494921207,0.262416273355
2017/07/09/10:06:38.304398,438297,1499566001,109104954,,0.643997457854,-0.0696454180437,0.259723251134,0.793816407079,0.563789352792,-0.225463196694,0.0341090085935,-0.0631157536464,-0.134488916729,0.000382073678797,-0.0871227627425,0.0358648186146,-0.186288456041,-2.28207421303,0.670900344849,-1.09679806232,-0.260617524385,-1.38109505177,0.514986753464
2017/07/09/10:06:38.314507,438298,1499566001,119103163,,0.643297843382,-0.0710963803249,0.259910678014,0.794149746845,0.562857249777,-0.226553779951,0.0345149351552,-0.0462405690706,-0.113384238096,-0.00414915607349,-0.0847914952995,0.0302395052541,-0.137642559368,-2.74143433571,0.476219326258,-1.12699317932,-0.266354233027,-1.48181200027,0.556619822979
2017/07/09/10:06:38.324514,438299,1499566001,129103256,,0.642728045263,-0.0718768726695,0.259271392683,0.794502016619,0.562265069944,-0.226867292382,0.0339965933026,-0.0676169176338,-0.124579694244,-0.011658490548,-0.111192194699,0.0916475910091,-0.144926173481,-3.30046391487,0.8988057971,-1.34463524818,-0.319044053555,-1.69354462624,0.641440689564
2017/07/09/10:06:38.334784,438300,1499566001,139103126,,0.641462145394,-0.0739181715996,0.259523135004,0.794612187242,0.561449400886,-0.228449815504,0.0343034098486,-0.080410547926,-0.139045212077,-0.0133244652085,-0.103525172197,0.0932763510067,-0.179778007473,-2.72990369797,0.215080291033,-1.31339621544,-0.0911251828074,-1.48291909695,0.513906955719
2017/07/09/10:06:38.344319,438301,1499566001,149098745,,0.641065266458,-0.0748478360986,0.259629168415,0.795106486511,0.560792619981,-0.228350662988,0.0342532800619,-0.0626468589759,-0.126334430576,-0.0126027564103,-0.0965491242718,0.064941270249,-0.141513625505,-1.45529437065,0.280466169119,-0.986317396164,-0.0086579779163,-1.09534907341,0.343974381685
2017/07/09/10:06:38.354469,438302,1499566001,159094851,,0.640680143165,-0.0760908928324,0.259372267543,0.795503217691,0.5602148085,-0.228390546085,0.0342309427134,-0.0614467719844,-0.123500088205,-0.00910496000066,-0.096880419193,0.0613167472234,-0.135033572752,-2.4908413887,0.595816731453,-1.06898033619,-0.204177066684,-1.45126223564,0.512972414494
2017/07/09/10:06:38.364397,438303,1499566001,169104114,,0.639946507834,-0.0769303079633,0.259428492953,0.795744930316,0.559491754096,-0.229300553743,0.0343546070808,-0.0705892760485,-0.126209967389,-0.00459997943221,-0.116006127509,0.0780825212771,-0.15956485144,-2.65136194229,0.9010643363,-1.03333985806,-0.232993394136,-1.4932359457,0.56770670414
2017/07/09/10:06:38.374378,438304,1499566001,179103741,,0.639452588751,-0.0786349910113,0.259595437547,0.795877860505,0.558895213042,-0.23019367158,0.0350063645897,-0.0579583529124,-0.128040975383,0.00678743332899,-0.148773306159,0.064900237271,-0.13139746049,-2.11234855652,0.144558340311,-0.717646896839,-0.0910401940346,-1.32626366615,0.436131387949
2017/07/09/10:06:38.384555,438305,1499566001,189097423,,0.638620105938,-0.0799677689063,0.259572288075,0.796203273077,0.558116299714,-0.230975560051,0.0348831562987,-0.0642095833546,-0.154572438179,0.0110214347705,-0.180785675955,0.0569442149075,-0.161333875555,-2.76025414467,0.460897684097,-1.2856760025,-0.26354470849,-1.43126225471,0.551331460476
2017/07/09/10:06:38.394347,438306,1499566001,199096167,,0.63767041909,-0.082083990208,0.259398914738,0.796811743083,0.556813576726,-0.231968509534,0.0352178568853,-0.0806625162168,-0.160564844011,-0.00620922090383,-0.158049121992,0.102326489525,-0.168007658507,-2.82699203491,0.22765468061,-1.11457383633,-0.181600704789,-1.50418901443,0.5262414217
2017/07/09/10:06:38.404300,438307,1499566001,209094049,,0.63715966788,-0.0830109119782,0.259665606599,0.796961445165,0.556298807728,-0.232645656781,0.0354977439002,-0.0770340106924,-0.146875545779,0.00707211740036,-0.177782926039,0.103550454088,-0.152314812783,-2.97660517693,0.499750882387,-1.52880060673,-0.272635519505,-1.57638251781,0.58087515831
2017/07/09/10:06:38.414473,438308,1499566001,219103659,,0.636679446689,-0.0836301343042,0.259502371037,0.796680559762,0.556120267131,-0.233993072261,0.0357431996053,-0.0693614168093,-0.115683625201,-0.00125925203895,-0.147571357882,0.125722650921,-0.10650259482,-3.3008377552,0.732917487621,-1.11656653881,-0.234588205814,-1.74289977551,0.662767648697
2017/07/09/10:06:38.424554,438309,1499566001,229099816,,0.636086727626,-0.0854591578122,0.259634564772,0.797259568482,0.555020087449,-0.234545818517,0.0363062254677,-0.0600108191493,-0.124049341621,0.00664000478574,-0.205059411255,0.110857195408,-0.0992273701751,-3.04718470573,0.385340154171,-1.11036789417,-0.19344009459,-1.67684412003,0.631125211716
2017/07/09/10:06:38.434504,438310,1499566001,239103770,,0.634766581504,-0.0872478653982,0.259747245417,0.797462210792,0.554185070505,-0.235838237448,0.0362388706499,-0.0710138668136,-0.148426085189,0.00612552939427,-0.198431925826,0.0967558498862,-0.122103619233,-3.40611410141,0.0886126160622,-1.26275086403,-0.157922700047,-1.66631174088,0.598105609417
2017/07/09/10:06:38.444424,438311,1499566001,249105775,,0.63410743901,-0.0882835994336,0.259405259842,0.797490925903,0.553773120045,-0.236726982404,0.0361094228707,-0.0867052913103,-0.170234594848,0.00571816667617,-0.208619115848,0.115009204567,-0.168610982234,-2.84845113754,0.29094466567,-0.880968511105,-0.137679278851,-1.44006979465,0.47361767292
2017/07/09/10:06:38.454452,438312,1499566001,259102385,,0.633368269051,-0.089844513873,0.259839105533,0.797710367152,0.552931544761,-0.237878164826,0.0365903764052,-0.0840735257297,-0.156414699325,-0.00189720804459,-0.209316793528,0.140743840222,-0.150917679827,-3.01237106323,0.208453327417,-0.683762431145,-0.0857733786106,-1.52523851395,0.53677290678
2017/07/09/10:06:38.464242,438313,1499566001,269096123,,0.632613959176,-0.090933897288,0.259534065242,0.797717467497,0.552373691752,-0.239124911438,0.0367344993211,-0.0778543691322,-0.127595127156,-0.00496285071688,-0.186520038541,0.154472690743,-0.125302637054,-3.11567807198,0.785115361214,-0.548727333546,-0.196192517877,-1.60178112984,0.592477679253
2017/07/09/10:06:38.474325,438314,1499566001,279096494,,0.632239545328,-0.0924116317901,0.260065991443,0.797907277509,0.551561119403,-0.240206866962,0.0377487632307,-0.0770874847863,-0.139520341645,0.0120720502619,-0.217906572217,0.144468844186,-0.109776691355,-3.53608560562,0.874720394611,-0.802139639854,-0.208347499371,-1.72510445118,0.655271947384
2017/07/09/10:06:38.484217,438315,1499566001,289104680,,0.631119451836,-0.0944524338664,0.260161464319,0.798226195025,0.550607840474,-0.2412832268,0.0380572207412,-0.0883892820894,-0.163958064544,0.0274198336521,-0.26185619036,0.131821709247,-0.165029466878,-3.66165947914,0.41459107399,-0.939423561096,-0.174320742488,-1.69920444489,0.617299377918
2017/07/09/10:06:38.494657,438316,1499566001,299103092,,0.631033690736,-0.0949480375883,0.260504568518,0.798267565822,0.550253396956,-0.241898883119,0.0384060260901,-0.0842025300003,-0.154471828781,0.0139225655872,-0.236276566926,0.147538513339,-0.144054229018,-1.77282810211,0.586303472519,-1.09017121792,-0.10227547586,-1.14704227448,0.351063907146
2017/07/09/10:06:38.504490,438317,1499566001,309104075,,0.629381551834,-0.0966048270473,0.260185772179,0.798175312824,0.549365800837,-0.244250164668,0.0381476595515,-0.0756874618861,-0.137035750965,0.00597836975669,-0.213408412446,0.152053860004,-0.105888111851,-2.4140689373,0.579317450523,-1.06603622437,-0.141413718462,-1.29339122772,0.457301706076
2017/07/09/10:06:38.515238,438318,1499566001,319102962,,0.629488918217,-0.0980149062622,0.260524843157,0.798432178181,0.548933950114,-0.244223834427,0.0391445265105,-0.0884218184421,-0.153671112414,0.00615341712704,-0.219056632016,0.156125196147,-0.144412830781,-2.23584914207,0.348090291023,-0.90001142025,-0.195781201124,-1.27092719078,0.453069716692
2017/07/09/10:06:38.524466,438319,1499566001,329103524,,0.628614938553,-0.0994015861943,0.259955043351,0.798244240071,0.548507083784,-0.245792704335,0.0391415217988,-0.0794969420332,-0.150696594366,-0.00059277448324,-0.212438465759,0.153781400155,-0.110155342325,-3.82311606407,0.869478821754,-1.53602564335,-0.420996427536,-1.78509306908,0.741511821747
2017/07/09/10:06:38.534520,438320,1499566001,339129381,,0.627496853904,-0.100823576786,0.259884081062,0.798544744138,0.54744267654,-0.247180481191,0.039174190877,-0.0736199234394,-0.143586047481,-0.00234885900186,-0.226016843562,0.156021366805,-0.095090694098,-4.1711306572,0.950012743473,-1.29719007015,-0.453186273575,-1.87895154953,0.750905930996
2017/07/09/10:06:38.544367,438321,1499566001,349101893,,0.627279462193,-0.101586464505,0.260025211847,0.798283589527,0.547370572693,-0.248094294977,0.0397238925848,-0.0655394991877,-0.133924747736,0.00893513840372,-0.238007475986,0.126263849714,-0.0969690015497,-4.02056980133,1.1865670681,-0.992802083492,-0.49574059248,-1.85844612122,0.790375471115
2017/07/09/10:06:38.554382,438322,1499566001,359103161,,0.626730410414,-0.103393211538,0.2604532205,0.798611236019,0.546403174667,-0.249032324528,0.0405778974086,-0.0468056392361,-0.118163294913,0.0117417999376,-0.238633886634,0.106243636032,-0.0575594628626,-3.50424551964,0.52869194746,-0.564528465271,-0.338565587997,-1.69219911098,0.673841178417
2017/07/09/10:06:38.564267,438323,1499566001,369102372,,0.62596496579,-0.104814102564,0.260212863288,0.798734114317,0.545561047496,-0.250401748727,0.04105998437,-0.0662561227371,-0.155047883205,0.00658388399634,-0.236575871559,0.101779427647,-0.1107557094,-3.15311837196,0.309655994177,-0.942774057388,-0.209324970841,-1.53778398037,0.585067510605
2017/07/09/10:06:38.574564,438324,1499566001,379102833,,0.625788294236,-0.105601303098,0.260370537261,0.79846095282,0.545519447712,-0.251289251509,0.0415012176373,-0.0541707135171,-0.12186413453,-0.00250034947934,-0.186012812826,0.106857865676,-0.0822765581762,-2.08777117729,0.139113217592,-1.21645128727,-0.139783859253,-1.20347929001,0.419253617525
2017/07/09/10:06:38.584320,438325,1499566001,389097810,,0.625075681486,-0.106939534078,0.260005501605,0.798966330858,0.544621374629,-0.251650633375,0.0413801785105,-0.0566049254564,-0.108495406807,-0.0176511007959,-0.154438118312,0.125143834659,-0.0764630656946,-1.96441483498,-0.0190234929323,-1.3221834898,-0.148280769587,-1.16540157795,0.382192313671
2017/07/09/10:06:38.594344,438326,1499566001,399095630,,0.624801399241,-0.107390570762,0.260115354405,0.798605969496,0.544633588033,-0.252698840062,0.0417858409466,-0.0630408290757,-0.128298868375,-0.00745695435308,-0.177355090885,0.111051099103,-0.112465688635,-2.33994531631,0.864900231361,-1.64011836052,-0.293340414762,-1.25890505314,0.506636500359
2017/07/09/10:06:38.604351,438327,1499566001,409103197,,0.624243249167,-0.108488614484,0.259828864339,0.798524525946,0.544172614187,-0.253905507263,0.0420326160713,-0.0503657692423,-0.106282753081,-0.0133142976085,-0.186742895337,0.137728052997,-0.0494961493975,-2.79918789864,1.05974733829,-1.15612196922,-0.327780902386,-1.45992970467,0.600286006927
2017/07/09/10:06:38.614497,438328,1499566001,419103676,,0.623563026501,-0.110065362748,0.259482804557,0.798963633937,0.543182280397,-0.254616627421,0.0421959115267,-0.0381720679187,-0.102775608025,-0.00843000681691,-0.177278284697,0.0905582365371,-0.0436181403623,-3.87639927864,0.528336942196,-1.69998764992,-0.372721076012,-1.72936630249,0.690337777138
2017/07/09/10:06:38.624631,438329,1499566001,429104751,,0.622485506575,-0.111008071969,0.259384119134,0.799025175416,0.542585784681,-0.255748284135,0.0418598910149,-0.0488712440906,-0.110627331471,-0.0234194247136,-0.161138677215,0.104140255599,-0.0762864611085,-4.22520303726,0.429933220148,-1.40917778015,-0.362467706203,-1.79813551903,0.716816425323
2017/07/09/10:06:38.634396,438330,1499566001,439119535,,0.622531026618,-0.111908754594,0.25941860497,0.79900822542,0.542478545579,-0.255932989099,0.0424404098595,-0.0683431315394,-0.107245526679,-0.0185984113783,-0.140932393964,0.142827754215,-0.100855810073,-3.33358311653,0.427085936069,-1.02956902981,-0.245281666517,-1.57894062996,0.599187135696
2017/07/09/10:06:38.644516,438331,1499566001,449102013,,0.622572139959,-0.112218207809,0.258987058162,0.798475014602,0.542748502175,-0.256976410961,0.0427181302548,-0.0427356337723,-0.0845634555519,-0.00704536479653,-0.15309839273,0.113533250285,-0.0394397991812,-1.94057798386,0.352582037449,-1.32958245277,-0.197855189443,-1.14691984653,0.448729455471
2017/07/09/10:06:38.654250,438332,1499566001,459103091,,0.621606609296,-0.113754469934,0.259285227365,0.799016353776,0.541609078976,-0.257669173262,0.0428843691903,-0.0379860245882,-0.0738157244711,-0.0158995339937,-0.121437875343,0.110575674583,-0.0356610967458,-1.85612368584,-0.28235834837,-1.32651817799,-0.149383127689,-1.07705497742,0.346975982189
2017/07/09/10:06:38.664194,438333,1499566001,469097584,,0.621100539988,-0.114124063874,0.25866934347,0.798586186802,0.541543967989,-0.259158455363,0.0427449178074,-0.0514176381331,-0.0846558037492,-0.0222947291277,-0.118391805487,0.127771148549,-0.0662974669205,-1.79346144199,0.547674417496,-1.57850074768,-0.269163072109,-1.10248756409,0.441980540752
2017/07/09/10:06:38.674451,438334,1499566001,479095139,,0.621018091782,-0.114840700853,0.259035637951,0.798709055856,0.541269568899,-0.259259843911,0.0433062491252,-0.0272984942938,-0.0714601017858,-0.0189182027435,-0.131191791142,0.0846101921666,-0.0256191421431,-2.42422747612,0.259865581989,-1.27867019176,-0.225415423512,-1.26184654236,0.469856411219
2017/07/09/10:06:38.684829,438335,1499566001,489098720,,0.620503581489,-0.115719653538,0.258581158442,0.799027534219,0.540608718914,-0.25969220296,0.0430949221514,-0.0345614750734,-0.0820962305731,-0.0210734933199,-0.112788319222,0.077219344798,-0.0468947372168,-3.04867124557,0.356699973345,-1.16237831116,-0.244399055839,-1.49809515476,0.564111173153
2017/07/09/10:06:38.694427,438336,1499566001,499101771,,0.620171668343,-0.115989406654,0.257989343415,0.798461479225,0.541082261649,-0.260509018801,0.0427118653989,-0.0447173952496,-0.0842098678524,-0.0213218192642,-0.096468211522,0.093835874727,-0.0571006260498,-2.92515134811,0.890439510345,-1.4338876009,-0.376832723618,-1.46086442471,0.618479728699
2017/07/09/10:06:38.704473,438337,1499566001,509095703,,0.619936789222,-0.116718219903,0.258112572598,0.798507927188,0.540708559651,-0.261055477082,0.0432363460933,-0.0391459567174,-0.0594961375921,-0.0318572373194,-0.0783043835569,0.126237950854,-0.0184852527451,-2.55198407173,1.0498496294,-1.13220179081,-0.365187913179,-1.36981749535,0.565213501453
2017/07/09/10:06:38.714530,438338,1499566001,519102752,,0.619952249158,-0.117269171209,0.257719340313,0.798681417223,0.540352969436,-0.261235479493,0.0433899349921,-0.0218272716793,-0.0388893265281,-0.0279645562462,-0.0792390935433,0.0876590448395,-0.0284378207357,-1.86041212082,0.778432548046,-1.00333476067,-0.359487950802,-1.14713406563,0.455045342445
2017/07/09/10:06:38.724430,438339,1499566001,529102220,,0.619362894079,-0.117918699188,0.257150394764,0.798478976196,0.540228885198,-0.262160520974,0.0430805920669,-0.0408247967928,-0.0586912465051,-0.0236568400596,-0.0762826772321,0.100028992869,-0.0518686474016,-2.20069241524,0.315298378468,-1.28171050549,-0.250052511692,-1.21464145184,0.476164221764
2017/07/09/10:06:38.734467,438340,1499566001,539103155,,0.618800729643,-0.118461894714,0.257348947396,0.798919407602,0.539475755566,-0.262400346679,0.0428922764251,-0.0368048671449,-0.0555297884032,-0.0368127995189,-0.048513368664,0.0980180038688,-0.0420629725614,-1.32228410244,0.188659399748,-1.07035136223,-0.210289239883,-0.901853978634,0.317881673574
2017/07/09/10:06:38.744360,438341,1499566001,549102970,,0.618905889581,-0.118208416976,0.256914273484,0.798707079226,0.539772300033,-0.262477256789,0.0426445234388,-0.0269549289958,-0.033212374387,-0.0403320871437,-0.0290211180761,0.0975752257167,-0.0318990676274,-1.4744040966,0.64008462429,-1.20835745335,-0.247255668044,-1.01363039017,0.38593313098
2017/07/09/10:06:38.754281,438342,1499566001,559103025,,0.618119038705,-0.118760710094,0.256116844574,0.798687597454,0.539479583254,-0.263247599492,0.0419595315254,-0.0257311411294,-0.0313426084767,-0.035664408666,-0.0205250743631,0.0822626614409,-0.0397316600266,-2.23733115196,0.466367959976,-1.08184623718,-0.22889238596,-1.23204660416,0.491820305586
2017/07/09/10:06:38.764387,438343,1499566001,569101244,,0.617914748689,-0.118882294503,0.25568088835,0.798763674696,0.539247209581,-0.26353262031,0.0417084760902,-0.0264350060736,-0.0352842584901,-0.0243225611068,-0.0234959621307,0.0617969142141,-0.0411353423457,-2.38384842873,0.412765085697,-1.31134593487,-0.27663230896,-1.2199947834,0.485916733742
2017/07/09/10:06:38.774262,438344,1499566001,579101240,,0.617898419648,-0.118948707698,0.255699770688,0.798591147361,0.539381534854,-0.26378128009,0.0417034230014,-0.0288727660099,-0.0254553645505,-0.0409175285176,0.00946853985716,0.0805190013145,-0.0491064189639,-1.69817662239,0.614456534386,-1.05309247971,-0.29106760025,-1.05522549152,0.402312219143
2017/07/09/10:06:38.784496,438345,1499566001,589097001,,0.617990351844,-0.119060228309,0.255518844743,0.798577799385,0.539281095387,-0.263990309365,0.0419346521215,-0.0106559528301,-0.0116210222158,-0.0378008705005,0.00463002092686,0.05180743226,-0.0130322881878,-1.64617526531,0.451427042484,-0.91674977541,-0.185427948833,-1.08310258389,0.412051230669
2017/07/09/10:06:38.794514,438346,1499566001,599100335,,0.617695195919,-0.11918014551,0.25498625607,0.798400483199,0.539477210395,-0.264208276802,0.0414124904122,-0.00527875919911,-0.0108556276572,-0.0299526183174,-0.00281832085087,0.0410332511005,0.00528029640049,-2.27360892296,0.578117012978,-1.17244243622,-0.239685028791,-1.24995958805,0.482693761587
2017/07/09/10:06:38.804502,438347,1499566001,609107716,,0.617054043881,-0.119936192652,0.254552638846,0.798579804851,0.539091775202,-0.264531284774,0.0409090768504,-0.0216931097743,-0.0235638396678,-0.0320399836194,0.0050025686694,0.0599608622075,-0.025997403629,-1.56552863121,-0.206149101257,-1.32304894924,-0.0720991492271,-0.967736184597,0.307741343975
2017/07/09/10:06:38.814530,438348,1499566001,619103390,,0.6172985335,-0.119489400128,0.254322685743,0.798435128824,0.539275035059,-0.264596220763,0.0408976965167,-0.0330901624195,-0.0321145974694,-0.0347827596328,0.0107866379437,0.0704896192629,-0.0675436715946,-1.36823785305,0.356948375702,-1.42753469944,-0.116782672703,-0.936028540134,0.3159545362
2017/07/09/10:06:38.824322,438349,1499566001,629095886,,0.617265996075,-0.120030467272,0.254125134736,0.798472045034,0.539086956303,-0.264821847827,0.0411950938335,-0.0121519220466,-0.00744542871562,-0.0318351870678,0.0156831595943,0.0513318783353,-0.0185242405775,-1.72550046444,0.308541506529,-1.33589804173,-0.162826895714,-1.05731499195,0.383824706078
2017/07/09/10:06:38.834392,438350,1499566001,639102795,,0.616465304053,-0.120188592701,0.253578990413,0.798411951715,0.538883850325,-0.265568226477,0.0402003520341,0.000779566190252,0.00131666338686,-0.0305423926539,0.0293226805865,0.0341190437195,0.00983140463122,-2.20466566086,0.368531525135,-1.76898336411,-0.192680358887,-1.14219927788,0.451746791601
2017/07/09/10:06:38.844643,438351,1499566001,649097742,,0.61715695447,-0.120029725125,0.253288790883,0.798322984343,0.539293941067,-0.264950603405,0.0405417754098,-0.00969495554846,-0.00658275158706,-0.0380141431125,0.0340452617512,0.0470155798726,-0.0144588439147,-1.80425632,0.481766462326,-1.61364424229,-0.229786172509,-1.09291124344,0.39501991868
2017/07/09/10:06:38.854300,438352,1499566001,659095016,,0.616896767168,-0.119975765594,0.252849814087,0.798293782799,0.539288777921,-0.265131630047,0.0399983637224,-0.0143332831343,-0.0298959779489,-0.0284602348787,0.0119792799972,0.0154118982133,-0.0361174174179,-2.32556605339,0.734563052654,-1.77373707294,-0.228267431259,-1.24562036991,0.5167979002
2017/07/09/10:06:38.864217,438353,1499566001,669097924,,0.616572969205,-0.120745692913,0.253037303109,0.798703051731,0.538595583644,-0.26527427267,0.0402217937664,-0.0165333239939,-0.0105479493756,-0.0204911162305,0.00472604721701,0.0465400304969,-0.0223095123336,-2.95713639259,0.366908729076,-1.16267204285,-0.241810321808,-1.46221625805,0.560055375099
2017/07/09/10:06:38.874291,438354,1499566001,679096933,,0.616939437462,-0.119864379476,0.252525183517,0.798184344942,0.539297463762,-0.265434669627,0.0400553770387,-0.00976225790607,0.0133417844645,-0.0310273042558,0.00247729503681,0.0658625513574,0.0130856926087,-1.95177459717,0.613303780556,-1.07841205597,-0.222950235009,-1.20210385323,0.467774450779
2017/07/09/10:06:38.884477,438355,1499566001,689099718,,0.617028816211,-0.11987549746,0.252158418847,0.79836282655,0.539266159107,-0.265014430996,0.0397008587903,-0.00137673140568,0.00472807390029,-0.034815968035,0.0223040607547,0.0362468138799,-0.00330899894552,-1.84696161747,0.315763264894,-1.23505949974,-0.230679869652,-1.10369884968,0.391829311848
2017/07/09/10:06:38.894400,438356,1499566001,699100255,,0.616296785509,-0.120817417609,0.252006847979,0.798520056221,0.538680636811,-0.265743524869,0.0396140168132,-0.0108170785099,-0.00929699850256,-0.029011642331,0.0305451502045,0.0353809683736,-0.0252972734815,-2.01433420181,0.425434708595,-1.25967228413,-0.183851897717,-1.18416428566,0.457748055458
2017/07/09/10:06:38.904402,438357,1499566001,709096363,,0.615997721521,-0.120303000442,0.251968604311,0.798478846637,0.538647144697,-0.266036574922,0.0389271857005,-0.0187472849797,-0.0167134860878,-0.028947040719,0.02666554213,0.0336012202393,-0.0467685703388,-1.9310311079,0.644843399525,-1.49478578568,-0.243579030037,-1.09451663494,0.434617936611
2017/07/09/10:06:38.914638,438358,1499566001,719105744,,0.616472826333,-0.120128746799,0.251566202325,0.798076555882,0.539287567567,-0.265910398462,0.0391712957314,-0.0246850417349,-0.0127918209156,-0.017780294644,0.0083661695158,0.0630237281757,-0.0331808176343,-1.91653609276,0.695930182934,-1.71171152592,-0.280692309141,-1.14264667034,0.462191641331
2017/07/09/10:06:38.924431,438359,1499566001,729096324,,0.616356116318,-0.120211172487,0.251501420812,0.798203508746,0.539176224556,-0.265781068903,0.0389946267135,-0.00608607744356,-0.0127232744174,-0.0201719330783,-0.00976584170321,0.0239327325837,-0.0146516246141,-2.44627976418,0.72835123539,-1.49219536781,-0.29690554738,-1.26870977879,0.547250568867
2017/07/09/10:06:38.934206,438360,1499566001,739097954,,0.616323608909,-0.120254649911,0.251480432503,0.798150205421,0.53931531704,-0.265677345456,0.0388688371783,0.0112215313193,0.00720748017639,-0.0158922559031,0.00591331013443,0.016564060314,0.0495894889442,-1.60027194023,0.597035706043,-1.41856849194,-0.231254383922,-1.02741336823,0.413907855749
2017/07/09/10:06:38.944446,438361,1499566001,749101532,,0.616478997914,-0.120457232217,0.250857471168,0.798299593691,0.539024072695,-0.265801682091,0.03899068561,0.00135358488916,-0.00780417088025,-0.0268298516451,0.0111908228427,0.0188391238202,0.0111100734246,-1.75196838379,0.816747009754,-1.7215218544,-0.242393881083,-1.08765161037,0.465580105782
2017/07/09/10:06:38.954392,438362,1499566001,759102902,,0.616165014557,-0.121053735323,0.250406718965,0.798447885975,0.538773492464,-0.265898373549,0.0387576075629,-0.010017376267,-0.012460846728,-0.0187458905705,0.00599052384018,0.0197693693522,-0.0297568751592,-1.23244869709,0.203091859818,-2.11866140366,-0.209024488926,-0.830419123173,0.288394361734
2017/07/09/10:06:38.964489,438363,1499566001,769105036,,0.616186671151,-0.120922677402,0.250014492113,0.798341418611,0.538791886459,-0.266194909742,0.0386594418295,-0.018349336584,-0.0184994265478,-0.0211881579319,0.00150377050248,0.0363942478609,-0.0370290127008,-1.38165044785,0.750187754631,-2.13660955429,-0.281512469053,-0.937096953392,0.40658929944
2017/07/09/10:06:38.974482,438364,1499566001,779102815,,0.615055125935,-0.12138510044,0.25014172482,0.798442353008,0.53822084767,-0.267149869351,0.0379351467963,-0.00871811377034,-0.0256808692858,-0.0201851669023,-0.00699336632941,0.0133165219787,-0.0291707543012,-2.00370359421,0.624253213406,-1.82691335678,-0.279830873013,-1.09404850006,0.450512647629
2017/07/09/10:06:38.984480,438365,1499566001,789104173,,0.616299079427,-0.121103893349,0.250367187783,0.798445137355,0.538824934127,-0.265781480929,0.0389006091612,-0.00815082478107,-0.00617856223873,-0.0217626432962,0.0124287236438,0.0299917841748,-0.0129786785753,-2.05212497711,0.906476974487,-1.37945890427,-0.278943866491,-1.22401762009,0.516396105289
2017/07/09/10:06:38.994508,438366,1499566001,799103304,,0.61578869544,-0.121379848896,0.250004111442,0.79830204531,0.538664063321,-0.266582270594,0.0385845091309,7.83530158484e-05,-0.0115692659983,-0.0171688409448,8.76531271624e-05,0.000142978588969,-0.00486645779268,-2.43995785713,1.12436771393,-1.30037915707,-0.40359583497,-1.31614685059,0.585728168488
2017/07/09/10:06:39.004294,438367,1499566001,809103369,,0.615705407738,-0.121204703626,0.249946502068,0.798651234558,0.538377957961,-0.266171185902,0.0381874287824,0.00323649511863,0.00151572152566,-0.0197724520915,0.00901027361047,0.0219660587027,0.0288420262204,-2.53328824043,1.17744362354,-1.36067354679,-0.351097404957,-1.35654258728,0.564452290535
2017/07/09/10:06:39.014377,438368,1499566001,819108396,,0.615827523409,-0.120968546756,0.249579250842,0.798228187048,0.538971214373,-0.266267467534,0.0379924625689,-0.00540344225179,0.0088325828056,-0.0134724559752,0.0170537012667,0.035127284444,0.0109510259262,-3.01069045067,0.976561009884,-1.16752827168,-0.3482619524,-1.54016852379,0.643427371979
2017/07/09/10:06:39.024600,438369,1499566001,829096992,,0.615819771033,-0.120992028078,0.249757376709,0.798282639221,0.538710009108,-0.266610849867,0.0381445767853,-0.000599712596617,0.0113419379424,-0.0313875123466,0.0298154475317,0.0301354046294,0.0182266185783,-2.19079828262,0.439387917519,-1.27842712402,-0.1621555686,-1.25050675869,0.487557590008
2017/07/09/10:06:39.034376,438370,1499566001,839102115,,0.615836776703,-0.121098606517,0.249148060136,0.798119002676,0.539041077848,-0.266461387314,0.0379355114822,0.00264889468012,-0.0188218736883,-0.0101265225877,-0.0195041291106,-0.0161078107789,-0.0235685054379,-1.59534049034,0.491743445396,-1.4620257616,-0.18922111392,-1.0470045805,0.364743739367
2017/07/09/10:06:39.044223,438371,1499566001,849096649,,0.615625408404,-0.120848371092,0.248818389125,0.79821487973,0.538890672102,-0.266538838513,0.0375086238431,-0.00449714497491,-0.00530079248815,-0.0192098803419,0.0124117651355,0.0181195044978,-0.0102794925282,-2.2264122963,0.398323088884,-1.86754870415,-0.222383931279,-1.13205528259,0.455434262753
2017/07/09/10:06:39.054426,438372,1499566001,859100524,,0.615345640968,-0.121009209129,0.24885909195,0.798217491473,0.538839080087,-0.266669629434,0.0372638003272,-0.0107775552807,-0.01584501657,-0.0109525948875,0.012694181984,0.0174350836646,-0.0183017745848,-2.34920024872,0.55129724741,-1.99460041523,-0.237192794681,-1.20178282261,0.469463944435
2017/07/09/10:06:39.064173,438373,1499566001,869097108,,0.615812314999,-0.121511760922,0.24921447212,0.798178758242,0.53874136157,-0.266832499229,0.0383253516635,-0.0142920653972,-0.0101344088898,-0.0215937874558,0.0245916613627,0.0365349298575,-0.0192763893916,-1.78155314922,0.569592952728,-1.32305765152,-0.284207105637,-1.08702933788,0.452152073383
2017/07/09/10:06:39.074292,438374,1499566001,879102950,,0.615515653969,-0.12136936992,0.248635387722,0.798365777314,0.538708839872,-0.266480460641,0.0373233915255,-0.00537686542968,-0.00954485633929,-0.0143271641799,0.00049784063706,0.0170515874654,-0.0240456238714,-3.01875495911,1.01259112358,-1.57514762878,-0.392851293087,-1.47393512726,0.65714263916
2017/07/09/10:06:39.084729,438375,1499566001,889102398,,0.615790532653,-0.121336818105,0.248521931196,0.79837115558,0.538670273006,-0.266480142425,0.0377646476332,0.00467082420526,-0.00123491504557,-0.0105437184926,0.00589301542317,-0.00590881141498,-0.00215105638618,-2.64262914658,0.664427876472,-1.43473792076,-0.290570288897,-1.35528111458,0.544950604439
2017/07/09/10:06:39.094550,438376,1499566001,899104637,,0.615412568218,-0.121185515786,0.248503640406,0.798203691945,0.538772791028,-0.266839200337,0.0373039807095,0.00382670477984,-0.00700279366993,-0.00963671767758,-0.00615895971031,-0.00996237503497,0.011439851014,-2.80854082108,0.822174668312,-1.38012349606,-0.347474336624,-1.36912083626,0.609876394272
2017/07/09/10:06:39.104374,438377,1499566001,909097392,,0.615404620962,-0.121730887238,0.248465021346,0.798284755271,0.53856612502,-0.266971074195,0.0376088291002,-0.00853867731919,-0.00764093523155,-0.0121614586492,-0.0160667159898,0.0288305852922,-0.0134547173829,-2.51934766769,0.79555773735,-1.34664189816,-0.335074782372,-1.32156288624,0.537916839123
2017/07/09/10:06:39.114386,438378,1499566001,919096828,,0.61549803819,-0.12203726447,0.248225391142,0.798337693198,0.538536981735,-0.266839292012,0.0378370078231,0.000564142311781,-0.00372984599624,-0.0140734842414,0.00593194070112,0.00298738856462,0.00171103513463,-3.17560863495,0.610379338264,-1.35274934769,-0.274137556553,-1.54276454449,0.659821689129
2017/07/09/10:06:39.124233,438379,1499566001,929097494,,0.615656108581,-0.12189751972,0.248403900416,0.798106049337,0.538804469395,-0.2669848622,0.0378887994869,-0.00122031025585,-0.000915166955012,-0.0076745585481,-0.0081524499784,0.0104252598676,0.00157813153413,-2.48252892494,0.836122870445,-1.42154765129,-0.333549082279,-1.306889534,0.561223506927
2017/07/09/10:06:39.134283,438380,1499566001,939103367,,0.615714470539,-0.121505374577,0.2480470123,0.798131917196,0.538948698931,-0.266670576641,0.0375039494941,-0.00109643047468,0.00416219917099,-0.00579177453125,0.00641307586623,0.0111084023995,-0.00816248354024,-2.09329938889,0.808440744877,-1.57232260704,-0.301306009293,-1.17532992363,0.493251234293
2017/07/09/10:06:39.144410,438381,1499566001,949110186,,0.615389021577,-0.121662949967,0.248257934804,0.798192590775,0.538610145549,-0.267170093437,0.0375211982276,0.00186127949139,0.00993387085253,-0.00420098930649,0.0115520870679,0.0125508860545,0.0106708534904,-1.75580811501,0.32273453474,-1.45666277409,-0.245720267296,-1.03293228149,0.419422090054
2017/07/09/10:06:39.154458,438382,1499566001,959100226,,0.615427396828,-0.121799163986,0.248121249159,0.798537453147,0.53842633343,-0.266539134659,0.0373082978178,0.00368715040536,-0.00331065951977,0.00118607617784,-0.0115990703266,-0.000971450320814,0.00606729924745,-1.19974565506,-0.197551220655,-1.2702691555,-0.102260008454,-0.813148617744,0.232032850385
2017/07/09/10:06:39.164696,438383,1499566001,969094651,,0.615998359015,-0.12115191051,0.248391085618,0.798295266368,0.538800557108,-0.266442483108,0.0377760578985,-0.0113400404436,-0.0184086770934,0.00357879434885,-0.00676303008967,0.000825126004345,-0.0312044946872,-0.880445599556,0.335951417685,-1.53703117371,-0.215971052647,-0.750026464462,0.276476204395
2017/07/09/10:06:39.174395,438384,1499566001,979102504,,0.615341292969,-0.122052050102,0.248091711298,0.798444451816,0.538364775168,-0.266907421363,0.0375533572952,-0.00502129495674,-0.000589433118967,-0.0103613181716,0.00468033105669,0.0191261516739,0.000949745619343,-1.56862938404,-0.232731759548,-1.78100252151,-0.166630685329,-0.885513603687,0.284444630146
2017/07/09/10:06:39.184787,438385,1499566001,989103889,,0.615197837825,-0.122284361611,0.248491176263,0.798440796889,0.538200974571,-0.267210142964,0.0378251811782,-0.00552547758143,-0.0138861296434,-0.00682203561399,-0.0191917889298,0.0118613804662,-0.00742391041368,-1.26819038391,-0.106695324183,-1.14937734604,-0.0963388159871,-0.838118135929,0.295983850956
2017/07/09/10:06:39.194643,438386,1499566001,999102607,,0.615320976457,-0.121833957738,0.248109674327,0.798394061949,0.538452062659,-0.2669055967,0.0373858330662,-0.00406669158092,-0.0096082139537,0.00688726095374,-0.0183696156004,0.000864423206316,-0.00635783482177,-2.01387786865,0.365264177322,-2.08506393433,-0.294351547956,-1.06307518482,0.434260904789
2017/07/09/10:06:39.204555,438387,1499566002,9101725,,0.615796716602,-0.121749702705,0.247898853823,0.798313179481,0.538685572079,-0.266634363691,0.0376833915648,0.00315460028954,0.00295694964638,-0.00165020834271,0.0103519178355,0.00359937119949,0.0158356712224,-0.912554979324,0.3797955513,-2.04518318176,-0.254223167896,-0.763759076595,0.293378710747
2017/07/09/10:06:39.214385,438388,1499566002,19104324,,0.61533684123,-0.122206464754,0.248523899323,0.798533739477,0.538189522541,-0.266955663075,0.0378229916407,-0.00596010435975,-0.0112200194546,0.000932455332478,-0.0217982259768,0.0126389038979,-0.0182481461495,-1.02380764484,-0.103766046464,-1.51747071743,-0.0530346333981,-0.796295762062,0.241217046976
2017/07/09/10:06:39.224422,438389,1499566002,29096591,,0.615429760393,-0.122099039321,0.248222077837,0.79829326496,0.538435676318,-0.267173723858,0.0378561338118,-0.00493896990877,-0.0120964988232,0.007527024509,-0.0364748863034,0.00963299877133,-0.00863623200055,-1.37499272823,0.343819648027,-1.87241256237,-0.244420319796,-0.866067051888,0.322892546654
2017/07/09/10:06:39.234628,438390,1499566002,39103011,,0.614992070018,-0.122822148401,0.248417238245,0.798820592805,0.537721479225,-0.267057071968,0.0377066519685,-0.011028949204,-0.0064756401251,0.000123849036801,0.000685681933563,0.0246771304352,-0.00045231058996,-1.70914900303,-0.13089543581,-1.79231619835,-0.108669385314,-0.975725591183,0.345485240221
2017/07/09/10:06:39.244323,438391,1499566002,49110489,,0.615084236569,-0.122650386547,0.248427293981,0.798547714244,0.537983900235,-0.26732267759,0.0378610249456,0.00052748163131,0.0116804,-0.00352957832537,0.0287719118716,0.00443945248382,0.0108948143393,-1.84603273869,-0.381477892399,-1.60332834721,-0.0410789623857,-1.01273369789,0.318413972855
2017/07/09/10:06:39.254360,438392,1499566002,59100138,,0.615000509624,-0.122099187736,0.247490714016,0.798245428472,0.538500357649,-0.267317147881,0.0369207690182,-0.00532475071072,-0.000681191506339,-0.00374100603596,-0.00581616361628,0.0216594008473,0.00431693839018,-1.55096209049,-0.26374360919,-2.02643942833,-0.0684634894133,-0.902914524078,0.305947899818
2017/07/09/10:06:39.264382,438393,1499566002,69102904,,0.615584667408,-0.121739394362,0.248087693467,0.798217657964,0.538639005979,-0.267022397704,0.0376248704591,0.0073168202352,-0.00655123274955,-0.00520016028024,-0.0112654082101,-0.0168082691173,-0.00115698932766,-1.24920451641,0.263071328402,-1.91193687916,-0.16505484283,-0.853937387466,0.308930039406
2017/07/09/10:06:39.274541,438394,1499566002,79103298,,0.614864215665,-0.122134532172,0.248169011718,0.798115898533,0.538364295812,-0.267908066705,0.0374187826963,-0.00197247796559,-0.00114332269816,-0.00309211662858,0.00756224753197,-0.00174205571342,-0.00901743745416,-1.79608893394,0.476428389549,-1.79258692265,-0.219441622496,-0.99382597208,0.366288691759
2017/07/09/10:06:39.284451,438395,1499566002,89103236,,0.614934708267,-0.122227554962,0.248053023762,0.798513738749,0.538041758603,-0.267382090009,0.0373321974949,-0.00513313107504,-0.00335644803671,-0.00303369484348,-0.00898952157851,0.00973531803533,-0.0073901686257,-1.27995347977,0.046394854784,-1.57577073574,-0.0978984832764,-0.845655798912,0.272959530354
2017/07/09/10:06:39.294463,438396,1499566002,99097423,,0.615202034057,-0.121914432617,0.247910891677,0.798112154957,0.538573360693,-0.267505252746,0.0373719549302,-0.000952193056719,-0.00813686826948,0.00711246641791,-0.0102012699396,-0.0115676580932,-0.0146766288112,-1.83606612682,0.139329105616,-1.70486903191,-0.142804980278,-1.06307959557,0.357085615396
2017/07/09/10:06:39.304349,438397,1499566002,109100808,,0.615097448205,-0.122148977471,0.247947439664,0.79843199675,0.538287661802,-0.267135921526,0.0372979777877,0.00485659159305,0.00500332037558,-0.00264783400989,0.00574760066081,-0.0106388471035,0.00560976915875,-1.44317245483,0.263013571501,-1.74058699608,-0.19873046875,-0.895197272301,0.34427896142
2017/07/09/10:06:39.314556,438398,1499566002,119100370,,0.615049017606,-0.122124103107,0.247719066392,0.798493554433,0.538164384523,-0.267215871964,0.0371862411417,0.00509224039399,0.00496512781955,-0.00936103825093,0.000388377602136,0.00753862885617,0.00431472592005,-1.62124717236,0.235232204199,-1.88900566101,-0.194223880768,-0.927161812782,0.339976876974
2017/07/09/10:06:39.324446,438399,1499566002,129100135,,0.615048587764,-0.122364365514,0.248238167953,0.798508412123,0.537962132363,-0.267512592886,0.0376573041958,0.00237868868875,0.0111571344251,-0.00388278157558,0.0201786023133,0.00583349867696,0.00841150953302,-1.31010949612,0.142587095499,-1.48733222485,-0.125549629331,-0.881305098534,0.304066747427
2017/07/09/10:06:39.334481,438400,1499566002,139097370,,0.615548536172,-0.122001416864,0.248186630924,0.798286972937,0.538586309822,-0.266918404402,0.0376465284354,0.00205831633616,0.00578419963187,0.00607831699439,0.00632563317769,-0.00611954462925,0.00037778940431,-1.63350641727,0.195581138134,-1.47312533855,-0.177881479263,-1.0006467104,0.350812017918
2017/07/09/10:06:39.344764,438401,1499566002,149118800,,0.615059749068,-0.122624931859,0.248060607226,0.798434440221,0.5381182438,-0.267410923306,0.0377173495415,0.00202732125417,-0.00651121206949,0.00348998131047,0.000387570126615,-0.0114708581677,0.0160488344907,-2.29848504066,-0.141788259149,-1.69111824036,-0.142860591412,-1.15833616257,0.411922127008
2017/07/09/10:06:39.354379,438402,1499566002,159104693,,0.615279705042,-0.121676202188,0.247847900521,0.798259272419,0.538493407782,-0.267233344197,0.037327249055,-0.00221387701751,0.0032119909648,-0.00155301734934,0.00793840866213,0.00771153818433,0.00298597521763,-1.08415031433,0.499661624432,-1.68420946598,-0.224371522665,-0.817044794559,0.303641945124
2017/07/09/10:06:39.364711,438403,1499566002,169109976,,0.615224593179,-0.122088948593,0.247860045472,0.79825506043,0.538446391446,-0.267336291143,0.0373583922995,0.00776107319237,0.00316166388274,-0.00854489817324,0.00993801781805,-0.0166468686488,0.00764049532504,-2.03075027466,0.000836476683617,-1.71057999134,-0.184805452824,-1.07820618153,0.395273476839
2017/07/09/10:06:39.374825,438404,1499566002,179115592,,0.614865337977,-0.122262948619,0.247545124042,0.79818091083,0.538332025232,-0.267813053206,0.0371757007911,-0.00305835106482,-0.0042992588157,-0.00502603742636,0.0025255349708,0.00717044359574,-0.00437731137663,-2.06476521492,-0.0135486871004,-1.88407695293,-0.130769714713,-1.07397794724,0.397907376289
2017/07/09/10:06:39.384538,438405,1499566002,189108478,,0.615670286069,-0.121963185698,0.24773310058,0.798227933581,0.538642286172,-0.266986288207,0.0376161601999,-0.00310481472718,-0.0160806697974,0.00898071072505,-0.0296334723963,-0.00579291819152,-0.0100339715939,-1.77114784718,0.503412842751,-1.77201080322,-0.214661002159,-1.07612669468,0.420404195786
2017/07/09/10:06:39.394382,438406,1499566002,199095298,,0.615210404263,-0.122457821391,0.24754149261,0.79829594856,0.538368654701,-0.267349537447,0.0375099316662,0.00266232572535,0.0118327138261,-0.000225729852192,0.0144570635075,-0.0062594651236,-0.00447090693761,-1.99637913704,-0.15271282196,-1.87197828293,-0.135172009468,-1.06946015358,0.406748741865
2017/07/09/10:06:39.404486,438407,1499566002,209096053,,0.615511808272,-0.122343393152,0.248074089155,0.798164475761,0.538631848779,-0.267159411896,0.037882050479,0.0067747748887,-0.000540522085194,-0.00210532096626,-0.00692851353583,-0.00538137161409,0.00838920377263,-1.98330950737,-0.281930804253,-1.79307126999,-0.0682499408722,-1.06305038929,0.367035061121
2017/07/09/10:06:39.414497,438408,1499566002,219102650,,0.615164651259,-0.122804241452,0.248086274466,0.798304704703,0.538281951289,-0.267437983087,0.037935004511,-0.00169222023578,-0.00646380220993,0.00563940394997,-0.00707075276148,-0.00882759780757,-0.00727888135907,-1.72923660278,0.162123203278,-2.00763463974,-0.137944668531,-1.0122743845,0.357182621956
2017/07/09/10:06:39.424460,438409,1499566002,229095608,,0.615183074576,-0.122677453121,0.247800094254,0.798489438381,0.53807268585,-0.267349410601,0.0376389982283,0.0036959109819,-0.0063270506666,0.00230942622643,-0.0134959567387,-0.00624897242307,0.0096623365116,-2.05570006371,-0.433489918709,-1.8071334362,-0.0348395258188,-1.07601070404,0.356118083
2017/07/09/10:06:39.434467,438410,1499566002,239100007,,0.615210103994,-0.122698132982,0.248060984792,0.798207390326,0.538319411303,-0.267653720176,0.0379296654187,0.00207388960705,0.00689702504502,0.00386823624155,0.00820036066697,-0.00564734086431,0.00647999943782,-1.65024745464,0.040292173624,-1.57486319542,-0.12043903023,-0.971707940102,0.331250846386
2017/07/09/10:06:39.444579,438411,1499566002,249105174,,0.615507170089,-0.122391683523,0.248212931791,0.798570435147,0.538137461896,-0.266930398121,0.037967022161,0.00138590742366,-0.00328520065649,-0.00522233561287,0.0044846335144,-0.0132544134616,-0.00868252713252,-1.63880360126,0.0648162290454,-1.3646222353,-0.0892963409424,-1.02249538898,0.367497771978
2017/07/09/10:06:39.454531,438412,1499566002,259099384,,0.616009858882,-0.122129511817,0.248349098811,0.798153032176,0.538695993666,-0.266969509128,0.0385440635297,0.0143723850992,-0.00118514839347,0.0114052751057,-0.0212239244505,-0.0392988296555,0.0187346294845,-1.80397903919,0.121757730842,-1.29271888733,-0.0918013006449,-1.0613758564,0.373977810144
2017/07/09/10:06:39.464501,438413,1499566002,269097740,,0.615397856222,-0.122206523692,0.24788878066,0.798376468258,0.538405198062,-0.267014289067,0.0376593556315,0.0113489321242,-0.000624446063445,0.00723857809644,-0.0225865507422,-0.0347008567445,0.00924536265241,-2.60972595215,0.199106827378,-1.98773157597,-0.196880877018,-1.25292146206,0.493719041348
2017/07/09/10:06:39.474447,438414,1499566002,279102170,,0.615762771227,-0.122006903623,0.247891597335,0.798193760411,0.538707747088,-0.266908472763,0.0379545944079,0.00642623905285,-0.000951331696601,-0.019310755487,0.0105159345083,0.000236257529567,0.0147214819068,-1.73611629009,0.276591002941,-1.71026074886,-0.155475512147,-1.00592088699,0.365550071001
2017/07/09/10:06:39.484164,438415,1499566002,289100526,,0.615701982104,-0.122441730459,0.247537695306,0.798204093141,0.538711119177,-0.266886478695,0.0378439328997,0.00535070946916,-0.000766679882003,-0.00549464333625,0.0106392256634,-0.0163486049686,0.00501401754985,-2.11832404137,0.0147325843573,-1.99264264107,-0.178550601006,-1.10803365707,0.3998259902
2017/07/09/10:06:39.494509,438416,1499566002,299108830,,0.615553549368,-0.123216717304,0.24792754956,0.798707134065,0.537876241088,-0.26695569616,0.0386098375303,0.00534497355193,-0.00677048012181,-0.0120285180464,0.00454965597924,-0.0119770648839,0.0137296256397,-1.86110901833,-0.182884499431,-1.6404517889,-0.128250613809,-0.996648669243,0.329978257418
2017/07/09/10:06:39.504712,438417,1499566002,309107412,,0.615810324405,-0.122858386245,0.248111383561,0.798412320694,0.538360907217,-0.266851787624,0.0386707019109,0.0107994951277,-0.000266805089552,-0.00447299497215,0.00122324302742,-0.0215716014592,0.0280461089058,-2.08815765381,-0.127198144794,-1.44031667709,-0.0570459216833,-1.15416395664,0.396194458008
2017/07/09/10:06:39.514420,438418,1499566002,319102755,,0.615996951736,-0.122123544888,0.247285321872,0.798157749997,0.538882173999,-0.266644405536,0.0380915956963,0.0104852777503,0.00566131006992,0.00199071375363,0.00463158427413,-0.0219809959495,0.0108908266505,-2.17475795746,0.306091398001,-2.12241077423,-0.165895625949,-1.11586642265,0.461688756943
2017/07/09/10:06:39.524307,438419,1499566002,329095837,,0.616134333614,-0.12219540258,0.247644479351,0.797840843639,0.539229589581,-0.266838227771,0.0384551445557,0.00320425788505,-0.0060822051165,0.00471110311211,-0.00638557319549,-0.0212432448662,-0.00259919752617,-1.64633595943,0.222474321723,-1.5523724556,-0.111058071256,-1.00570201874,0.352939963341
2017/07/09/10:06:39.534378,438420,1499566002,339102071,,0.615900219433,-0.122691284464,0.248227464879,0.798431275185,0.538395329112,-0.266731934689,0.0386269778082,0.0040624723314,-0.00641276387128,0.00688095701607,-0.0235489331111,-0.00793174172313,0.0150761502016,-1.81191635132,-0.00296669453382,-1.32131648064,-0.0640429481864,-1.01946663857,0.359868854284
2017/07/09/10:06:39.544622,438421,1499566002,349104021,,0.61614006158,-0.122330004994,0.24731901703,0.798127042006,0.538918739603,-0.26663960126,0.0382510125632,-0.0122214940082,-0.00357753521659,-0.00319657247278,0.00195227200019,0.02920575322,-0.0151052985099,-1.8371424675,-0.00771078467369,-2.02135205269,-0.103063583374,-1.04665875435,0.37312951684
2017/07/09/10:06:39.554564,438422,1499566002,359095689,,0.615904618552,-0.121988200602,0.247506242609,0.798233891009,0.53860177522,-0.266977090996,0.0381315598741,0.0025849451367,-0.0084459996357,-0.0141904624988,0.0100152161369,-0.0107627704955,-0.0117325539047,-1.15553176403,0.63818615675,-1.78171360493,-0.172855302691,-0.837614536285,0.304768949747
2017/07/09/10:06:39.564454,438423,1499566002,369096121,,0.615908481439,-0.122820884956,0.247795898496,0.798424805611,0.538312865582,-0.26691851721,0.0386211561809,0.0126189162478,0.00479160740317,-0.00640315519995,0.0188584489683,-0.0295366731507,0.0103052530014,-1.87049508095,-0.0288164243102,-1.47703063488,-0.109092563391,-1.0353000164,0.366275250912
2017/07/09/10:06:39.574543,438424,1499566002,379100644,,0.616514944368,-0.12167517498,0.247553610795,0.798081144306,0.539172443302,-0.266264784908,0.0382443172979,0.00896456064338,0.00368906595227,-0.00532642840568,-0.0228015795751,0.00962468116849,0.0279983427141,-0.942400634289,0.424017488956,-1.51650238037,-0.114359401166,-0.800702035427,0.258406996727
2017/07/09/10:06:39.584497,438425,1499566002,389096372,,0.616018323632,-0.122368644367,0.247772776008,0.798289412495,0.538709458972,-0.266564696476,0.0383326923819,-0.00202823788241,0.00264053092516,0.00639615042411,-0.00952905712432,0.0179016161262,0.0223724793013,-1.99260365963,-0.187474578619,-1.46757614613,-0.0864890664816,-1.08310902119,0.37350282073
2017/07/09/10:06:39.594525,438426,1499566002,399102767,,0.615900834867,-0.122450763466,0.247707931274,0.798416867241,0.538597279002,-0.266434976758,0.0381559997389,-0.0138855701021,-0.0229977401823,0.0121008285682,-0.0192752092811,-0.00251925034923,-0.0270459614389,-1.9491174221,0.559955596924,-1.64529395103,-0.2494546175,-1.08008801937,0.42131665349
2017/07/09/10:06:39.604481,438427,1499566002,409107420,,0.616065688057,-0.122805857864,0.247929978395,0.79831777297,0.538485117684,-0.266850027084,0.0389046840075,-0.00663409978755,-0.0106327457485,0.0039601110134,-0.0112224555807,-0.00321853956123,-0.0262273214979,-1.44912827015,-0.0397030413151,-1.62314760685,-0.104301579297,-0.9147990942,0.2920396626
2017/07/09/10:06:39.614435,438428,1499566002,419102810,,0.615969823698,-0.122343758218,0.247544063028,0.798247942003,0.538739389154,-0.266651773434,0.038169691992,0.00291378891505,0.00653058141982,-0.00648533513852,0.0023306152616,0.00625289337974,0.00516804376905,-2.01507210732,0.128496035933,-1.71021533012,-0.176454037428,-1.08381068707,0.401082128286
2017/07/09/10:06:39.624534,438429,1499566002,429102081,,0.615863120999,-0.122927026547,0.247821438826,0.798315602216,0.538581305329,-0.266717564029,0.0385242501105,0.000508832387345,-0.0015502190713,0.00267780566789,-0.0115509567554,-0.00135269130449,-0.00366650180658,-1.88036346436,-0.0660394728184,-1.71098411083,-0.0781939923763,-1.06591677666,0.357392519712
2017/07/09/10:06:39.634450,438430,1499566002,439102427,,0.616432828878,-0.122456226237,0.247606627947,0.798234846172,0.538887516428,-0.266317804615,0.0386807696381,0.00652754396725,-0.00358464819662,0.00936788954872,-0.00743707097496,-0.0286636423148,-0.00120027446298,-2.68339586258,0.498123973608,-1.8481541872,-0.261092126369,-1.30916285515,0.544300734997
2017/07/09/10:06:39.644433,438431,1499566002,449103587,,0.616708064421,-0.122663605809,0.248013730455,0.798046833148,0.538953691714,-0.266628307197,0.0394907089268,0.00503006496564,0.00953125016558,-0.00877180501423,0.0131259678083,0.0172018363417,0.0405670307555,-1.75117409229,0.00234405696392,-1.57898700237,-0.111567921937,-1.04168748856,0.348853945732
2017/07/09/10:06:39.654496,438432,1499566002,459106425,,0.61625744078,-0.122598047812,0.247758945382,0.798259995384,0.538771664427,-0.26646750387,0.0387445836482,0.00705029550373,0.00526654634976,-0.00638275742757,0.00583899784346,-0.00302845771352,0.0231480980837,-1.45640254021,0.269200950861,-1.45306134224,-0.163032114506,-0.925571322441,0.346077233553
2017/07/09/10:06:39.664385,438433,1499566002,469105217,,0.616066015602,-0.12256511995,0.24741021094,0.798200285371,0.538840105201,-0.26656037735,0.0383824268047,-4.40601545321e-05,-0.00117862747436,0.00435950977623,-0.00950789192952,-0.0123100956816,-0.00901262914391,-2.31825995445,0.319861650467,-1.84919905663,-0.192465424538,-1.20999312401,0.44870737195
2017/07/09/10:06:39.674387,438434,1499566002,479102473,,0.616062430197,-0.122784383884,0.247530806039,0.798322039427,0.538648559348,-0.266561488478,0.0385308154284,-4.12806543604e-05,-0.0107341089205,0.00558827510769,-0.0223861092851,-0.0128875375166,-0.0222536539426,-1.9870942831,0.0685526654124,-1.67862594128,-0.149737432599,-1.04531228542,0.382296353579
2017/07/09/10:06:39.684222,438435,1499566002,489095788,,0.615866787485,-0.122906329544,0.247614777037,0.798454596533,0.538388613637,-0.266695538877,0.0384895768247,0.00103876437069,-0.00903046008189,-0.00295533805711,-0.00991105124426,-0.0135843388405,-0.0115014143756,-2.29054665565,0.135837033391,-1.64023804665,-0.130969911814,-1.15771317482,0.415525346994
2017/07/09/10:06:39.694583,438436,1499566002,499103300,,0.616203746438,-0.122502738935,0.247543497021,0.797965202584,0.539096221817,-0.266705622345,0.0386640672645,-0.0038222954306,-0.00246492241843,-0.00820672929557,0.0201196838243,0.00386399394455,0.000144451259401,-1.93731331825,0.629025638103,-1.60792684555,-0.219424068928,-1.09304654598,0.425716757774
