time,.header.seq,.header.stamp.secs,.header.stamp.nsecs,.header.frame_id,.pose.position.x,.pose.position.y,.pose.position.z,.pose.orientation.x,.pose.orientation.y,.pose.orientation.z,.pose.orientation.w,.twist.linear.x,.twist.linear.y,.twist.linear.z,.twist.angular.x,.twist.angular.y,.twist.angular.z,.wrench.force.x,.wrench.force.y,.wrench.force.z,.wrench.torque.x,.wrench.torque.y,.wrench.torque.z
2017/07/09/10:04:57.275279,428194,1499565900,79387927,,0.786152235955,0.388198528101,0.168819020764,0.627848332777,0.775546567267,0.0556457017087,0.0351788133736,0.0357669735866,-0.123436469048,0.0319079966626,-0.0450088712077,-0.0447169393148,-0.168083513413,2.90380358696,1.72958660126,0.311097115278,-0.522362232208,1.21969366074,-0.059428256005
2017/07/09/10:04:57.285338,428195,1499565900,89381972,,0.787065864747,0.386236653676,0.169174696203,0.62896784537,0.774601502482,0.0556915299835,0.0359223514146,0.0419806864555,-0.119272076601,0.0482065265594,-0.0532127039532,-0.0705526344669,-0.16125135229,2.03251361847,1.6264603138,0.967865526676,-0.696141719818,0.928315281868,-0.18273255229
2017/07/09/10:04:57.294983,428196,1499565900,99389650,,0.787461924667,0.385739102338,0.169651942092,0.629055910742,0.774486348073,0.0559649814638,0.0364345805213,0.0627985329812,-0.134847852371,0.0540530424063,-0.0502332928432,-0.124294618139,-0.163479172189,1.27549433708,1.47191226482,1.18826472759,-0.595691144466,0.660995543003,-0.170882463455
2017/07/09/10:04:57.304909,428197,1499565900,109408773,,0.78797406276,0.383950598103,0.169737954943,0.629780312748,0.773882061385,0.0557473438171,0.037088359346,0.0612380834145,-0.124121426018,0.0513891718939,-0.0482877505385,-0.127511376283,-0.141570251909,1.59818649292,1.52998769283,1.00295698643,-0.603343963623,0.778289735317,-0.131797939539
2017/07/09/10:04:57.315099,428198,1499565900,119381541,,0.788504989428,0.382749203729,0.170316936741,0.630803307451,0.773007453813,0.0560266010242,0.0375191102763,0.054461869666,-0.131323203467,0.0586402553425,-0.0559926250842,-0.11027400894,-0.166391681688,2.04352211952,1.55172729492,0.467144370079,-0.49294346571,0.942673742771,-0.105905845761
2017/07/09/10:04:57.324969,428199,1499565900,129380116,,0.789369882776,0.381199402259,0.171127421803,0.631342431466,0.772496288032,0.0561675459994,0.0387482384555,0.0649370265665,-0.157700279094,0.0613035977784,-0.062749828842,-0.119266147484,-0.218873353162,2.50781011581,1.65129637718,0.0425405055285,-0.510390937328,1.07352757454,-0.0940559208393
2017/07/09/10:04:57.335193,428200,1499565900,139389648,,0.789993382968,0.379433454231,0.172111635666,0.632141593247,0.771791643466,0.0563006139597,0.0395588931971,0.0609261806282,-0.17881159645,0.0606286176316,-0.0992674712849,-0.111916733275,-0.250427984858,2.89352250099,1.77304661274,-0.175402596593,-0.610795736313,1.20702266693,-0.156031370163
2017/07/09/10:04:57.345316,428201,1499565900,149383443,,0.790319602993,0.376545017056,0.171991135662,0.63364335953,0.77058486397,0.0557165754254,0.0398838760321,0.0763323448821,-0.217149182986,0.0631510284952,-0.101075660861,-0.135685991724,-0.285696618449,2.72859477997,1.51106727123,-0.124402627349,-0.512089073658,1.15850830078,-0.16314509511
2017/07/09/10:04:57.354879,428202,1499565900,159383906,,0.790933681717,0.375497446151,0.172480890575,0.634352740528,0.769957363329,0.0559294104904,0.0404247483946,0.0635795617622,-0.177739639139,0.055622033251,-0.0644523060408,-0.113562004395,-0.233861434097,2.50038313866,1.52918970585,0.0391233041883,-0.571147441864,1.06927585602,-0.157170072198
2017/07/09/10:04:57.365432,428203,1499565900,169382922,,0.791662606713,0.373697788485,0.173449048248,0.635239204497,0.769166880859,0.0562701949955,0.0410746590424,0.0678378284828,-0.152550113973,0.0647642276626,-0.0523785539715,-0.129184937208,-0.209948413433,2.02555823326,1.44542765617,0.295245856047,-0.525494337082,0.892251074314,-0.161363184452
2017/07/09/10:04:57.374964,428204,1499565900,179389241,,0.792422058039,0.372130910441,0.174118950567,0.635876522095,0.768584808547,0.0563899438044,0.0419358433315,0.0733632967299,-0.188583852572,0.0679919601601,-0.0588386092763,-0.133208005882,-0.2592534696,1.77648711205,1.34233605862,0.276888877153,-0.523614227772,0.731944739819,-0.167178913951
2017/07/09/10:04:57.384951,428205,1499565900,189383025,,0.793181895161,0.370431543855,0.174692033425,0.636614844813,0.767913058455,0.056509093863,0.0428695268055,0.0798547734841,-0.207384164757,0.0685388774307,-0.0923533594586,-0.146235793882,-0.26613102926,2.18469905853,0.980506420135,0.289390951395,-0.392696857452,0.870624363422,-0.152334690094
2017/07/09/10:04:57.395022,428206,1499565900,199382864,,0.793958459695,0.368379598874,0.175225422664,0.637451120324,0.767168994225,0.0566613610989,0.0435579344895,0.0684786850358,-0.211206067155,0.0786558330341,-0.0737236159643,-0.124105288319,-0.280584233676,2.12505197525,0.137086287141,0.253566175699,-0.0111893936992,0.847021996975,-0.0670460835099
2017/07/09/10:04:57.404974,428207,1499565900,209387234,,0.794078512089,0.365284733855,0.175960682792,0.639231865441,0.765712366282,0.0562059000076,0.043681702489,0.078011225045,-0.230447489486,0.0735708295732,-0.0446463602284,-0.136229134473,-0.307046860131,2.76976823807,0.138224214315,0.0301085952669,0.0553848668933,1.03000497818,-0.0627539157867
2017/07/09/10:04:57.415056,428208,1499565900,219395746,,0.795136637579,0.36395418163,0.17679283062,0.639906996352,0.765035519933,0.0566770234904,0.0450267061748,0.0553323760453,-0.227954148366,0.0531026935583,-0.0332788930029,-0.0739123527625,-0.324917996775,2.87586641312,0.36153793335,-0.0868360176682,-0.124273553491,1.05074250698,-0.1153780967
2017/07/09/10:04:57.425240,428209,1499565900,229381998,,0.795655691722,0.36180417757,0.177533359062,0.640836340289,0.764226457848,0.0568127855161,0.0453763538838,0.0627222513168,-0.218121398901,0.0708569257105,-0.0575617699,-0.111493008841,-0.309055849303,2.34226179123,0.810892939568,-0.116890423,-0.334754049778,0.786322593689,-0.195865601301
2017/07/09/10:04:57.434962,428210,1499565900,239385962,,0.796838369038,0.358574018288,0.178489280609,0.642469641917,0.762757200216,0.057150811844,0.0465617594169,0.0704817982556,-0.22997730188,0.073785334052,-0.0448382301346,-0.12553387395,-0.323116076468,1.80346465111,1.0482198,-0.0966459959745,-0.352232307196,0.571820795536,-0.151299610734
2017/07/09/10:04:57.444819,428211,1499565900,249382066,,0.797264801013,0.357135055873,0.179131277606,0.642969620391,0.762297488336,0.0571155519929,0.0472273252538,0.0725149156906,-0.212737345762,0.0778292107456,-0.0557437632439,-0.137067653616,-0.251284040899,1.51922929287,1.40705168247,-0.248892724514,-0.553196966648,0.46888756752,-0.200790464878
2017/07/09/10:04:57.455032,428212,1499565900,259380711,,0.798318484066,0.354013035802,0.180283282324,0.644611126371,0.760815059385,0.0574222609623,0.0483696714706,0.0693170363483,-0.220375603767,0.0711288201436,-0.0475225986282,-0.135861072701,-0.306895811195,1.78147482872,1.3617708683,-0.267502427101,-0.45388546586,0.556304454803,-0.175266712904
2017/07/09/10:04:57.465031,428213,1499565900,269388977,,0.798789682,0.352351034778,0.18066269295,0.64560914859,0.759933788699,0.0575490235149,0.0487603726711,0.070943355023,-0.250080594672,0.0727474332747,-0.0625804728651,-0.133537238233,-0.346989248913,1.51874566078,1.03627574444,-0.229968234897,-0.292440384626,0.465153872967,-0.12186409533
2017/07/09/10:04:57.475050,428214,1499565900,279392801,,0.799220251146,0.349805944939,0.181432839737,0.646690179784,0.758985419901,0.0573661586211,0.0494172803133,0.0696436265019,-0.221141315451,0.0800527213909,-0.0657218813629,-0.144903342672,-0.296517503788,1.16249346733,0.870215952396,-0.36142256856,-0.289509356022,0.274940371513,-0.176387608051
2017/07/09/10:04:57.485077,428215,1499565900,289389529,,0.800038904825,0.347187162539,0.18209086605,0.647908966986,0.757870437962,0.0576130816724,0.0502702952293,0.0529758031121,-0.24902821459,0.0689082225699,-0.0532632027091,-0.098112561907,-0.346903026718,1.56345617771,0.900575578213,-0.40012589097,-0.34809628129,0.420250922441,-0.187739163637
2017/07/09/10:04:57.495093,428216,1499565900,299390256,,0.800061708066,0.346072002999,0.182152393282,0.648721150885,0.757177887291,0.0574738596457,0.0503911782916,0.0689509426376,-0.24228355491,0.0766216157483,-0.0234865661956,-0.124284811734,-0.3532985553,1.45614469051,0.79718798399,-0.244665578008,-0.276167392731,0.415104657412,-0.166809499264
2017/07/09/10:04:57.505075,428217,1499565900,309383693,,0.801038941445,0.343466646787,0.183035699491,0.650159446748,0.75585720498,0.0578886379508,0.0512004402286,0.0525185681439,-0.233789712371,0.0596492334391,-0.0380770004484,-0.088329785521,-0.333679895428,1.39912617207,0.943412661552,-0.20886130631,-0.297389268875,0.346016138792,-0.159533649683
2017/07/09/10:04:57.515189,428218,1499565900,319387753,,0.801492987247,0.340189543658,0.183698816418,0.651666016683,0.754545471101,0.0574660382404,0.0518670337582,0.0653412590918,-0.250994333468,0.0756706737509,-0.0515432472445,-0.119715668518,-0.326043281209,1.26843965054,0.843428969383,-0.311899960041,-0.265554010868,0.278685212135,-0.153069078922
2017/07/09/10:04:57.525146,428219,1499565900,329397173,,0.802179623911,0.338116426347,0.184354336345,0.652675066799,0.753599498839,0.0579201606309,0.0524243027747,0.0689049439632,-0.295923368404,0.057256729522,-0.0740262056774,-0.10883612878,-0.376120667677,1.41242158413,0.903560578823,-0.367762356997,-0.375522404909,0.320240288973,-0.21613329649
2017/07/09/10:04:57.535220,428220,1499565900,339393116,,0.802943049549,0.335547461382,0.18506083617,0.654161462498,0.752220539772,0.0583231515475,0.0532489485355,0.0636282590928,-0.247067380457,0.0631598752011,-0.0439847369895,-0.116655309545,-0.344913658416,0.714274525642,0.854321837425,-0.205518305302,-0.302666336298,0.0955589488149,-0.161170601845
2017/07/09/10:04:57.544905,428221,1499565900,349382622,,0.803823376113,0.332053515687,0.185830591766,0.655799038668,0.750716235102,0.0584343554548,0.0542049936781,0.0553711105954,-0.276438198106,0.056936746523,-0.05090873894,-0.106678714279,-0.375582373327,0.118592381477,0.508965611458,-0.244917854667,-0.147450208664,-0.150828376412,-0.141166985035
2017/07/09/10:04:57.554847,428222,1499565900,359395728,,0.803919755452,0.330168216535,0.186062406814,0.656704158496,0.749926744586,0.0584157032078,0.0541953096467,0.0686463354255,-0.280733088741,0.0638338052793,-0.00601771985269,-0.128077452825,-0.390025123489,0.681552112103,0.763174116611,-0.147279083729,-0.197419539094,0.127368882298,-0.106381133199
2017/07/09/10:04:57.564912,428223,1499565900,369387147,,0.804421427554,0.328598119986,0.186733038874,0.657514208665,0.749154187729,0.0586280441042,0.054825366898,0.0482187078647,-0.266618478323,0.0470893091098,-0.0360292713906,-0.0825316602393,-0.351640305502,0.226513251662,-0.0686637312174,-0.139069125056,0.0451092198491,-0.11543662101,-0.0794100388885
2017/07/09/10:04:57.574947,428224,1499565900,379387436,,0.80519926637,0.324911198332,0.187266117383,0.659404994455,0.747423078279,0.0586870954494,0.0556742325618,0.0429933819856,-0.268047678775,0.0532993731273,-0.0417678050349,-0.0697519801187,-0.373743327078,0.362008661032,0.193058118224,-0.193312510848,-0.0885074064136,-0.110483251512,-0.133985877037
2017/07/09/10:04:57.585259,428225,1499565900,389380819,,0.805576159814,0.322129694411,0.188146194784,0.660651450562,0.746278394514,0.0586439686112,0.0562947928163,0.034531713122,-0.286979768311,0.0475684907748,-0.0592287532794,-0.0568854764052,-0.384350707313,0.147079825401,0.318498879671,-0.523066878319,-0.149485528469,-0.239729583263,-0.105706878006
2017/07/09/10:04:57.595214,428226,1499565900,399398863,,0.80639542506,0.318761604384,0.188923064213,0.66208856967,0.744920283543,0.0586440614468,0.0573879006042,0.0573849706808,-0.311317340813,0.0689555439534,-0.0640465455345,-0.112509044916,-0.412015475764,0.157141700387,0.267964303493,-0.470447212458,-0.0225512757897,-0.230740964413,-0.0458935461938
2017/07/09/10:04:57.604984,428227,1499565900,409383918,,0.806791052295,0.316138722636,0.188582080484,0.663474880268,0.74368456127,0.0584484939295,0.0576032129271,0.0575443761912,-0.312243130881,0.0659253896778,-0.0687513709198,-0.119228053563,-0.391882589922,0.463449388742,0.154472857714,-0.877129435539,0.130729556084,-0.083762742579,-0.00078597292304
2017/07/09/10:04:57.615176,428228,1499565900,419385806,,0.806855821653,0.313646059649,0.189049398589,0.6644271445,0.742830964125,0.0581489261883,0.0579433410514,0.0451751537693,-0.329821174231,0.0348988919384,-0.0619467479413,-0.0623207836607,-0.420429387573,-0.0755735486746,0.478638023138,-0.908987283707,-0.0292512308806,-0.270031958818,-0.0699039623141
2017/07/09/10:04:57.625144,428229,1499565900,429379305,,0.80752896921,0.310820328867,0.189398826537,0.665956245075,0.741402667894,0.0586800604249,0.0581464890952,0.0491715973039,-0.307025589289,0.0390226488654,-0.0502154465379,-0.077418926483,-0.389970881079,-1.67162799835,0.203812927008,-0.697550177574,0.0699117779732,-0.837357461452,-0.0769558846951
2017/07/09/10:04:57.635330,428230,1499565900,439381348,,0.807870398103,0.307000091859,0.190050693807,0.667790261467,0.739712455824,0.0583529474292,0.0589625551903,0.0521101924289,-0.300199039298,0.0381374431702,-0.0256398547494,-0.08886197757,-0.38214469137,-2.21743416786,-0.0393220260739,-0.458877444267,0.0222667194903,-1.04683721066,-0.119421631098
2017/07/09/10:04:57.645049,428231,1499565900,449389437,,0.808136641479,0.304862693039,0.190111113754,0.668982022347,0.738613660379,0.058613593746,0.0589691538539,0.0504368369605,-0.312772124938,0.0416912298131,0.00903058558639,-0.0883530277134,-0.444458069793,-2.72440099716,-0.164754778147,-0.281682580709,0.0686163753271,-1.22687637806,-0.0893208608031
2017/07/09/10:04:57.655112,428232,1499565900,459389653,,0.808303883311,0.301961278408,0.190141283468,0.670890357887,0.736901628604,0.0584127688108,0.0589072652056,0.0452365442522,-0.310304782559,0.0348926505844,0.016478959439,-0.06655118624,-0.472939795601,-2.01970481873,-0.00249130278826,-0.248110488057,-0.0633118823171,-1.00270140171,-0.102938979864
2017/07/09/10:04:57.664984,428233,1499565900,469382550,,0.808992532892,0.29799721146,0.190813130782,0.672814833432,0.735061086945,0.0586805092042,0.0596824615184,0.0247497593281,-0.327442553439,0.0326405361094,-0.0199357687141,-0.0233849343771,-0.478628294419,-1.28567349911,-0.260570347309,-0.335211247206,0.12060469389,-0.805283546448,-0.0306106805801
2017/07/09/10:04:57.675179,428234,1499565900,479389959,,0.809270653324,0.294516369839,0.191103990361,0.67475683914,0.733272563319,0.0583495888598,0.0600822885429,0.0244448655257,-0.336984069161,0.0261618401983,-0.0359664201717,-0.0201926321482,-0.484748027512,-1.72235155106,-0.523869991302,-0.235996693373,0.140486001968,-1.01269304752,-0.036192368716
2017/07/09/10:04:57.685111,428235,1499565900,489381164,,0.809545466259,0.292078042752,0.191061705598,0.676091113732,0.732030717256,0.0580917384448,0.0604746628823,0.0326693677451,-0.317251685289,0.0303535528233,-0.0207499449929,-0.0399136989113,-0.49920437131,-1.97521948814,-0.372912973166,-0.490985661745,0.162106990814,-1.1434122324,-0.0543546155095
2017/07/09/10:04:57.695073,428236,1499565900,499389338,,0.809883257904,0.288064356491,0.191544075081,0.678377206987,0.729888449385,0.0576830523074,0.0611545744069,0.03066727582,-0.322561521612,0.0238375060873,-0.0254470884211,-0.0384084953787,-0.54463143104,-1.28605663776,1.07742071152,-0.355322748423,-0.589073598385,-0.883668780327,-0.26472735405
2017/07/09/10:04:57.704830,428237,1499565900,509382447,,0.809913799622,0.285221083611,0.191300019849,0.680347073586,0.728073629818,0.0575120367881,0.0610656585301,0.03752492391,-0.338613781614,0.0190023590967,-0.0431321054707,-0.0477543082793,-0.595054971152,-1.41864657402,1.85451173782,-0.317297548056,-0.956081092358,-0.898146152496,-0.351810008287
2017/07/09/10:04:57.715292,428238,1499565900,519390221,,0.810717305714,0.282383932653,0.191891952346,0.682305389276,0.726155578889,0.057841836799,0.0617393952688,0.0329266307392,-0.366473420248,0.0149240397368,-0.0599519830358,-0.0350151946316,-0.60233945988,-1.53972256184,1.96654355526,-0.282497107983,-0.902445495129,-0.942588686943,-0.342555582523
2017/07/09/10:04:57.724989,428239,1499565900,529383859,,0.811101313135,0.277972385987,0.192152054478,0.684531614294,0.724028460527,0.0573393392822,0.0625416465173,0.0473697685075,-0.352848850479,0.0323845687114,-0.0457280885146,-0.0801667116598,-0.599443682376,-1.56536054611,1.30007088184,-0.237835541368,-0.570129573345,-0.89152264595,-0.206366926432
2017/07/09/10:04:57.735013,428240,1499565900,539393062,,0.811270926752,0.274413906409,0.1923892058,0.686805219151,0.721847436919,0.0571661060802,0.0629833714272,0.0296690137826,-0.358127390574,0.0251859448486,-0.0383737634676,-0.0550375390452,-0.6265749503,-1.83522331715,0.358265310526,-0.238352164626,-0.014959640801,-1.01449215412,-0.0524844005704
2017/07/09/10:04:57.745117,428241,1499565900,549381898,,0.81165748449,0.271145549876,0.192913996489,0.688285638549,0.720394897731,0.0569216429492,0.0636710111006,0.0257224052118,-0.352036731007,0.0372723611978,-0.0589148254914,-0.0498501607855,-0.579915557217,-2.24993634224,-0.11955627799,-0.208818972111,0.145783245564,-1.1467525959,-0.0633992552757
2017/07/09/10:04:57.754955,428242,1499565900,559389981,,0.811752949663,0.267347214952,0.193081822619,0.690300574397,0.718450415954,0.0567306785466,0.0639980227411,0.0149676375333,-0.360661646196,0.040143181512,-0.0683623498525,-0.0263096362481,-0.524761506764,-2.21941041946,-0.544432461262,-0.303676426411,0.190450936556,-1.18919169903,-0.0700679644942
2017/07/09/10:04:57.765066,428243,1499565900,569386290,,0.811886935699,0.264395421211,0.193404821083,0.691539976091,0.717247578347,0.0564602805569,0.0643475682766,0.0228437101208,-0.364482050308,0.0423387580273,-0.0627610374625,-0.0452341101228,-0.481482357705,-2.90101695061,-0.375584065914,-0.420809775591,0.0823552906513,-1.51231360435,-0.107813328505
2017/07/09/10:04:57.775190,428244,1499565900,579390313,,0.812580900328,0.261383144539,0.194460900167,0.6928908065,0.715850695035,0.056916212978,0.0649665866901,0.0268602385991,-0.349046672159,0.0411135665098,-0.0370180170532,-0.0585248240756,-0.450933916436,-3.11048913002,-0.405892580748,-0.189654290676,0.018840059638,-1.55344796181,-0.099112033844
2017/07/09/10:04:57.784943,428245,1499565900,589387613,,0.81252154365,0.257538292255,0.194643755002,0.694851210575,0.713946550688,0.0564517608763,0.065385905338,0.0192210711521,-0.352113638395,0.0392980148101,-0.0450894974668,-0.0339756634567,-0.442042960062,-3.12241959572,-0.179910808802,-0.0930574014783,-0.0275187753141,-1.48751151562,-0.0673854649067
2017/07/09/10:04:57.795147,428246,1499565900,599388927,,0.812135734265,0.254089805654,0.19421092604,0.696192022889,0.712722985268,0.0554759731282,0.0653071967057,0.0194262472529,-0.373385154572,0.034420629594,-0.0750123656944,-0.0350262524809,-0.464610252902,-3.721555233,0.0528934039176,-0.284427702427,-0.185925364494,-1.65565001965,-0.0914493277669
2017/07/09/10:04:57.805385,428247,1499565900,609381872,,0.812490343238,0.25052435765,0.195059242905,0.697697810686,0.711194939087,0.0553220163397,0.0660227088856,0.0152071495999,-0.366737563964,0.0331522919009,-0.100442531961,-0.0157484546874,-0.446767286457,-4.19329071045,0.103135019541,-0.162562802434,-0.133048906922,-1.82843375206,-0.0783356130123
2017/07/09/10:04:57.815121,428248,1499565900,619390759,,0.812105201186,0.246796243787,0.194637254654,0.699224949544,0.709768010263,0.0541388674448,0.066202904578,-0.00917619611229,-0.37923747742,0.0313229322624,-0.107531795193,0.0346441531247,-0.459797747457,-4.61945343018,-0.261124491692,0.0110925240442,0.057038448751,-2.04571843147,-0.0298570543528
2017/07/09/10:04:57.825082,428249,1499565900,629383499,,0.811956098387,0.243210523405,0.195274768062,0.700466915882,0.708555057128,0.0535182649699,0.0665704595674,-0.0142734120222,-0.363274622236,0.033106498883,-0.103169025305,0.0451748075345,-0.430846157988,-5.00055074692,-0.398121327162,-0.166229009628,0.229590088129,-2.27704548836,0.000434227287769
2017/07/09/10:04:57.835106,428250,1499565900,639390101,,0.812247901191,0.239587406374,0.196145158454,0.702036257078,0.706968338373,0.0532358209252,0.0671327763181,-0.0194800986282,-0.388591277519,0.027496552026,-0.118789802043,0.0695971270627,-0.434805278783,-4.60109090805,-0.292344272137,0.432713419199,0.237522438169,-2.15051722527,-0.000917762517929
2017/07/09/10:04:57.845003,428251,1499565900,649384072,,0.812066597039,0.235649518228,0.196275302754,0.703626441099,0.705417740554,0.0523691515027,0.0674767713304,-0.00725251400061,-0.369630661925,0.0440350655107,-0.0939466653676,0.0314750233245,-0.445724864578,-4.83213710785,-0.769769608974,0.549120545387,0.342871874571,-2.20164251328,0.0407363437116
2017/07/09/10:04:57.854824,428252,1499565900,659381559,,0.811930770784,0.232924627253,0.196702392232,0.705239143402,0.703826420732,0.0521891522249,0.0673974219353,-0.00681154421254,-0.363018591381,0.0381753184839,-0.0676545551186,0.0254935191761,-0.468783182677,-4.78136777878,-0.0712950229645,0.899640619755,0.176545068622,-2.08401083946,0.036257609725
2017/07/09/10:04:57.864953,428253,1499565900,669383467,,0.81212960498,0.229092804804,0.196952710206,0.706918605906,0.702130430051,0.0518476560337,0.0677551797503,-0.00696838752853,-0.372828216496,0.0407566230799,-0.0749943357732,0.02787625847,-0.480574781499,-4.76241111755,0.0350164584816,1.04118216038,-0.0948994085193,-1.99389767647,-0.0527278594673
2017/07/09/10:04:57.875208,428254,1499565900,679390939,,0.811837865893,0.225203927329,0.197476694734,0.708461341084,0.700608463318,0.0511108357415,0.0679558075918,-0.00567533815019,-0.384280174998,0.0417492514751,-0.0730000854763,0.0140572426772,-0.485700708655,-5.42071485519,0.0669493079185,0.962371349335,-0.119791314006,-2.20113134384,-0.0820486173034
2017/07/09/10:04:57.885444,428255,1499565900,689386253,,0.811533770099,0.221353593325,0.197874448193,0.709760697409,0.699315813489,0.0501590331823,0.0684194183521,-0.00250098529103,-0.406531075101,0.0632918066951,-0.0920380329969,0.00714315771205,-0.504510198206,-6.92464256287,-0.0922979265451,0.470683217049,0.00497531890869,-2.77914118767,0.0317728295922
2017/07/09/10:04:57.895091,428256,1499565900,699389787,,0.811705408219,0.216975279261,0.198853885126,0.711455540621,0.697577958774,0.0494051305563,0.0691023749718,-0.00956982429897,-0.4168368,0.0590119768067,-0.114466387119,0.031028039869,-0.504173893108,-7.6126999855,-0.140551507473,0.791527092457,0.0640309900045,-3.0814204216,0.0428746640682
2017/07/09/10:04:57.905145,428257,1499565900,709388772,,0.811539469475,0.213606242225,0.199454371595,0.713053962812,0.695939035308,0.0489054051025,0.0695065939634,-0.0178354931253,-0.39392069482,0.0617676936945,-0.123835372855,0.0513841181221,-0.457124749549,-7.29935789108,-0.0660042539239,0.812838733196,0.167197406292,-2.94055938721,0.0649645030499
2017/07/09/10:04:57.915278,428258,1499565900,719389744,,0.810925897165,0.210146996766,0.199482113848,0.714482480079,0.694567742581,0.047825972722,0.0693044945007,-0.037950192154,-0.373476664505,0.0490233945836,-0.10906901606,0.111915882499,-0.473823835273,-7.71143722534,-0.261615157127,1.0591660738,0.20186367631,-3.17256212234,0.1062245965
2017/07/09/10:04:57.924951,428259,1499565900,729380808,,0.810591046115,0.205943129809,0.19944468079,0.716432287917,0.692660682438,0.0467476458005,0.0689971988387,-0.0371760437808,-0.370298000134,0.0452107110161,-0.09903100167,0.113925410617,-0.476360401118,-7.17129325867,-0.118599519134,1.01997971535,0.135309189558,-3.00845074654,0.065507940948
2017/07/09/10:04:57.935124,428260,1499565900,739389735,,0.810075264587,0.203198034647,0.199934061085,0.717917054427,0.691187646373,0.0461663517065,0.0687270575104,-0.0437407752174,-0.408804742019,0.0388756170437,-0.108705594978,0.133430681553,-0.49049419471,-7.58522176743,0.0538118779659,0.979684412479,0.0642391443253,-3.1681034565,0.0877493023872
2017/07/09/10:04:57.945083,428261,1499565900,749379810,,0.809554440212,0.199954240651,0.200361357768,0.719059596727,0.690080132863,0.0447552264914,0.0688453069177,-0.0380998623572,-0.390763696867,0.0483981606577,-0.107724641895,0.122689166111,-0.475623959934,-7.93530511856,0.266540467739,0.962308585644,0.0179879814386,-3.34285116196,0.0581712536514
2017/07/09/10:04:57.955124,428262,1499565900,759389940,,0.809348021924,0.195563977911,0.200989415486,0.720792187411,0.688296665149,0.0439346567829,0.0691091111602,-0.0437668470929,-0.406103674639,0.0422668099764,-0.12464953017,0.14118074599,-0.515662614498,-8.35010147095,0.0836147964001,0.516229629517,0.110541932285,-3.52660679817,0.108663141727
2017/07/09/10:04:57.965265,428263,1499565900,769381517,,0.808959265286,0.191368783475,0.201529419229,0.722650461976,0.686400059292,0.0429271301723,0.0691992045075,-0.0425880473785,-0.412301465096,0.0594562307923,-0.125743703113,0.128672438733,-0.520495358033,-8.65230560303,-0.282055974007,0.402565866709,0.11136931181,-3.67465233803,0.0760234892368
2017/07/09/10:04:57.975065,428264,1499565900,779390229,,0.80818215272,0.187210936935,0.201741335181,0.724517453404,0.684548435396,0.0414448357029,0.0689218753657,-0.0575281117172,-0.413078966339,0.0439757564007,-0.120396840149,0.172147219109,-0.519361478317,-7.94017744064,-0.474516570568,0.237601205707,0.189391285181,-3.36749529839,0.126368865371
2017/07/09/10:04:57.984907,428265,1499565900,789381174,,0.808437295251,0.183818209566,0.202436508116,0.726075721353,0.682871749987,0.0408189205737,0.0695272295937,-0.0641670753013,-0.404578733487,0.024885963007,-0.124490868484,0.210708341625,-0.507512510775,-7.31120824814,0.182771652937,0.50205719471,0.0480337589979,-3.15726399422,0.0855641961098
2017/07/09/10:04:57.994637,428266,1499565900,799383571,,0.807537503629,0.179881900605,0.202700695709,0.727541018331,0.681434194037,0.0391346951659,0.0692818986213,-0.0602156300094,-0.391324377704,0.0483835176623,-0.135207179023,0.193822005062,-0.494226252944,-8.05410194397,0.346748530865,0.50028026104,-0.0342359542847,-3.45454120636,0.0623417198658
2017/07/09/10:04:58.005187,428267,1499565900,809380356,,0.806671770128,0.175786086361,0.203326424663,0.729161826516,0.679804969579,0.0375590772176,0.0691198220947,-0.0734378543727,-0.386931229472,0.0550514761003,-0.146714416025,0.214887658905,-0.473325886534,-9.01254081726,-0.194089412689,0.735677778721,0.152139812708,-3.78719711304,0.149273574352
2017/07/09/10:04:58.015221,428268,1499565900,819390573,,0.805822326663,0.17258379689,0.203238011252,0.73056652631,0.67844362432,0.0359805444487,0.0684996326643,-0.0706958347305,-0.383894588648,0.0421824654509,-0.136176503338,0.224783023724,-0.473162530124,-9.16095066071,-0.229518949986,0.668030977249,0.181018382311,-3.82577204704,0.158774122596
2017/07/09/10:04:58.025036,428269,1499565900,829383518,,0.805580619581,0.169561510646,0.204351903987,0.731799101815,0.677132296415,0.0350761933082,0.0687865422631,-0.0714573103047,-0.391437612781,0.0417602045068,-0.174045185154,0.240218561533,-0.449012029373,-8.3181438446,-0.0622148290277,0.895403802395,0.243431910872,-3.45404148102,0.181801527739
2017/07/09/10:04:58.035176,428270,1499565900,839389908,,0.804554464484,0.165515848538,0.204492809172,0.733627270702,0.675276801677,0.0331136406834,0.0685255835495,-0.0625759966205,-0.390325978174,0.0638392355259,-0.171378061226,0.193299512026,-0.49036832748,-8.90739154816,0.000987932085991,0.631654441357,0.219032883644,-3.57476425171,0.154922351241
2017/07/09/10:04:58.044968,428271,1499565900,849384969,,0.803784059336,0.160885415126,0.204675249998,0.735564353293,0.673284940598,0.0313421204122,0.0681919527298,-0.0774190808222,-0.382029216355,0.0395678072428,-0.166034546159,0.250719394195,-0.464309925663,-8.37220859528,-0.725749373436,0.672571778297,0.325006723404,-3.30980682373,0.185368135571
2017/07/09/10:04:58.055071,428272,1499565900,859393404,,0.802631827086,0.157418951296,0.204597338073,0.736683317188,0.672181979173,0.0291968780527,0.0679457089439,-0.0823340405681,-0.388486802729,0.0386375846085,-0.206237661016,0.271590169945,-0.43211937091,-8.52066802979,-0.583522200584,0.375545799732,0.307149678469,-3.38112044334,0.160078004003
2017/07/09/10:04:58.064942,428273,1499565900,869388801,,0.802436928147,0.154040784932,0.205889576966,0.737824939119,0.670942035839,0.0277465946981,0.0684198088396,-0.0908070432827,-0.399512537061,0.0455179472049,-0.244564261385,0.296499625314,-0.446007015447,-8.72056484222,-0.115689262748,0.68687081337,0.217771843076,-3.51026844978,0.126942723989
2017/07/09/10:04:58.075126,428274,1499565900,879383349,,0.801774316693,0.150138550262,0.206111323258,0.739102455403,0.66959611819,0.0258494410161,0.0685595020508,-0.0962318633608,-0.398045306697,0.0488537122268,-0.256124802877,0.302811444307,-0.43004151982,-8.65333747864,0.179879128933,0.516350328922,0.00813478976488,-3.5183467865,0.0808110684156
2017/07/09/10:04:58.084930,428275,1499565900,889381797,,0.800622278602,0.146842147987,0.206348422897,0.740101905181,0.668617984825,0.0235655230542,0.0681456267139,-0.081491666831,-0.40239651555,0.0465710532304,-0.252832339377,0.285363846321,-0.417873428581,-9.51944065094,0.159232780337,0.644894599915,0.00888311862946,-3.88059210777,0.126193076372
2017/07/09/10:04:58.095141,428276,1499565900,899389711,,0.799583564382,0.142021217634,0.206967575748,0.741977128756,0.666585837032,0.0213876191634,0.0683800557031,-0.0821685688734,-0.384709926297,0.0546288490789,-0.259088876812,0.286982041404,-0.410688439325,-9.06281661987,-0.249970331788,0.638571560383,-0.0120045877993,-3.69345545769,0.124320834875
2017/07/09/10:04:58.105233,428277,1499565900,909386970,,0.798611805458,0.138730654634,0.206903641669,0.742810208542,0.665755000605,0.0189433069483,0.0681500137796,-0.0809649247494,-0.388836164734,0.0418901877378,-0.266049947232,0.290705956655,-0.428774393934,-9.15791034698,-0.118769705296,0.703361093998,0.126423686743,-3.70086455345,0.192789703608
2017/07/09/10:04:58.115371,428278,1499565900,919381501,,0.798438457399,0.134599882674,0.208317473983,0.744080667954,0.664260557055,0.0171003134343,0.0693502069038,-0.0862057370207,-0.372300841886,0.0328353393177,-0.292833761965,0.330679062822,-0.373755840075,-8.22975635529,-0.291020452976,0.764709353447,0.194003120065,-3.41455364227,0.182234942913
2017/07/09/10:04:58.124958,428279,1499565900,929387066,,0.797433876471,0.130800002974,0.208118785479,0.745273231976,0.6630018356,0.0144912000908,0.0691836744452,-0.0848118969853,-0.409172220782,0.0611825629735,-0.353184338948,0.30860866906,-0.400219060547,-9.09193706512,-0.282416343689,0.733731925488,0.135797560215,-3.76893496513,0.192233651876
2017/07/09/10:04:58.135114,428280,1499565900,939386943,,0.796967173872,0.126901209153,0.208626624002,0.746362550763,0.661773360392,0.0122603099009,0.0696322274097,-0.088479791426,-0.41294235693,0.0495530859797,-0.370956841953,0.328465137615,-0.418398693244,-9.55370807648,-0.144210934639,0.446047008038,0.164871409535,-3.99676418304,0.22611951828
2017/07/09/10:04:58.145053,428281,1499565900,949380523,,0.796210383182,0.122899625678,0.209090794975,0.746956021336,0.661103111249,0.00930649075289,0.0700911386468,-0.0787942733111,-0.4119579711,0.0416524659123,-0.392350694672,0.329039270342,-0.359527836753,-9.43454837799,-0.22198715806,0.362574875355,0.18178614974,-3.96174907684,0.253020107746
2017/07/09/10:04:58.155059,428282,1499565900,959391148,,0.795098622747,0.119587731661,0.208975166384,0.748131119134,0.659830274069,0.00671364758737,0.0698481563281,-0.0757789459875,-0.398415410129,0.0443824241337,-0.371415585092,0.335750441867,-0.327883563114,-9.19387531281,-0.0670634806156,-0.12801784277,0.153378114104,-3.85766530037,0.268413722515
2017/07/09/10:04:58.165438,428283,1499565900,969388460,,0.795250452131,0.115272340956,0.210351544735,0.749071579913,0.658643770656,0.00477565227612,0.0711150102832,-0.0669431614191,-0.384647683403,0.0458082917916,-0.367474700971,0.324196075037,-0.341247924085,-8.25845432281,-0.258515268564,0.284694194794,0.155589520931,-3.49302768707,0.248272925615
2017/07/09/10:04:58.175139,428284,1499565900,979383807,,0.794340590533,0.112059048772,0.210412479292,0.75003763661,0.657547301665,0.00201561006674,0.0712111441903,-0.0495296373218,-0.393057612583,0.0596973952573,-0.393953783729,0.279296298129,-0.343682084382,-8.16081905365,-0.100849464536,0.474210232496,0.0953209251165,-3.40217709541,0.221695974469
2017/07/09/10:04:58.185285,428285,1499565900,989382685,,0.793956384292,0.108126173092,0.211219735627,0.750723336611,0.65669255298,-0.0004274869918,0.0718970095621,-0.0587105497497,-0.399077408262,0.0687317722208,-0.416604201622,0.296812454683,-0.356992336534,-7.72729873657,0.0017327517271,0.233437478542,0.00207057595253,-3.26462697983,0.18532641232
2017/07/09/10:04:58.194911,428286,1499565900,999384234,,0.793331305911,0.105172037697,0.212110847012,0.751605676389,0.655648005989,-0.00286901964504,0.0721551674436,-0.0565074912216,-0.383701804724,0.0561893102953,-0.408028514251,0.316075314086,-0.346546222355,-6.91465997696,0.441517859697,0.0243120752275,-0.0635202378035,-2.97402501106,0.176800191402
2017/07/09/10:04:58.204918,428287,1499565901,9382053,,0.793068833348,0.101012898277,0.212576982265,0.752462265857,0.65453721134,-0.00566509214665,0.0731401679121,-0.0673131154636,-0.36662999719,0.0585132065373,-0.419221547341,0.35524333991,-0.32088186296,-6.98906517029,-0.0367581546307,0.0394567623734,0.0361834913492,-3.00172781944,0.210419520736
2017/07/09/10:04:58.215210,428288,1499565901,19389714,,0.79228586838,0.0976943878074,0.212743875612,0.753334597827,0.653502000788,-0.00841512641464,0.073152609864,-0.0688002837484,-0.401388806627,0.0697717556465,-0.475660773324,0.340665402334,-0.350390664146,-7.26024532318,0.37130844593,0.124271787703,0.0110070928931,-3.07816410065,0.245207458735
2017/07/09/10:04:58.224989,428289,1499565901,29382085,,0.79187259672,0.0936162334512,0.213528657157,0.754263340537,0.652232186337,-0.0114280498357,0.0744942138987,-0.0641005622953,-0.400323508397,0.0610625105536,-0.495041753744,0.335631758994,-0.342747920066,-6.21224832535,0.41891181469,0.235296338797,0.00365802645683,-2.70772862434,0.157085195184
2017/07/09/10:04:58.235230,428290,1499565901,39392997,,0.791515159293,0.0900412957896,0.214448378019,0.754828818505,0.651409024039,-0.014125706836,0.0754996858341,-0.0633287780088,-0.406863705778,0.0717155890813,-0.51055225506,0.326827452197,-0.356676051239,-5.51257371902,0.585930526257,0.426152557135,0.0535996630788,-2.42101860046,0.172886952758
2017/07/09/10:04:58.245140,428291,1499565901,49385134,,0.790486705596,0.0855595818986,0.214281112817,0.755953929479,0.649973981773,-0.0176746972022,0.0758622739052,-0.0640521791819,-0.411293711223,0.0513878825716,-0.533912688075,0.356563832069,-0.332746094556,-5.11733341217,0.229696631432,0.367585510015,0.0808276236057,-2.22865486145,0.17924131453
2017/07/09/10:04:58.254873,428292,1499565901,59383426,,0.79039773896,0.0822777264263,0.215404989323,0.756197710767,0.649517247493,-0.0200298856074,0.0767539648691,-0.0492156980981,-0.390773215654,0.0580907728692,-0.518477246502,0.333799174918,-0.311709971257,-4.78926706314,0.5999391675,0.437177985907,-0.0471978038549,-2.1456246376,0.146861061454
2017/07/09/10:04:58.265143,428293,1499565901,69381473,,0.790163342453,0.0780830819038,0.216344321988,0.757084001923,0.648187810577,-0.0230565397577,0.078388597557,-0.0428838241886,-0.395578053268,0.0757076626025,-0.542920085609,0.31352540711,-0.289719584455,-4.55095386505,0.480256319046,0.324433892965,-0.165056616068,-2.02271199226,0.119903072715
2017/07/09/10:04:58.275080,428294,1499565901,79396225,,0.78941309838,0.0744770097398,0.216494767962,0.757868116927,0.647114545178,-0.026246735197,0.0786752289944,-0.0503990462894,-0.383245756246,0.0576778504373,-0.541493289196,0.339609713767,-0.284039906153,-2.33582878113,0.659454107285,-0.266588419676,-0.196125224233,-1.08986926079,-0.0386410206556
2017/07/09/10:04:58.284972,428295,1499565901,89382850,,0.789140962428,0.0712334220529,0.216553326612,0.758796159117,0.645870568255,-0.0286444079926,0.0791144478752,-0.0535867477778,-0.403031957971,0.0490336136669,-0.513882605414,0.329511791253,-0.346187030828,-2.48296308517,0.568593263626,0.29101228714,-0.0399421900511,-1.16507065296,0.0488938167691
2017/07/09/10:04:58.295171,428296,1499565901,99389655,,0.788420877609,0.0670225934655,0.216574471064,0.75959314702,0.644672264397,-0.0320084922768,0.0799461002161,-0.0453403789054,-0.394354605567,0.0515363243677,-0.511522093645,0.306471777037,-0.347341427666,-2.97490859032,0.00536784529686,0.0839941129088,0.0134643316269,-1.27684938908,0.00820767879486
2017/07/09/10:04:58.304901,428297,1499565901,109382471,,0.788044354365,0.0635351279629,0.217741881891,0.760174448852,0.64369439367,-0.0349412157002,0.0810644577818,-0.0560483705037,-0.381379866353,0.0540735613371,-0.547226758487,0.34068275304,-0.31817644592,-3.4625813961,0.246079921722,0.867732346058,0.092938028276,-1.55064976215,0.119077838957
2017/07/09/10:04:58.315165,428298,1499565901,119390407,,0.787459247946,0.059935387045,0.218545058113,0.760827334915,0.642627921221,-0.0379051726949,0.0820628978076,-0.0585351463423,-0.370374243853,0.0544707886847,-0.546713568742,0.359221858709,-0.305502270259,-3.28353261948,-0.180089786649,0.591397941113,0.174904346466,-1.46020185947,0.144038259983
2017/07/09/10:04:58.325413,428299,1499565901,129389416,,0.786036534454,0.0568742419442,0.217729871649,0.761418625212,0.641714043076,-0.0419405967236,0.0817664383812,-0.0741923727012,-0.395081509687,0.0575131237514,-0.591038844553,0.377653067819,-0.339090824421,-2.74487519264,0.519799053669,-0.328397452831,-0.0874437317252,-1.37875103951,0.0614019036293
2017/07/09/10:04:58.335261,428300,1499565901,139387940,,0.785614996641,0.0529553550127,0.218916682145,0.762259168209,0.640372969065,-0.0448012777105,0.0829232566141,-0.090217038046,-0.376315940879,0.0419684603068,-0.552950239954,0.423764836296,-0.322040834256,-1.61417961121,0.454066425562,-0.172523081303,0.00042200833559,-1.02251720428,0.0711140558124
2017/07/09/10:04:58.345555,428301,1499565901,149388415,,0.785020623265,0.049294727553,0.21880791939,0.762751573129,0.639427616166,-0.0481072102756,0.0838335117561,-0.0828644741343,-0.36796584299,0.0515005016569,-0.547277762608,0.401090141933,-0.335530282697,-0.068011559546,0.196987956762,-0.50691562891,-0.0324984714389,-0.476078748703,-0.0668532550335
2017/07/09/10:04:58.355459,428302,1499565901,159401235,,0.784512627541,0.046076419934,0.219655073317,0.763431598665,0.638291929354,-0.0509076937876,0.0846404973662,-0.0686111079823,-0.35149286532,0.0469625696488,-0.539915769317,0.369349285594,-0.303774742998,-0.0986405387521,0.135296061635,0.25396746397,0.0290828235447,-0.441723167896,-0.0316668301821
2017/07/09/10:04:58.365158,428303,1499565901,169388469,,0.783620622877,0.0425441125851,0.220100144862,0.763846837464,0.637363219053,-0.0545607681719,0.0856110884786,-0.0719075428372,-0.379559712416,0.0469472780068,-0.562567172747,0.361471530904,-0.333112903008,0.119696825743,0.237687498331,-0.158979505301,-0.063587076962,-0.324286878109,-0.0988943204284
2017/07/09/10:04:58.375286,428304,1499565901,179383388,,0.78358120722,0.0390717371848,0.220609264733,0.764865545146,0.635849625303,-0.0565450399549,0.086478958759,-0.0756673606773,-0.377602073831,0.0434808158637,-0.543205630428,0.360068690811,-0.361099648332,-0.00855056196451,-0.166356176138,0.497506648302,0.0989213436842,-0.336796730757,-0.086839877069
2017/07/09/10:04:58.385350,428305,1499565901,189390619,,0.782800013551,0.0357362351377,0.221444338975,0.765600897418,0.634551599872,-0.0598098459341,0.0873058720932,-0.0623858229284,-0.355283628238,0.0547684814421,-0.53270543719,0.332277842351,-0.327857065019,1.14854288101,0.00814637541771,0.625075876713,0.125389575958,0.14797192812,-0.17126506567
2017/07/09/10:04:58.394915,428306,1499565901,199381961,,0.782304053115,0.0322074710767,0.221516847824,0.766619196877,0.632980309574,-0.0624794337472,0.087904806634,-0.0686406551182,-0.357703236725,0.0495011603319,-0.51904306859,0.339750439356,-0.368819249941,1.59325277805,-0.124226227403,0.459285706282,0.112228058279,0.353851526976,-0.251964777708
2017/07/09/10:04:58.404843,428307,1499565901,209382244,,0.780646566182,0.0289057894179,0.22181314886,0.767355142395,0.631667769571,-0.0663238489475,0.0881082367675,-0.0763327372955,-0.351043916489,0.0489569792717,-0.496935661093,0.341400499124,-0.375417387321,1.03073096275,-0.641831696033,-0.289288192987,0.169222161174,0.241489797831,-0.208454757929
2017/07/09/10:04:58.415201,428308,1499565901,219389956,,0.780599190793,0.025928576228,0.22280387634,0.767903045981,0.630643492399,-0.0683647844513,0.0891064179264,-0.0899922870654,-0.337505041168,0.053269734001,-0.467387835423,0.367686852263,-0.390054435968,2.22893023491,0.0807378292084,0.698433279991,0.0639981180429,0.558431208134,-0.277292400599
2017/07/09/10:04:58.425124,428309,1499565901,229384887,,0.778939975268,0.0222854287601,0.222658525493,0.768967280159,0.628975078145,-0.0719849555872,0.0888697883814,-0.0845597972414,-0.328570790184,0.0492940795491,-0.465948061431,0.360269159072,-0.369456882464,1.49176692963,-0.96152806282,0.335866808891,0.223995834589,0.357478260994,-0.238078474998
2017/07/09/10:04:58.434940,428310,1499565901,239382895,,0.778669754965,0.0196681525037,0.222854645434,0.76960105197,0.627873376709,-0.0741817411894,0.0893661731336,-0.104188469173,-0.334961612953,0.0426112722786,-0.444683609816,0.388718580239,-0.391656466202,2.81225943565,-0.217284560204,0.566186249256,0.220008611679,0.767004430294,-0.329292654991
2017/07/09/10:04:58.445111,428311,1499565901,249386662,,0.777903683797,0.0167711440898,0.223842535642,0.770416450155,0.626411678508,-0.0770790526477,0.0901427867433,-0.08494210572,-0.339628920889,0.0716901964107,-0.45323324309,0.320947118297,-0.410142627728,3.32634782791,0.426691234112,0.325633943081,0.0863137990236,0.886435985565,-0.375748932362
2017/07/09/10:04:58.454891,428312,1499565901,259389028,,0.776602311488,0.0134162676733,0.223833641808,0.771695233604,0.624506450063,-0.0798284687252,0.0900309715778,-0.0826871428853,-0.316788279478,0.0600604626339,-0.442440659639,0.32654018453,-0.391052879162,3.41019320488,-0.598958015442,-0.153447300196,0.200394719839,1.00859773159,-0.4030341506
2017/07/09/10:04:58.464887,428313,1499565901,269381426,,0.776235426181,0.0104544253572,0.224792666568,0.772368143941,0.623262784666,-0.0820997850657,0.0908326855648,-0.0998627700114,-0.312267408345,0.0487866842996,-0.40154042665,0.349047293529,-0.409539614076,5.25067949295,-0.236332252622,0.267242729664,0.243732169271,1.59391117096,-0.551047623158
2017/07/09/10:04:58.475148,428314,1499565901,279388840,,0.775241085262,0.0074155654646,0.225374225344,0.773261455216,0.621752805584,-0.0847723526695,0.0911252920408,-0.0978347710634,-0.315026281137,0.0511955804606,-0.391834726665,0.331098195085,-0.434117566094,5.34969329834,-0.637820839882,0.23620544374,0.315234363079,1.61467325687,-0.530523955822
2017/07/09/10:04:58.485435,428315,1499565901,289383027,,0.774344991721,0.00513456353006,0.225714690625,0.773856087189,0.620619030056,-0.0873813160685,0.0913415647771,-0.102170403854,-0.31750039363,0.0492546381295,-0.407154835419,0.340524487214,-0.423682324735,4.84008789062,-0.100458264351,-0.0834510028362,0.130385026336,1.44641315937,-0.548609972
2017/07/09/10:04:58.495086,428316,1499565901,299389480,,0.773081665303,0.00120565350352,0.225700142224,0.775329698773,0.618373925273,-0.0900936898491,0.0914367201546,-0.11084700248,-0.30824052423,0.0573893157267,-0.382943400237,0.344909314853,-0.418579534149,4.10641908646,-0.784664869308,-0.366173326969,0.269901484251,1.09895777702,-0.403407424688
2017/07/09/10:04:58.505156,428317,1499565901,309383590,,0.772480711555,-0.000714628762141,0.225911199083,0.776129985726,0.617159337841,-0.0917123247472,0.0912438845152,-0.102270211957,-0.294066255397,0.0455544458984,-0.33814159792,0.314401219962,-0.418858302913,3.62715530396,-0.134153321385,0.115488342941,0.0348349437118,0.969365119934,-0.393082559109
2017/07/09/10:04:58.515321,428318,1499565901,319398315,,0.771008819026,-0.00565957036906,0.2276734696,0.77770917563,0.614515481085,-0.0946739314648,0.0926067402973,-0.108215688232,-0.303525003488,0.0432162362846,-0.363865504392,0.314591607503,-0.434393490312,3.40341281891,-0.86743414402,1.49382066727,0.26582801342,0.919189751148,-0.389575242996
2017/07/09/10:04:58.525195,428319,1499565901,329428024,,0.770168555356,-0.00729562650089,0.227737061275,0.778075392651,0.613721649506,-0.0970107859818,0.0923760124802,-0.108509728202,-0.32532013794,0.0747820067713,-0.382208916372,0.276447493661,-0.465959520538,3.30318021774,-0.286667108536,0.969548761845,0.253435194492,0.921924412251,-0.369478583336
2017/07/09/10:04:58.535074,428320,1499565901,339383923,,0.76878704191,-0.0103638338335,0.228233348512,0.779065834868,0.612035946492,-0.0995915531482,0.0924659271514,-0.115654456675,-0.303672002194,0.066331499627,-0.3617090495,0.306585717326,-0.426178143515,3.97114229202,-0.300506740808,1.03683269024,0.246036052704,1.19340419769,-0.485846430063
2017/07/09/10:04:58.544848,428321,1499565901,349380346,,0.768206336201,-0.0132846422005,0.228870396016,0.780155048343,0.610213621723,-0.101467725549,0.0932831017964,-0.107922589709,-0.310296306614,0.0740569465696,-0.359994313801,0.262202548941,-0.439964190998,4.74437570572,-0.787530899048,0.807333707809,0.353977233171,1.45570385456,-0.526443183422
2017/07/09/10:04:58.554877,428322,1499565901,359382264,,0.766503439319,-0.0158305953756,0.228811691615,0.780947269269,0.608810397687,-0.104365789824,0.0926231299611,-0.124213977036,-0.312230129579,0.0657241817486,-0.352084672558,0.29086719946,-0.455816584838,5.03619003296,-0.445102095604,0.270009279251,0.326832830906,1.62264549732,-0.601393997669
2017/07/09/10:04:58.565096,428323,1499565901,369387971,,0.766148901638,-0.0185915143599,0.230033961672,0.781848521358,0.607307658688,-0.10559485986,0.0934880897233,-0.120255060307,-0.315759537983,0.0777282675733,-0.369972359851,0.28187570954,-0.443448788028,6.59920501709,-0.396347135305,0.978940069675,0.436082869768,2.20055389404,-0.776503324509
2017/07/09/10:04:58.575103,428324,1499565901,379391148,,0.764869886817,-0.0209421034809,0.230101045401,0.782621204815,0.605931535142,-0.107981538413,0.0932255965769,-0.119147560913,-0.304868432757,0.0608081815025,-0.321228701388,0.269228600975,-0.440858752173,6.24416208267,-0.163041979074,0.933275461197,0.37068104744,2.11116862297,-0.734758555889
2017/07/09/10:04:58.585427,428325,1499565901,389386550,,0.763224606827,-0.0243833574273,0.230907928888,0.783845706644,0.603906791175,-0.110266410824,0.0934013618302,-0.123866397094,-0.301986243945,0.0679813249262,-0.332291141713,0.264741137526,-0.436764777796,4.65272665024,-0.517639935017,0.772081315517,0.348375171423,1.63105821609,-0.617030024529
2017/07/09/10:04:58.595085,428326,1499565901,399390018,,0.761777368881,-0.0276160365022,0.231821397265,0.784774748155,0.602169854742,-0.112785529713,0.0938055701187,-0.131424478959,-0.298032531073,0.0586861968604,-0.315751130899,0.273058018961,-0.451941690736,6.07023334503,-0.19712112844,1.61048233509,0.372443288565,2.15971970558,-0.766563594341
2017/07/09/10:04:58.605116,428327,1499565901,409379969,,0.760658879633,-0.0304178115717,0.232379437259,0.78591539569,0.600312139477,-0.114594027392,0.0939709258242,-0.135784183046,-0.305143053661,0.0671909857129,-0.318335992606,0.262193589558,-0.448797522825,5.34062385559,-0.0427064746618,1.2005739212,0.275977909565,1.84278094769,-0.704698741436
2017/07/09/10:04:58.614835,428328,1499565901,419389663,,0.759448339051,-0.0328745482057,0.232713019036,0.786937153751,0.598689088132,-0.116268056852,0.0937178251704,-0.142804370352,-0.292756981884,0.0581313935893,-0.270172920746,0.272569745026,-0.446619878801,5.24401330948,-0.70989716053,1.36314821243,0.510754525661,1.82241380215,-0.685873627663
2017/07/09/10:04:58.625146,428329,1499565901,429383143,,0.758551758499,-0.0359034403098,0.233604806644,0.787909560057,0.596959879282,-0.117884953512,0.0945545632662,-0.131124528433,-0.302524792703,0.0532782078776,-0.27292500224,0.226319334976,-0.457409040626,5.82296705246,-0.222179710865,1.68764793873,0.456953346729,1.98699891567,-0.757389307022
2017/07/09/10:04:58.635274,428330,1499565901,439391189,,0.756816693871,-0.0399311530052,0.234216222082,0.789022216408,0.594942915933,-0.120323958543,0.0949158247964,-0.123935587761,-0.277699319992,0.0640619750982,-0.265285218483,0.208138193099,-0.417027503266,4.75423955917,-1.65535128117,1.28314173222,0.677753388882,1.66616714001,-0.691684126854
2017/07/09/10:04:58.645137,428331,1499565901,449382752,,0.755850238775,-0.0422330320853,0.234666433822,0.790088095165,0.59329536508,-0.121509918331,0.0948512066305,-0.137019695943,-0.317356361712,0.0552123755671,-0.301366580926,0.214404623791,-0.448679481301,7.28116512299,0.650011479855,1.11025094986,0.432135283947,2.47069835663,-0.943645596504
2017/07/09/10:04:58.655241,428332,1499565901,459392267,,0.754660034904,-0.0444848087248,0.235514737428,0.790633060732,0.592162972659,-0.123288707915,0.0950908596532,-0.151019504046,-0.300164104908,0.0463903643771,-0.273781584853,0.253399913362,-0.458301255865,7.53998613358,0.433365404606,0.93517947197,0.455929756165,2.5061609745,-0.98262155056
2017/07/09/10:04:58.666236,428333,1499565901,469386825,,0.752824006505,-0.0470103043642,0.235039948586,0.791861732259,0.590310178477,-0.125049118627,0.0940829851851,-0.15916742055,-0.291084935138,0.0451603051025,-0.206758789661,0.247052004163,-0.470151506757,4.49616861343,-1.4331972599,1.02133071423,0.711817681789,1.38628053665,-0.625975251198
2017/07/09/10:04:58.675050,428334,1499565901,479398794,,0.751617343397,-0.0498303827221,0.235748649419,0.793302126853,0.588201441623,-0.125909021655,0.0940091371594,-0.152575571349,-0.263140702135,0.035268890603,-0.154590527402,0.227394872284,-0.465096189632,4.5042052269,-1.42158031464,0.659091472626,0.588388085365,1.34509527683,-0.643659889698
2017/07/09/10:04:58.685517,428335,1499565901,489389898,,0.749993662657,-0.0518350826722,0.236059419664,0.794376322901,0.586585997064,-0.12722576689,0.0932562593196,-0.135052684681,-0.241679286583,0.0322904282329,-0.100946753566,0.181724619397,-0.435293676435,6.14781284332,-0.927929997444,1.20472502708,0.487652033567,1.86744463444,-0.816307663918
2017/07/09/10:04:58.695160,428336,1499565901,499388938,,0.749640572118,-0.0533839752276,0.236357690976,0.79536294563,0.585174298956,-0.127551118565,0.0932713070235,-0.114532010716,-0.221549032665,0.0333445049023,-0.0568874778597,0.121524248052,-0.419839904676,6.4490647316,-0.408922404051,1.03938519955,0.328283011913,1.86673927307,-0.766163170338
2017/07/09/10:04:58.705283,428337,1499565901,509380193,,0.748572274055,-0.0560101805586,0.236472976317,0.796215317447,0.583898767346,-0.128302566204,0.0929615472121,-0.112501102023,-0.241673211466,0.0332287851826,-0.0454033674026,0.0760636657744,-0.46506892695,7.15794181824,-0.267791628838,0.725886702538,0.00963085889816,2.1701540947,-0.863355636597
2017/07/09/10:04:58.714959,428338,1499565901,519390462,,0.747214398657,-0.0583213552656,0.236713052177,0.797692953004,0.581851024938,-0.12885478309,0.0923676479167,-0.114035546008,-0.235317073108,0.0250136073093,-0.0658712550221,0.0945421587003,-0.426617056918,6.30931806564,-1.05287694931,1.01554107666,0.0862214565277,1.99148058891,-0.7643917799
2017/07/09/10:04:58.725238,428339,1499565901,529381755,,0.746403529299,-0.0609860401847,0.237429630288,0.79865635061,0.580292145363,-0.129518252276,0.0929197610152,-0.129254411394,-0.265096916379,0.0269957098688,-0.106413288496,0.105951069173,-0.439055981719,6.17194700241,-1.30584394932,1.04014933109,0.279273211956,1.92785716057,-0.767632246017
2017/07/09/10:04:58.735065,428340,1499565901,539390603,,0.744726828009,-0.0640619138309,0.237480845313,0.799558214541,0.578579017295,-0.131520107173,0.0930346371836,-0.120367670983,-0.274686874756,0.0428539963106,-0.176130640664,0.091947499438,-0.410103788422,5.65475320816,-1.33339095116,0.946011066437,0.380317926407,1.80968284607,-0.714820206165
2017/07/09/10:04:58.745257,428341,1499565901,549382825,,0.743376172613,-0.0666882109563,0.237801677952,0.800593117324,0.576967382206,-0.132430814683,0.092851384941,-0.130928477939,-0.275924603256,0.0419758031084,-0.188031794168,0.123474694093,-0.38962917582,3.47302627563,-1.27910077572,0.456460475922,0.341604918242,0.992986619473,-0.506585359573
2017/07/09/10:04:58.754905,428342,1499565901,559390042,,0.742007910494,-0.068935566995,0.238351382115,0.801647922887,0.575235563513,-0.133554552595,0.0928861436475,-0.145264094254,-0.27116909386,0.0398452737583,-0.201698454371,0.167058749165,-0.384608217493,3.39169740677,-0.945892095566,0.539366900921,0.320239782333,0.968935191631,-0.508271336555
2017/07/09/10:04:58.764928,428343,1499565901,569388280,,0.740923035649,-0.0713066887709,0.238476217618,0.80224624187,0.574151512085,-0.134662591208,0.0928277711962,-0.153961055492,-0.25501028278,0.0265857470425,-0.139675297155,0.173856926134,-0.401465069209,5.27519083023,-0.511736869812,0.721430122852,0.318519920111,1.5197712183,-0.696496367455
2017/07/09/10:04:58.774992,428344,1499565901,579381352,,0.739119883748,-0.0737097600632,0.238521602527,0.802902593729,0.573092013355,-0.135757877395,0.0921019431774,-0.136933313586,-0.228608542899,0.03703003023,-0.114870564676,0.140837090673,-0.351768046311,4.85073328018,-0.559562146664,0.39783847332,0.347957521677,1.35609447956,-0.651050627232
2017/07/09/10:04:58.785202,428345,1499565901,589383859,,0.73769424902,-0.0755910506811,0.239218269846,0.803767252042,0.571641177775,-0.136877027359,0.0919197900252,-0.149097863913,-0.250349157434,0.0357883786798,-0.119721692017,0.152641124126,-0.342468129489,4.03767681122,-0.471984446049,0.31516212225,0.259988874197,1.09600102901,-0.548017144203
2017/07/09/10:04:58.794835,428346,1499565901,599382130,,0.735720969963,-0.078342617415,0.239071684669,0.804752409049,0.570031812797,-0.138273168169,0.0912021024637,-0.156515470933,-0.251286858087,0.0251245954214,-0.0789303853531,0.153118161589,-0.344346963368,2.51040625572,-0.53727465868,0.0595087110996,0.161686122417,0.56513863802,-0.394099414349
2017/07/09/10:04:58.805200,428347,1499565901,609389111,,0.734841202183,-0.0808918146514,0.23944284187,0.805826467018,0.568475190751,-0.138310076768,0.091378253535,-0.162081010762,-0.252612356724,0.0200937467274,-0.0678080801626,0.147410080846,-0.373438779,1.04591047764,0.0447922199965,-0.114066585898,0.0579515323043,0.00274433940649,-0.149409145117
2017/07/09/10:04:58.814807,428348,1499565901,619382625,,0.733539054943,-0.08286917828,0.239844049088,0.806761777157,0.566987759904,-0.139056681217,0.0912335160321,-0.137830838613,-0.215272647105,0.0236825126255,-0.0442383353887,0.0934114949136,-0.368808595773,0.179294094443,0.166068524122,-0.137182667851,-0.0510232448578,-0.270900309086,-0.0321711972356
2017/07/09/10:04:58.824931,428349,1499565901,629387618,,0.732608003214,-0.0840569995781,0.239787958278,0.807395738258,0.566074395649,-0.139470160093,0.0906640771087,-0.136814000297,-0.195261571051,-0.00157178427107,-0.0129643383948,0.113706506762,-0.359926514625,0.263185054064,0.170667186379,-0.588115513325,-0.156720072031,-0.248353123665,-0.0330030992627
2017/07/09/10:04:58.835262,428350,1499565901,639394978,,0.73083270967,-0.0855196803362,0.239441967976,0.808004700796,0.565120722977,-0.140548293454,0.0895161949657,-0.153483856209,-0.179224683136,-0.00236984667332,0.0276389447064,0.156662982083,-0.355773306268,0.408076524734,-0.0394508689642,-0.815728187561,-0.0789452344179,-0.267009794712,-0.0105814710259
2017/07/09/10:04:58.845405,428351,1499565901,649385888,,0.729157770551,-0.0877308918255,0.239584081586,0.809092135019,0.563435302302,-0.141412292379,0.0889558358607,-0.156870752497,-0.190520394453,0.0187931109617,0.00194622693122,0.137137456274,-0.369269623889,-0.703295946121,0.0918901264668,-0.857074081898,-0.0827707499266,-0.808869600296,0.147711545229
2017/07/09/10:04:58.855120,428352,1499565901,659381705,,0.727641943587,-0.0894116360291,0.240155509577,0.809935052651,0.562192257138,-0.14194388858,0.0883006738135,-0.165296899417,-0.187741012273,0.0279590405372,0.0198349528274,0.133485931236,-0.379161687929,-0.976618409157,-0.0682476907969,-0.960394024849,-0.0521170943975,-0.959054768085,0.215919077396
2017/07/09/10:04:58.865060,428353,1499565901,669382000,,0.726092125283,-0.0907928967499,0.240189098162,0.810812214034,0.560925317097,-0.142523177974,0.0873698228983,-0.160603781481,-0.1800640053,0.00732995398903,0.0154555059185,0.158723182356,-0.346465852062,-1.02113604546,-0.208206906915,-1.16685497761,-0.115854561329,-0.904666662216,0.177386522293
2017/07/09/10:04:58.875067,428354,1499565901,679387043,,0.724819881548,-0.0923710341716,0.240119754323,0.811581810473,0.559768911878,-0.142996995052,0.0868653533292,-0.150543668964,-0.169955492779,0.00328874460334,0.00456510094212,0.14799730073,-0.31759297933,-0.48243406415,0.599581956863,-1.35531663895,-0.275434285402,-0.71875,0.151825904846
2017/07/09/10:04:58.885464,428355,1499565901,689389486,,0.723567511721,-0.0939781079545,0.239888943875,0.812077041675,0.558993722242,-0.143593595505,0.0862425429149,-0.148472530291,-0.156695046855,0.000575660871852,0.033055739536,0.145847888193,-0.300768015636,0.357850968838,0.423998296261,-1.05020546913,-0.133439168334,-0.372417986393,0.00343099981546
2017/07/09/10:04:58.895109,428356,1499565901,699386780,,0.721835604222,-0.095733611349,0.239975554538,0.812823772595,0.557847375287,-0.144358268114,0.0853493468993,-0.135912690356,-0.148658570511,0.00976560134556,0.0185314092993,0.117520273319,-0.291774537611,-0.581625163555,0.434407711029,-1.37248539925,-0.181242138147,-0.606125056744,0.0835379809141
2017/07/09/10:04:58.905062,428357,1499565901,709382357,,0.72070737968,-0.0970535118745,0.240223815038,0.813735937184,0.556557303845,-0.144539888653,0.0847703524776,-0.14796006815,-0.156617198245,0.0147410488625,0.0272977875473,0.140292970708,-0.28531720179,-0.91311943531,0.332292675972,-0.858193039894,-0.120002985001,-0.729437768459,0.12400419265
2017/07/09/10:04:58.915257,428358,1499565901,719393249,,0.718938549837,-0.0980335769752,0.239848443102,0.814463889318,0.555437474763,-0.145529861218,0.0834196866516,-0.158031036479,-0.149200615495,0.00220659758327,0.0501753545537,0.159388008052,-0.329772814137,-1.34316420555,0.234365478158,-1.14947235584,0.0068319439888,-0.893145918846,0.149430125952
2017/07/09/10:04:58.924863,428359,1499565901,729380734,,0.717447716056,-0.0993428960654,0.24054376329,0.815068699364,0.55448648468,-0.146086323323,0.0828645869004,-0.161912367202,-0.141181372121,0.00665117729441,0.046355555857,0.169680495091,-0.331573319519,-1.41212570667,0.193553939462,-1.08653020859,-0.0248502120376,-0.919188141823,0.177885591984
2017/07/09/10:04:58.935323,428360,1499565901,739385333,,0.71591629704,-0.101011076996,0.240254486357,0.815913472473,0.553116844848,-0.146982623843,0.0821161961497,-0.16163485615,-0.126213319968,-0.00275434304409,0.0810009550402,0.181691117785,-0.297147112265,-1.26086807251,0.0735411345959,-1.02860045433,-0.00777745991945,-0.91537541151,0.153641998768
2017/07/09/10:04:58.944996,428361,1499565901,749381306,,0.714676839233,-0.101902257396,0.240076321025,0.816160586209,0.552638896885,-0.147803517622,0.0814018878651,-0.163000129964,-0.143688776204,-0.00669711196357,0.0602837538327,0.17781322166,-0.321702171739,-0.685977041721,0.251623600721,-0.893481850624,-0.0195922479033,-0.710148870945,0.0902840793133
2017/07/09/10:04:58.955037,428362,1499565901,759390370,,0.713408159467,-0.102695063376,0.24045700433,0.816845045155,0.55171419851,-0.148003729227,0.0804394896963,-0.143198037351,-0.132884752924,-0.00102766836154,0.0323211533174,0.158483328576,-0.264859992598,-0.547909736633,0.346259772778,-0.364363342524,0.0372592583299,-0.621649682522,0.0466960072517
2017/07/09/10:04:58.964806,428363,1499565901,769383962,,0.712745461157,-0.104568036677,0.240452765636,0.817753596601,0.550403797791,-0.147824978776,0.0805139135459,-0.12035647221,-0.122296093641,0.0110482274901,0.0349030558472,0.100334128046,-0.258026908352,-1.78806877136,0.272190690041,-0.491421669722,-0.0975037664175,-1.04467976093,0.180513620377
2017/07/09/10:04:58.975063,428364,1499565901,779385637,,0.711014639029,-0.105809728654,0.239950382442,0.818173890446,0.549637290402,-0.148989584454,0.079324887118,-0.136751125103,-0.129638509651,0.00240837654931,0.0262576107644,0.135490879342,-0.277952019826,-2.44663858414,0.383454322815,-0.945167779922,-0.0603293851018,-1.30126404762,0.284638881683
2017/07/09/10:04:58.985146,428365,1499565901,789389782,,0.709767966843,-0.106562212542,0.240024875737,0.818649256093,0.548983253364,-0.14929989112,0.0783602293011,-0.137922067339,-0.132480790735,-0.00152696559276,0.0265583231886,0.143754964967,-0.28692883855,-2.64710593224,0.602929830551,-1.00637388229,-0.0897944271564,-1.41102993488,0.313603162766
2017/07/09/10:04:58.995130,428366,1499565901,799388038,,0.708313742889,-0.108043284496,0.240323589979,0.819147714423,0.547996891232,-0.15039735513,0.0779555304316,-0.149988854892,-0.110920417287,-0.0235002706583,0.0556539709313,0.210345316638,-0.254401355489,-3.39628100395,0.91621619463,-0.934995412827,-0.27964836359,-1.71596896648,0.453170329332
2017/07/09/10:04:59.004896,428367,1499565901,809382192,,0.706286584459,-0.109425818524,0.240145161417,0.820157811036,0.546396453568,-0.151396502764,0.076623622176,-0.148513073575,-0.110841482344,0.0154607248225,0.0294783323549,0.186393064959,-0.245583009849,-4.18140172958,0.966878294945,-1.1793268919,-0.493298649788,-2.05302596092,0.557750999928
2017/07/09/10:04:59.015089,428368,1499565901,819384105,,0.705239441566,-0.110488542208,0.240446696863,0.820475331535,0.545841725468,-0.151878752103,0.0762226064841,-0.143106593916,-0.117510277247,0.013383811914,0.0339980274271,0.157706463941,-0.262968588069,-4.19578123093,1.17430686951,-1.0964345932,-0.47280472517,-2.13849425316,0.609628081322
2017/07/09/10:04:59.024780,428369,1499565901,829392176,,0.704124739419,-0.111657884259,0.240731330241,0.821416870202,0.544430536067,-0.152057178226,0.0758177505257,-0.144914554239,-0.11946336924,-0.00259498104676,0.0493572496721,0.153282968257,-0.289599755141,-2.85285902023,0.718294620514,-0.602217018604,-0.333742797375,-1.67396736145,0.452911496162
2017/07/09/10:04:59.035103,428370,1499565901,839382115,,0.702733586888,-0.112429447658,0.240720493947,0.821777974172,0.543705289094,-0.153086378461,0.0750338623917,-0.124287233655,-0.100712417106,0.00267474411931,0.0255260462084,0.144552210128,-0.228456488462,-1.99204981327,0.474570870399,-0.498641490936,-0.204790353775,-1.3205395937,0.319061666727
2017/07/09/10:04:59.045143,428371,1499565901,849388230,,0.701150730118,-0.113471162837,0.240479155639,0.822150625263,0.543026846001,-0.154017038239,0.0739523213623,-0.120553487489,-0.0884581440262,0.00871434890022,0.0244714697639,0.150149191215,-0.214027869395,-3.42628717422,0.269263118505,-0.747520506382,-0.206796139479,-1.8122754097,0.48360401392
2017/07/09/10:04:59.055252,428372,1499565901,859388418,,0.700217663003,-0.11429747393,0.24053470073,0.822428592753,0.542536545913,-0.154543285865,0.0733599275157,-0.135234551431,-0.11082116615,0.0112439818084,-0.0210196613771,0.1823048336,-0.240913900209,-3.00133156776,0.00279697775841,-1.02574825287,-0.134515821934,-1.66535687447,0.402825653553
2017/07/09/10:04:59.064878,428373,1499565901,869390261,,0.699016066661,-0.114600387152,0.241202475307,0.822735546245,0.54193549704,-0.155277476919,0.0728082629526,-0.133066930537,-0.0942513918024,0.0109926113462,-0.0051383729205,0.193157447095,-0.218397952253,-2.79084420204,0.399646341801,-0.590102672577,-0.0125589296222,-1.62572264671,0.390523165464
2017/07/09/10:04:59.075006,428374,1499565901,879394340,,0.697822521261,-0.115832354107,0.240888481595,0.823390854458,0.54073080308,-0.156242152759,0.0722916945248,-0.137570106968,-0.0929928302294,0.00997853374352,-0.013913751871,0.214781195373,-0.207096482035,-2.67656826973,0.630107402802,-0.848670721054,-0.085289567709,-1.65336608887,0.390540778637
2017/07/09/10:04:59.085449,428375,1499565901,889388957,,0.696857764936,-0.11665958918,0.241312301863,0.823665075129,0.5401143871,-0.157053545763,0.0720171967148,-0.137442181812,-0.0748472480671,0.00575066378179,-0.00551789605188,0.236227198052,-0.200461543526,-1.90131235123,-0.209350839257,-0.968196034431,0.079946860671,-1.33216893673,0.283406466246
2017/07/09/10:04:59.095015,428376,1499565901,899395488,,0.695127704976,-0.117578474054,0.24107031841,0.824009221616,0.539375815938,-0.158311265067,0.0708524891979,-0.143281305162,-0.0862745721828,0.0208675629809,-0.0142240281898,0.224560523831,-0.225001935853,-2.8270509243,0.757254719734,-1.37207710743,-0.242158174515,-1.58990764618,0.399470448494
2017/07/09/10:04:59.105181,428377,1499565901,909384325,,0.693831167787,-0.11822738263,0.241674132244,0.824480562281,0.538423044336,-0.159272880345,0.0704597568495,-0.136860918593,-0.0897174693778,0.0213289402435,-0.0166595985712,0.207073621707,-0.217138313961,-3.08771061897,0.523847281933,-0.908300042152,-0.242549985647,-1.62112927437,0.40893894434
2017/07/09/10:04:59.115143,428378,1499565901,919391178,,0.692543466938,-0.118333537699,0.241376357424,0.824577563401,0.538155668254,-0.160229373833,0.0691871839427,-0.132480680769,-0.0789673513689,0.0160555638044,-0.0157330326538,0.214505461582,-0.194916500109,-2.86208438873,0.823782503605,-0.814514219761,-0.23670963943,-1.56181633472,0.428790897131
2017/07/09/10:04:59.124995,428379,1499565901,929393320,,0.691290530916,-0.119963081407,0.241720765547,0.825027790888,0.537064710203,-0.161483324155,0.0693813904163,-0.141241208261,-0.0820678486401,0.0212777544159,-0.0381587713208,0.240035648149,-0.19192604342,-2.81422758102,0.792106866837,-0.919079840183,-0.274468272924,-1.51935303211,0.382557421923
2017/07/09/10:04:59.135312,428380,1499565901,939386773,,0.690487930251,-0.120520206365,0.242165732859,0.825293249878,0.536571161998,-0.161913251497,0.0690401246195,-0.121923948887,-0.066819453939,0.0195045261844,-0.0431087683951,0.222082205199,-0.152180810571,-1.95457231998,0.173217460513,-0.431251168251,-0.05557859689,-1.20329964161,0.257355690002
2017/07/09/10:04:59.145205,428381,1499565901,949381492,,0.689414172825,-0.120911186359,0.241732121075,0.825451547245,0.536096913195,-0.162997642011,0.0682759951334,-0.107154990474,-0.0695735443367,0.0187812923956,-0.0425766408941,0.184259859948,-0.12899931515,-1.89092683792,0.689270973206,-0.906433939934,-0.0876608043909,-1.16338479519,0.226676255465
2017/07/09/10:04:59.155212,428382,1499565901,959389776,,0.688789175808,-0.122203905206,0.242298048343,0.825792828959,0.535312325374,-0.163620239671,0.0688137712419,-0.095653490599,-0.0752032022063,0.018060396733,-0.0604146887012,0.150530708141,-0.151935821134,-2.46070218086,-0.187862247229,-0.259894579649,0.207451611757,-1.28291547298,0.230170220137
2017/07/09/10:04:59.165034,428383,1499565901,969387163,,0.688053501308,-0.121656733847,0.242297135889,0.825564711829,0.535587281113,-0.164327557148,0.0677172419292,-0.0846097915472,-0.0712793264178,0.0187485061861,-0.0547053306766,0.128553003221,-0.137020699166,-3.12476682663,0.828355669975,-0.623943567276,0.0637029260397,-1.52620899677,0.348777532578
2017/07/09/10:04:59.175102,428384,1499565901,979387729,,0.687160841602,-0.12305898998,0.24266548858,0.826134465078,0.534409611864,-0.165158900248,0.0680496144414,-0.0819335959512,-0.0643300942017,0.0200269322427,-0.0550399782162,0.131914619661,-0.129841291935,-3.12192559242,0.475066840649,-0.634610533714,-0.00429694354534,-1.53078329563,0.335397541523
2017/07/09/10:04:59.185543,428385,1499565901,989409554,,0.686754714152,-0.122228489659,0.242683287912,0.825741257408,0.53492453997,-0.165767401999,0.0672925017177,-0.0912079354844,-0.0592008898343,0.0182129529557,-0.0543974817513,0.163535254754,-0.133081218899,-2.57464170456,1.26112067699,-0.801941514015,-0.19657689333,-1.34130001068,0.339881837368
2017/07/09/10:04:59.195168,428386,1499565901,999386519,,0.6855956739,-0.123439909947,0.242471383473,0.82625859315,0.533867100292,-0.166748937711,0.0669137373394,-0.0895039841146,-0.0575392843525,0.00893447771447,-0.0550052262884,0.175744281252,-0.119209459305,-3.15659070015,1.500685215,-1.13645124435,-0.409357011318,-1.61506569386,0.445377826691
2017/07/09/10:04:59.205122,428387,1499565902,9380504,,0.68493925283,-0.123678508926,0.242398577772,0.826078919978,0.533932594326,-0.167548260385,0.0666121845142,-0.0769053825579,-0.0326355998346,0.00856618668475,-0.0498368699303,0.170868627035,-0.087272930533,-4.03027057648,1.20637762547,-1.32874882221,-0.465716183186,-1.90223169327,0.561801850796
2017/07/09/10:04:59.214733,428388,1499565902,19386675,,0.683839659857,-0.124623219596,0.242688029042,0.826258233507,0.533248043498,-0.168860532286,0.0665580671562,-0.0673175676858,-0.0349560507147,0.00389193536968,-0.0582470669353,0.153307757043,-0.0583056617878,-3.11500358582,0.665791749954,-0.848059475422,-0.247856914997,-1.55335450172,0.397548437119
2017/07/09/10:04:59.225133,428389,1499565902,29392047,,0.683625028613,-0.124959568379,0.243258823415,0.826045024709,0.533341717776,-0.169459114701,0.0669315895386,-0.0657288841234,-0.0400783175983,0.00445736936258,-0.0739625074603,0.151402302514,-0.0618234069767,-1.31838810444,0.132961899042,-0.118603348732,-0.0181854516268,-0.953377962112,0.169577717781
2017/07/09/10:04:59.235430,428390,1499565902,39388662,,0.683228706802,-0.125261179501,0.24276775734,0.826070138348,0.533113627463,-0.170076299699,0.0668733057665,-0.0461326641016,-0.040222297299,0.00112585491643,-0.0712264804622,0.102557088784,-0.0443114235865,-1.58515501022,0.361905694008,-0.335813462734,0.0497562661767,-1.11862027645,0.239142805338
2017/07/09/10:04:59.244963,428391,1499565902,49382797,,0.683209659888,-0.125188249043,0.243075560436,0.826033944218,0.533143947465,-0.170119035804,0.0669699032216,-0.0385653583448,-0.0353982234202,-0.0119686302515,-0.0725169980749,0.102469393543,-0.0245885178833,-1.39253950119,0.208387613297,0.197831526399,0.177224785089,-1.06982171535,0.17978811264
2017/07/09/10:04:59.255256,428392,1499565902,59386917,,0.683107341566,-0.124973330117,0.242499763465,0.826025294742,0.53305901744,-0.170522608806,0.0667258290237,-0.00933175299567,-0.0247859530024,0.0181699822819,-0.0783858655499,0.0190000105665,-0.0173931128444,-1.7466725111,0.157734051347,-0.479199528694,0.149870574474,-1.15440714359,0.213721036911
2017/07/09/10:04:59.264799,428393,1499565902,69411029,,0.682880170584,-0.125984851004,0.242889816946,0.825875629928,0.533022502446,-0.171143312774,0.0672786910474,-0.0187472499069,-0.0312000355477,0.011176231292,-0.101708518294,0.0532077621392,-0.023786932266,-2.11383342743,0.237994506955,-0.381785720587,0.0387953966856,-1.33367621899,0.301940053701
2017/07/09/10:04:59.276128,428394,1499565902,79386850,,0.68251325838,-0.12558738573,0.242516220348,0.825789803387,0.53298981267,-0.171824498351,0.0668535861316,-0.0272893122688,-0.0293905848014,0.00425656945659,-0.0908964530744,0.0876738312691,-0.0122961314267,-1.58016610146,0.644077837467,-0.713894844055,0.0387848690152,-1.24238014221,0.296815246344
2017/07/09/10:04:59.285253,428395,1499565902,89389084,,0.682298059622,-0.125519279327,0.242651484664,0.825877654361,0.53269192603,-0.172307689489,0.06689896945,-0.0266028714697,-0.0113677893184,0.00332167385102,-0.087580701282,0.110556727179,0.00547717565718,-1.68682539463,0.262599647045,-0.56448417902,0.0135137364268,-1.29030835629,0.311801552773
2017/07/09/10:04:59.295196,428396,1499565902,99397221,,0.682010958174,-0.125947539094,0.24303605417,0.825825420027,0.532591602581,-0.172762790375,0.0671682868486,-0.0214122548198,-0.0170099521178,0.0129916292718,-0.0938031452199,0.0729177857613,-0.0188160383092,-1.235896945,-0.227167904377,-0.738356471062,0.146924167871,-1.13200068474,0.252749085426
2017/07/09/10:04:59.305191,428397,1499565902,109389173,,0.681868987037,-0.126569710574,0.243338390207,0.825979800251,0.532027270906,-0.173455771994,0.067951804625,-0.0243275226821,-0.0192387190496,0.0111792451823,-0.11105520434,0.0795433932957,-0.0387606316169,-2.20392799377,-0.827384829521,-0.62204939127,0.23885653913,-1.41845333576,0.324277579784
2017/07/09/10:04:59.315405,428398,1499565902,119397146,,0.681687130634,-0.126894925207,0.243776148549,0.826216013987,0.531414663336,-0.173988987517,0.0685082917965,-0.0271979576613,-0.0299155664458,0.00487050998819,-0.14326844629,0.0833836502614,-0.0710475085265,-0.690222024918,-0.98066163063,-0.245978996158,0.398521333933,-0.935347437859,0.137555658817
2017/07/09/10:04:59.325075,428399,1499565902,129381075,,0.681186387778,-0.127099815158,0.243612497907,0.826351482981,0.53091539661,-0.174921276473,0.0683711580587,-0.0318116196987,-0.0375064089318,0.00775916196584,-0.159682573344,0.0812836055564,-0.10930699613,0.305648267269,-0.854685544968,-0.402339279652,0.529701769352,-0.591584265232,0.0288128778338
2017/07/09/10:04:59.335338,428400,1499565902,139397409,,0.680621718831,-0.12742360588,0.243212570508,0.825805048793,0.531190036779,-0.17659279235,0.068543066061,-0.0359046482375,-0.0280149846087,-0.00208184591563,-0.131928729327,0.125343091653,-0.0458733589486,-0.0992614477873,-0.940050244331,-0.169752851129,0.510657191277,-0.6999745965,0.0253809317946
2017/07/09/10:04:59.345593,428401,1499565902,149380846,,0.680623250813,-0.127986797224,0.243720938565,0.825980534398,0.530922849364,-0.176419698438,0.0689432724851,-0.038678938856,-0.0432273827185,0.0209103694185,-0.118052156183,0.0940498402322,-0.0569802642981,-0.257408738136,-0.841413497925,-0.437705636024,0.484408736229,-0.746498763561,0.0734043866396
2017/07/09/10:04:59.355347,428402,1499565902,159394794,,0.680105034251,-0.128196933544,0.244172483124,0.825744418555,0.530717273173,-0.177965759939,0.0693795320759,-0.042424860795,-0.0494731744214,0.017362475445,-0.163437315285,0.135711831452,-0.0299378998217,-1.04502248764,-0.575047671795,-0.167753010988,0.458004802465,-1.01298332214,0.144768029451
2017/07/09/10:04:59.365044,428403,1499565902,169381743,,0.679482561872,-0.129278741002,0.244084651106,0.825872311916,0.530318191726,-0.178536562822,0.0694423190242,-0.0510197870447,-0.0388890252184,0.0211190809876,-0.126166211821,0.147299779442,-0.0207904417154,-1.93852603436,-0.612788021564,-0.166963487864,0.307174116373,-1.32525599003,0.298531264067
2017/07/09/10:04:59.375099,428404,1499565902,179383986,,0.679046795881,-0.12867312883,0.243852193957,0.82550001667,0.530619342482,-0.179591924456,0.0688445824452,-0.0577418589189,-0.0355762240032,0.00934197050906,-0.120762738929,0.175459398158,-0.0203220711941,-2.24095487595,-0.092276930809,-0.495119601488,0.178724199533,-1.44424378872,0.351276218891
2017/07/09/10:04:59.385201,428405,1499565902,189388471,,0.678587058912,-0.129378952725,0.243921345722,0.825495609632,0.530312272076,-0.180395402288,0.0691620661684,-0.0355629558571,-0.0128305713985,0.0101357020393,-0.10445073206,0.139367029982,0.00415253566201,-1.4797949791,-0.879344046116,-0.190580680966,0.327352881432,-1.08912706375,0.18990637362
2017/07/09/10:04:59.394868,428406,1499565902,199382993,,0.678270265592,-0.129795812489,0.24408252692,0.825404315414,0.530153844521,-0.181186946366,0.069396741296,-0.0357534317507,-0.0272240982911,0.00603474429912,-0.11396027167,0.132283886934,0.00359697909108,-1.33279597759,-0.850169062614,0.139931723475,0.367754787207,-0.992953300476,0.185258239508
2017/07/09/10:04:59.405036,428407,1499565902,209423490,,0.678268608266,-0.129728530228,0.244248425902,0.825209097787,0.5302920279,-0.181590992274,0.0696061893875,-0.0207255340238,-0.0236666128237,0.0166577552789,-0.131092623807,0.0982227876644,0.019057732232,-2.23434209824,-0.79841452837,0.409781783819,0.378656893969,-1.31423032284,0.277804970741
2017/07/09/10:04:59.415027,428408,1499565902,219395367,,0.677854890743,-0.129256401839,0.244166897121,0.824895172175,0.530540267254,-0.182438855272,0.0692173665466,-0.0352729670272,-0.0364572940908,0.00362327177354,-0.108492042182,0.107448236114,-0.0260421917036,-1.83237743378,-0.217483922839,0.545928239822,0.295868575573,-1.1689479351,0.235015541315
2017/07/09/10:04:59.424829,428409,1499565902,229385164,,0.678014958821,-0.129792388491,0.244445897689,0.825175013712,0.530108657533,-0.182226834054,0.069745171185,-0.0343294009121,-0.0301510226126,0.00591500750543,-0.104405796365,0.110742779684,-0.0194665557939,-0.860660672188,-0.0854866653681,0.358724862337,0.283091008663,-0.875454246998,0.129441708326
2017/07/09/10:04:59.435227,428410,1499565902,239395234,,0.67802254375,-0.129571467343,0.244164103091,0.824608272858,0.530739442849,-0.182967709543,0.0697112430209,-0.0108386852816,0.00269544073608,-0.0093942197243,-0.0589502420945,0.0862700439907,0.0155611273174,-0.169609129429,-0.619043469429,0.499849975109,0.417164891958,-0.623712599277,0.0187784135342
2017/07/09/10:04:59.445383,428411,1499565902,249395743,,0.677570894764,-0.129814051566,0.24462983696,0.824761118869,0.530322699067,-0.18348187318,0.0697232663492,-0.0104199763147,0.010610700407,-0.00905591678633,-0.0230983660168,0.0732097070223,0.028406635443,-0.961929798126,-0.445713400841,0.713345885277,0.332981795073,-0.943829655647,0.138226434588
2017/07/09/10:04:59.454912,428412,1499565902,259391083,,0.67751833065,-0.129833532754,0.244227462264,0.824828810683,0.530254851194,-0.183445110669,0.069535007182,-0.00413238425421,-0.00562557232536,0.00843097642649,-0.032707222926,0.0247891499224,0.0141468481915,-0.276085495949,-0.367945969105,0.0730649083853,0.208758413792,-0.683444201946,0.062891215086
2017/07/09/10:04:59.465004,428413,1499565902,269382231,,0.678122155118,-0.129651536636,0.2443396434,0.824553378518,0.530649164596,-0.183323847941,0.0701110324017,0.00870726612108,0.00752156036911,-0.00374650877468,-0.0171294824247,0.00607093028621,0.011649680777,0.264709532261,-1.12561833858,0.318015545607,0.489362627268,-0.482750684023,-0.0254473406821
2017/07/09/10:04:59.475110,428414,1499565902,279389490,,0.67786416096,-0.129521627037,0.244012348986,0.824471411839,0.530756457595,-0.183548722234,0.0696730962977,0.0117148986634,0.0162532288411,-0.0127179313185,0.00830947699123,0.0077552066389,0.0332715221799,0.195377141237,-1.0648920536,0.278531134129,0.479052722454,-0.507508695126,-0.0310229808092
2017/07/09/10:04:59.485561,428415,1499565902,289385942,,0.677879282005,-0.129440826369,0.24418398665,0.824579317992,0.530559003647,-0.183564175359,0.0698590403103,0.00848363774786,0.0131269836562,-0.00204696607225,-0.0131711924388,0.0143250763947,0.031178900942,-0.208230108023,-0.946441590786,-0.340294867754,0.519094467163,-0.639361143112,0.0183248966932
2017/07/09/10:04:59.495175,428416,1499565902,299402889,,0.677931304123,-0.130049554097,0.243877928973,0.824425608197,0.530714396837,-0.18371717919,0.0700902533175,-0.00430188825359,-0.0157236202225,-0.00813884695904,-0.0437163868559,0.0221859481527,-0.0148257005725,0.417927712202,-0.981577634811,-0.227101057768,0.466589450836,-0.43851312995,-0.0815977454185
2017/07/09/10:04:59.505085,428417,1499565902,309395437,,0.677872031411,-0.130051583035,0.244229378105,0.824438629928,0.53051687651,-0.184103667727,0.0704175315498,-0.00239206284736,-0.0161671029606,-0.0073107738676,-0.0508332463782,0.019662044903,-0.0070115335415,0.450879633427,-0.918968677521,0.0782049670815,0.503507733345,-0.396620541811,-0.0994394123554
2017/07/09/10:04:59.514970,428418,1499565902,319380732,,0.677870624944,-0.129460821957,0.243797526195,0.824381041866,0.530734218674,-0.184001171162,0.0697184046885,-0.00114580409973,-0.00343292237126,-0.00348942021233,-0.0200501165477,0.0213801870085,0.0206895652793,0.244545981288,-0.848983407021,-0.386358439922,0.480608135462,-0.465654343367,-0.0676044374704
2017/07/09/10:04:59.524778,428419,1499565902,329381545,,0.677535923498,-0.129717837442,0.243321883479,0.824339960122,0.530799104616,-0.184120452676,0.0693945213304,0.00981024296686,0.0138048825454,-0.00909374044853,0.0142413903776,0.00377841239852,0.0333635522558,0.936383008957,-1.10999727249,-0.133910417557,0.577816903591,-0.211063370109,-0.165938720107
2017/07/09/10:04:59.535394,428420,1499565902,339380890,,0.677595581407,-0.129637815718,0.24350995894,0.824283230587,0.530686524641,-0.184596624629,0.0696638680657,0.00102654303652,0.00402939172153,-0.0104112467948,-0.00773449611745,0.0231609765462,0.0172485643813,0.338580727577,-0.866403460503,0.0206479653716,0.406545490026,-0.393164694309,-0.0954403430223
2017/07/09/10:04:59.545388,428421,1499565902,349385910,,0.6775629757,-0.129438219966,0.243197178871,0.824186859704,0.530874547667,-0.184574080926,0.0694308546773,0.0114614759092,0.00810440455628,-0.00387794907761,0.0114924423737,-0.0219738691635,0.0059833394932,0.0592426657677,-0.699189543724,-0.132686883211,0.457153141499,-0.555950164795,-0.0224500782788
2017/07/09/10:04:59.555089,428422,1499565902,359395265,,0.677837006169,-0.129791975747,0.243460977733,0.824316122807,0.530728370833,-0.18424688368,0.0698814133283,0.00718054465087,0.00632246665991,-0.0122075469,-0.00536462684836,0.00808185779683,0.0141221912739,0.0986803025007,-0.651472210884,0.397753119469,0.476822316647,-0.532712578773,-0.0387191809714
2017/07/09/10:04:59.565080,428423,1499565902,369381287,,0.678059570912,-0.129662082405,0.243019692051,0.8243774396,0.530674309219,-0.184152112976,0.0698184352433,0.0072627464582,0.0122606491894,-0.0202253258999,0.0267456332615,0.00895059105952,0.0253502225894,-0.407298624516,-0.948469460011,-0.25749194622,0.429635941982,-0.680319726467,0.000646244734526
2017/07/09/10:04:59.574898,428424,1499565902,379389329,,0.677884402406,-0.129949504795,0.24324746279,0.824365468094,0.530597812587,-0.184349338203,0.0700204098539,0.00657012673778,0.00485652450497,-0.0158006203256,0.00536499842726,0.00953459347168,0.0196860043993,-0.549463629723,-1.14911854267,0.301348149776,0.51517701149,-0.687728703022,-0.00582196563482
2017/07/09/10:04:59.585474,428425,1499565902,389385216,,0.678339308263,-0.128719854832,0.242886533165,0.824032027968,0.531264773541,-0.184105162787,0.0695287445076,0.00152512444277,0.00747935984538,-0.00896966317434,-0.0221548990635,0.0289777543892,0.0271163348591,-1.01397407055,0.140813410282,0.325163006783,0.148466154933,-0.86349594593,0.138056978583
2017/07/09/10:04:59.595157,428426,1499565902,399397779,,0.678004429451,-0.129469613517,0.24308524361,0.823973344228,0.531197551346,-0.184454824716,0.069810508415,0.0109212898671,0.0119484418181,0.0028972845388,0.00521089283647,-0.0120576376952,0.0166015686303,-1.07138395309,-0.40311974287,0.0409906804562,0.325774282217,-0.88905787468,0.129910960793
2017/07/09/10:04:59.604913,428427,1499565902,409386208,,0.677995945607,-0.129310203355,0.242778829826,0.823763332324,0.531578716374,-0.184429562196,0.0694534175198,0.00776620648869,0.00803511480742,-0.0123755191829,0.00594660785635,0.00665491741692,0.0185726928307,-0.331949204206,-0.586872279644,0.133812129498,0.400980740786,-0.596489965916,-0.00643180310726
2017/07/09/10:04:59.615102,428428,1499565902,419384151,,0.678257102242,-0.12905360877,0.242829136863,0.824090093046,0.531211491128,-0.184000169871,0.0695255904304,0.00895251781816,0.0200086943267,-0.0163062040753,0.0257757234079,0.00707334701336,0.0284958430423,-0.0516589730978,-0.683603346348,0.482524335384,0.404588699341,-0.52381080389,-0.0552649497986
2017/07/09/10:04:59.625334,428429,1499565902,429386017,,0.678136066768,-0.128848690197,0.242639591965,0.823764265292,0.531465014205,-0.184728021097,0.069519293183,-0.00167668143867,-0.00103448150356,0.00648971766069,-0.0113951762692,0.0100342229785,0.010587080324,0.385120630264,-0.299206495285,0.343941539526,0.381856381893,-0.401309072971,-0.0707979351282
2017/07/09/10:04:59.635092,428430,1499565902,439394517,,0.678245689933,-0.129213603326,0.242967213389,0.823846813686,0.531357795479,-0.184529612207,0.0698866438024,-0.00264477880224,0.0143894374091,-0.0129506203507,0.00718762809735,0.0405723045789,0.0305974111942,1.64954447746,-0.88421112299,0.789880096912,0.531574547291,0.0178016498685,-0.264055669308
2017/07/09/10:04:59.645184,428431,1499565902,449383433,,0.678652086539,-0.128415144108,0.242808901722,0.82363400708,0.531830511889,-0.184220570158,0.0696140110621,-0.00402746293042,-0.000542863987917,-0.00441037482927,-0.0215290408615,0.0252552576928,-0.0113617884568,1.19972085953,-0.840901851654,0.158716052771,0.447664886713,-0.0703819692135,-0.217835143209
2017/07/09/10:04:59.655096,428432,1499565902,459390479,,0.678275998112,-0.128454164246,0.242332498704,0.823655910425,0.531688156326,-0.184663482536,0.0692679136542,0.00772525118367,0.0154143500887,-0.0152158879673,0.0176399624058,0.00926981505148,0.00796816279878,1.39771866798,-1.27944946289,0.00292543321848,0.571668565273,0.03714492172,-0.261697888374
2017/07/09/10:04:59.664885,428433,1499565902,469387599,,0.678178076593,-0.128801420061,0.242271125222,0.823715121463,0.531495287322,-0.184906456925,0.0693956800923,0.00418867717196,0.0101179689663,-0.019110880595,0.01487119947,0.0166132663175,0.0109698228883,0.705371797085,-1.31462645531,-0.247037470341,0.598033130169,-0.21121956408,-0.178711175919
2017/07/09/10:04:59.674740,428434,1499565902,479386738,,0.678121654705,-0.128769272293,0.24240239106,0.823483241725,0.531840156045,-0.184960923673,0.0693603325384,0.00736664926931,0.0187925158496,-0.0203012996821,0.0279788960349,0.0179448388463,0.0275485330022,1.03501296043,-1.52499210835,0.334661722183,0.681409955025,-0.109304659069,-0.220294088125
2017/07/09/10:04:59.685239,428435,1499565902,489390796,,0.678794020535,-0.127767143188,0.242202943474,0.823478440905,0.532114648851,-0.184235924492,0.0692414757946,0.00296682831139,-0.00246018060153,0.00873377080519,-0.00704055701294,-0.0171203571471,-0.00581868067298,0.971012830734,-0.587001562119,0.222802460194,0.474094927311,-0.200403377414,-0.163989275694
2017/07/09/10:04:59.694771,428436,1499565902,499387433,,0.677963876199,-0.128844711451,0.242096841157,0.823884723901,0.531273474852,-0.184882126291,0.0691451807415,0.00204967580388,-0.00640673236639,0.00617143925854,-0.0224854368498,-0.0141247769692,-0.0126248734568,1.04427397251,-1.36865139008,-0.214683040977,0.583943724632,-0.0440218262374,-0.228633806109
2017/07/09/10:04:59.705183,428437,1499565902,509388703,,0.678119262695,-0.128369581639,0.241961631228,0.823578708564,0.531773273919,-0.184872646862,0.0689739109174,-0.00829240535921,-0.0129804668728,-0.0132711791382,-0.0132873188963,0.0289306647062,-0.00185474460843,1.32718789577,-1.44505369663,0.0951905101538,0.678144216537,0.0153119489551,-0.28128990531
2017/07/09/10:04:59.715230,428438,1499565902,519409856,,0.678434650357,-0.128531685337,0.242156851952,0.823791313736,0.531479261865,-0.18460687356,0.0694115829987,0.00565459696968,0.00888272672875,-0.00799145908037,-0.00202789143958,0.0120458060351,0.0326152250435,1.49071836472,-1.17591607571,0.244091123343,0.611809670925,0.0355057008564,-0.246621966362
2017/07/09/10:04:59.724994,428439,1499565902,529388072,,0.67836148976,-0.1283600151,0.242765604733,0.823431311982,0.531828023404,-0.185091344873,0.0697210299952,0.00173772457445,0.00693799886634,0.00250295849497,-0.0136466894983,0.0123766628956,0.0238947370972,1.3025124073,-1.02610731125,0.514321386814,0.529332101345,-0.00440301001072,-0.270037889481
2017/07/09/10:04:59.735365,428440,1499565902,539388899,,0.678611847299,-0.128266243507,0.24203486134,0.823216528485,0.53224625603,-0.184910391369,0.0695457930783,-0.000248364032765,0.0187063278844,-0.00503292589961,0.00632637383048,0.0243817518769,0.0209549780459,0.456135511398,-0.574032902718,-0.302456378937,0.338674366474,-0.343467473984,-0.109944880009
2017/07/09/10:04:59.746291,428441,1499565902,549381498,,0.678073778914,-0.128423127414,0.242020867001,0.823520297884,0.531592648065,-0.18549444359,0.0693929887954,-0.00139514944074,0.00963969245613,-0.00807016708311,-0.021678508439,0.0371026852181,0.0255909089866,1.12677395344,-1.00897681713,-0.419059276581,0.468995332718,-0.0475060492754,-0.212873831391
2017/07/09/10:04:59.755382,428442,1499565902,559403932,,0.678366518187,-0.128157961963,0.241932879317,0.823479591645,0.531793131945,-0.185106350282,0.0693762642786,-0.00314708241209,0.0182059541472,-0.0161005887097,0.00458032955308,0.0451104795001,0.0299724442234,0.952760994434,-0.955904960632,-0.249459445477,0.494786053896,-0.158111274242,-0.187332436442
2017/07/09/10:04:59.765037,428443,1499565902,569388582,,0.678465664827,-0.12773664213,0.241615885929,0.822873301992,0.532630652943,-0.185472119641,0.0691679785084,0.00182063157699,-0.00357419033961,-0.00254449213644,-0.00871398883154,-0.00391453059926,0.00679994150364,1.88836562634,-0.998510420322,-0.328851401806,0.577999949455,0.163536801934,-0.30467069149
2017/07/09/10:04:59.775022,428444,1499565902,579389489,,0.678468827382,-0.128136352132,0.242056802887,0.823186055336,0.532066074171,-0.185506923839,0.0696964290653,0.00262063063828,0.00434708224207,-0.0073707484476,-0.0186147300573,0.0276459411681,0.0290809125102,1.46384084225,-1.18774843216,0.155747354031,0.544969677925,0.0287164449692,-0.259261697531
2017/07/09/10:04:59.785792,428445,1499565902,589382945,,0.678590112973,-0.127544649383,0.241900359313,0.823291633794,0.532144447052,-0.185040180406,0.0690891079044,-0.00231936956124,0.00701700185474,-0.00718458685038,0.00242353647995,0.0260448877501,0.0148750716102,1.19280254841,-0.74578243494,0.101339504123,0.441393792629,-0.0719868764281,-0.219809517264
2017/07/09/10:04:59.794901,428446,1499565902,599387236,,0.678889482568,-0.128299086387,0.242167661207,0.823306102078,0.531982945622,-0.185038141704,0.0701576365252,0.00205972120844,0.00622753123418,-0.000626411085575,0.00325855844845,0.000527551352136,-0.00397890627392,1.10522794724,-1.25756490231,0.177855819464,0.528165340424,-0.115789353848,-0.20120215416
2017/07/09/10:04:59.804837,428447,1499565902,609383705,,0.678457259046,-0.128392241126,0.24150997744,0.822925320416,0.53233699739,-0.185869973899,0.0697394510286,0.00450728386705,-0.00359965799668,0.00638738098235,-0.00904359720868,-0.0163094115881,0.00154433611295,0.348841488361,-0.833288311958,-0.506429255009,0.407937169075,-0.30515307188,-0.121217191219
2017/07/09/10:04:59.814970,428448,1499565902,619416260,,0.678811236187,-0.127167706114,0.241706751515,0.823145382299,0.532433011351,-0.184886432418,0.0690201067147,-0.000582649138556,-0.00752472719343,0.00786443410356,-0.0350659569949,0.00667354125373,0.0098993811921,0.980715930462,-0.283340871334,-0.0731299296021,0.349460482597,-0.180950075388,-0.122462794185
2017/07/09/10:04:59.824931,428449,1499565902,629387411,,0.678548191189,-0.127933590251,0.241649952033,0.822948069676,0.532332973577,-0.185831464428,0.0696042145847,-0.00191368988323,0.00607506773781,0.000888566749994,-0.00285235066347,0.0189482738758,0.0178554341641,0.772878527641,-0.923645317554,-0.245506897569,0.428582847118,-0.178459301591,-0.185849756002
2017/07/09/10:04:59.835315,428450,1499565902,639389030,,0.678663762102,-0.12717623123,0.24181060773,0.822877280116,0.532589946351,-0.185549996916,0.0692252089884,-0.00133600050542,0.000482857511447,-0.0011360326254,-0.0239439510405,0.0223190811283,0.0115474848429,1.33957433701,-0.376707136631,-0.103680461645,0.368353366852,-0.0269640684128,-0.220122992992
2017/07/09/10:04:59.844959,428451,1499565902,649382734,,0.678588158888,-0.127714292725,0.241907515466,0.822830098839,0.532692326356,-0.18539517523,0.069412843819,0.00543180311819,0.00599549271581,0.00539306182272,-0.00991095684316,-0.00032891171941,0.0135650720245,1.81216037273,-0.781860232353,-0.00482112914324,0.459678798914,0.133052110672,-0.281214565039
2017/07/09/10:04:59.855157,428452,1499565902,659380425,,0.678840603232,-0.127668053163,0.241561756676,0.822805270129,0.532691172757,-0.185456621686,0.0695517317389,0.00681902886818,0.00869261388148,0.00274613694773,-0.00681836930436,0.00552919269857,0.0410184777796,0.893620848656,-0.66977751255,-0.200498744845,0.377873420715,-0.161173015833,-0.192431867123
2017/07/09/10:04:59.865025,428453,1499565902,669382111,,0.678200574356,-0.128007139299,0.241805008501,0.822684900836,0.532497034887,-0.186508571427,0.0696492251057,0.00406786019399,-0.00231792933415,-0.00099331950794,-0.0313027198727,0.0071129151658,0.0122938183437,1.06725764275,-1.22954034805,-0.15498149395,0.460808753967,-0.0105647295713,-0.224369883537
2017/07/09/10:04:59.875071,428454,1499565902,679385238,,0.679003076008,-0.127387377418,0.241954210115,0.822545542267,0.532898946118,-0.18585749127,0.0699609681334,-0.000184453297995,-0.0127827562203,0.00682480877553,-0.0456536778004,0.00658664575732,-0.00399365670885,1.79167211056,-0.323019444942,-0.30632224679,0.214864999056,0.179222553968,-0.264773488045
2017/07/09/10:04:59.885114,428455,1499565902,689382463,,0.678293684281,-0.128043690682,0.241700075125,0.822697841979,0.532526764653,-0.1863787053,0.0696166929904,0.0043339386476,0.0164131264103,-0.00608786330283,0.00477048477893,0.0240773832767,0.0383628597621,1.25451982021,-1.30053734779,-0.207572430372,0.440632820129,0.0611043795943,-0.262405246496
2017/07/09/10:04:59.894918,428456,1499565902,699382170,,0.678767044693,-0.12812931541,0.242200894735,0.822713093515,0.532483029814,-0.18616461081,0.0703400767844,-0.00694192188326,-0.0256957251765,0.0131896627698,-0.0465990055918,0.00607369780223,0.000837092086777,1.13986313343,-0.906594872475,-0.133602365851,0.392004430294,-0.040938064456,-0.218170374632
2017/07/09/10:04:59.905131,428457,1499565902,709392189,,0.678863110273,-0.127752997948,0.241732310213,0.822402393574,0.532910107972,-0.186375744751,0.0701797807996,0.00222916621824,-0.0111244426403,0.0163505929924,-0.0474707173512,-0.00727479656467,0.00491557379686,0.822953760624,-0.682541131973,-0.59926122427,0.377775073051,-0.17702677846,-0.155708134174
2017/07/09/10:04:59.914957,428458,1499565902,719384143,,0.678876049769,-0.12831169304,0.242480986488,0.822619214462,0.532437467487,-0.18647460082,0.0709591041595,-0.000557148989011,-0.00694439116246,0.0114659501065,-0.0572643830114,0.0176773686907,0.0134673353323,1.6168128252,-0.928932785988,0.308881402016,0.446223199368,0.0811731740832,-0.272439748049
2017/07/09/10:04:59.925050,428459,1499565902,729389478,,0.678786994224,-0.12793959841,0.24177378705,0.822334499362,0.53299971395,-0.186415669162,0.0701888479704,0.0090612711669,0.012993680339,0.00136572915667,-0.0150647727412,0.000446887063571,0.011784022646,1.05168402195,-0.798704206944,-0.398756682873,0.338379889727,-0.0759446620941,-0.2081900388
