time,.header.seq,.header.stamp.secs,.header.stamp.nsecs,.header.frame_id,.pose.position.x,.pose.position.y,.pose.position.z,.pose.orientation.x,.pose.orientation.y,.pose.orientation.z,.pose.orientation.w,.twist.linear.x,.twist.linear.y,.twist.linear.z,.twist.angular.x,.twist.angular.y,.twist.angular.z,.wrench.force.x,.wrench.force.y,.wrench.force.z,.wrench.torque.x,.wrench.torque.y,.wrench.torque.z
2017/07/09/10:07:48.374495,445304,1499566071,179188962,,0.781130113681,0.400204241584,0.165760366224,0.622103221646,0.780362334794,0.0556289232166,0.0304570345647,-5.50221173094e-05,0.00273730310442,-0.00382651373544,0.0136552724885,0.010627316927,-0.0125271565708,7.42320966721,1.95237398148,-0.862025976181,-0.941057145596,2.88354468346,-0.195392787457
2017/07/09/10:07:48.384057,445305,1499566071,189185798,,0.780946953199,0.399585876103,0.165685975917,0.622386717935,0.780170875773,0.0552114838533,0.0303293584425,0.00128485619154,0.00217607700207,-0.00266050195019,-0.00875613678107,-0.00653143853598,0.00527224888197,7.1319065094,1.86341619492,-0.851791858673,-0.840395569801,2.75436997414,-0.154264852405
2017/07/09/10:07:48.394023,445306,1499566071,199183761,,0.780801415886,0.399699788811,0.16577920541,0.622399358867,0.780160681572,0.0552731922621,0.0302195835008,3.41118078205e-05,-0.00967173280979,0.005269821733,-0.0027110775488,-0.00144287571407,-0.0155210200801,7.09211969376,1.63026678562,-0.756548583508,-0.714529693127,2.75302243233,-0.100119441748
2017/07/09/10:07:48.404379,445307,1499566071,209193570,,0.780661905999,0.399977897742,0.165533692663,0.622261147126,0.780284855206,0.0551673642482,0.0300528107907,0.000225490728794,-0.00619569791473,0.00592658153048,-0.00717469909635,-0.00280762251561,-0.0161190618089,7.33896589279,1.96626031399,-0.866763234138,-0.907236278057,2.80742311478,-0.168000489473
2017/07/09/10:07:48.414279,445308,1499566071,219189997,,0.781051176526,0.399135805508,0.165288554481,0.622632313296,0.779976706044,0.0551719965566,0.0303544274266,-0.0026683598159,0.00163803771965,0.00245073607753,-0.0057663203867,0.00396497841424,0.0153910166589,7.56371355057,1.99724602699,-0.935966730118,-0.904457271099,2.89523291588,-0.162988692522
2017/07/09/10:07:48.424268,445309,1499566071,229189307,,0.78101831777,0.399249212809,0.165328808949,0.622857294848,0.779792050482,0.0553650489236,0.0301307088677,0.00523283885785,0.00569442284127,0.00600306358772,0.0145235698435,-0.0108992677154,0.00528349596819,7.70307826996,2.08757829666,-0.979545474052,-0.925586104393,2.94843459129,-0.160387247801
2017/07/09/10:07:48.434602,445310,1499566071,239198039,,0.781230477249,0.399783076704,0.165859099749,0.622597864817,0.779970711902,0.055626680348,0.030385189392,0.00355515271287,0.000645815707889,-0.00292869271268,0.00177114978955,-0.00991851653093,-0.00298204175876,7.63592290878,1.99919176102,-0.921310424805,-0.92321741581,2.93868994713,-0.165323749185
2017/07/09/10:07:48.444253,445311,1499566071,249184661,,0.781185643514,0.39934030537,0.165740553987,0.62231669805,0.780209785277,0.0552581101269,0.0306783237971,0.000278569455313,0.00370654273034,-0.00531869588718,0.00439160097364,0.000430290089784,-0.0106084268566,7.31650924683,2.01945710182,-1.00771605968,-0.917777955532,2.80752515793,-0.177753806114
2017/07/09/10:07:48.454380,445312,1499566071,259189146,,0.781140957896,0.399356762351,0.165705484469,0.622529512558,0.780041467763,0.0553656958041,0.0304459240754,0.0113325533345,-0.0073459481348,0.0133041513872,-0.00335397170007,-0.0282713874994,0.00299390396563,7.09353637695,1.90930974483,-1.09776651859,-0.861679971218,2.72828745842,-0.172955483198
2017/07/09/10:07:48.464402,445313,1499566071,269186192,,0.780968888253,0.399246095282,0.165179588193,0.622868350376,0.779801348608,0.0551565464554,0.0300438045666,0.0126077925049,0.00203338748569,0.0106412890631,0.00174771596911,-0.0218654583398,0.015998770167,7.01924991608,1.95008647442,-1.06051230431,-0.840799510479,2.73749399185,-0.13196362555
2017/07/09/10:07:48.474150,445314,1499566071,279185201,,0.781688153251,0.399117329476,0.166253774465,0.62232042419,0.780166255497,0.0555697685961,0.0311432855993,0.00457336614724,-0.00521975495824,-0.000644783758631,-0.00358117851378,-0.00486489051748,-0.0147660146226,6.51735782623,1.84971058369,-1.04948532581,-0.775425374508,2.57161784172,-0.143716797233
2017/07/09/10:07:48.484509,445315,1499566071,289188754,,0.781412445159,0.399203178201,0.165456525161,0.622255927228,0.780248822002,0.0552805926048,0.0308770606813,0.0113505080752,-0.0268699075491,0.000491442831424,-0.0361215952226,-0.0222502598052,-0.0194131737463,6.90098190308,2.06627702713,-1.09838187695,-0.868875384331,2.69604492188,-0.15669170022
2017/07/09/10:07:48.494344,445316,1499566071,299191292,,0.780801271691,0.399445859104,0.165432490348,0.622076284571,0.78043261127,0.0548644355341,0.030592959233,-0.00425225415173,-0.0246907940839,-0.00637320596795,-0.0400812313627,0.00393766929277,0.00173388828657,6.49324560165,2.00180530548,-1.07547044754,-0.783523261547,2.58601689339,-0.179133504629
2017/07/09/10:07:48.504374,445317,1499566071,309191708,,0.781879823532,0.398397398423,0.165853797521,0.622473149833,0.780048253605,0.0553296773796,0.0314726323135,0.00613182932059,-0.0245195456418,-0.00219292510417,-0.0452278387279,-0.0137148419475,-0.0075149904631,6.59008598328,2.19351196289,-0.913360357285,-0.788248300552,2.67872810364,-0.161882787943
2017/07/09/10:07:48.514252,445318,1499566071,319207587,,0.782199424165,0.39728914454,0.165724036986,0.622993343991,0.779630910923,0.0552066435599,0.0317358249175,0.0224538860171,-0.0522642597546,-0.00276159898876,-0.0440374416956,-0.0272300036772,-0.0599836483213,5.83002519608,1.99624752998,-1.02111196518,-0.642333567142,2.40112662315,-0.14801260829
2017/07/09/10:07:48.524382,445319,1499566071,329188885,,0.781612504607,0.397559948271,0.165657945194,0.622692414582,0.779917520668,0.0545154174893,0.0317944497302,0.0157438626532,-0.0355337248521,-0.00283065546946,-0.0357689352121,-0.0170542050608,-0.0304597024814,5.39789819717,2.09795045853,-1.00527024269,-0.554503381252,2.27830648422,-0.12430909276
2017/07/09/10:07:48.534370,445320,1499566071,339213073,,0.782280061199,0.396291872944,0.165551939777,0.623078431846,0.779600678388,0.0543371092217,0.0323036930822,0.0183973444223,-0.0329344313728,0.00285499586676,-0.0303559095351,-0.0256750934936,-0.0325900228924,4.87056159973,2.10983276367,-0.918500244617,-0.49677580595,2.11652326584,-0.0873885005713
2017/07/09/10:07:48.544298,445321,1499566071,349183732,,0.782384911563,0.39713938559,0.165552605527,0.62301424706,0.77962851453,0.0547388901977,0.0321913216979,0.0184282111717,-0.0581075489061,-0.00637305979097,-0.0612284270798,-0.0202677042866,-0.0465475386267,4.70122241974,2.39406752586,-1.06010711193,-0.674600601196,2.01733136177,-0.167001694441
2017/07/09/10:07:48.554483,445322,1499566071,359187848,,0.782740469277,0.395849575178,0.165798344578,0.623621189919,0.779124612815,0.0546810937743,0.0327326621919,0.0174846264147,-0.0627271574111,-0.00842548872905,-0.0674220648418,-0.0191342047505,-0.0402074643142,4.41037607193,2.40768504143,-0.854666531086,-0.57230836153,1.93757772446,-0.0946388393641
2017/07/09/10:07:48.564301,445323,1499566071,369187668,,0.782846225756,0.395033518655,0.165553156132,0.623688786881,0.779086002741,0.0543508972513,0.0329131800336,0.0077712193694,-0.0702977443942,-0.0161163797362,-0.0466531237116,0.0144893896294,-0.0795991831693,4.46891021729,2.27845096588,-0.859511911869,-0.470299273729,1.98202300072,-0.0814751982689
2017/07/09/10:07:48.574405,445324,1499566071,379191319,,0.782393341694,0.393878229579,0.164799478206,0.624540177648,0.778484976247,0.0534750286576,0.0324211284692,0.00536112640253,-0.0735908084804,-0.0132293196716,-0.0446410304421,0.018570382244,-0.0825671594288,5.32821321487,2.48018503189,-0.571647286415,-0.499367654324,2.30668926239,-0.0739358365536
2017/07/09/10:07:48.584343,445325,1499566071,389197247,,0.782973801458,0.393907710393,0.165593962778,0.624170898344,0.778723578408,0.053794298591,0.0332633661962,0.00744378187956,-0.0791646833847,-0.0156404583592,-0.0421106903627,0.0278326094102,-0.0872836910867,5.83347225189,2.4676926136,-0.286448508501,-0.464960336685,2.4969522953,-0.0468438416719
2017/07/09/10:07:48.594248,445326,1499566071,399192004,,0.782560310273,0.392753629745,0.164692136819,0.625028180366,0.778107525919,0.0533240229315,0.0323264664762,0.0128322241519,-0.0901357812895,-0.00417617483193,-0.0587311729375,0.00560188915885,-0.0668157315577,6.02106571198,2.63025045395,-0.0600795671344,-0.528311133385,2.54533267021,-0.0766421854496
2017/07/09/10:07:48.604151,445327,1499566071,409185363,,0.782873235281,0.391278571456,0.164716258045,0.625817465212,0.777483775606,0.0529279717686,0.0327125161016,0.0220240044983,-0.108481852574,-0.00930688889476,-0.0545066472052,0.00291330452466,-0.120009397652,6.00988292694,2.33913254738,0.00835169106722,-0.264084160328,2.53499674797,0.0568241775036
2017/07/09/10:07:48.614386,445328,1499566071,419211197,,0.782931623125,0.391080685616,0.16435593077,0.625642760306,0.777622761493,0.0529681114986,0.0326857224101,0.0209366169745,-0.10159241082,-5.66620462325e-05,-0.0230588177589,0.00487304875739,-0.153214127461,5.31179952621,2.43116426468,-0.10460293293,-0.369247496128,2.21836328506,-0.0352382063866
2017/07/09/10:07:48.624144,445329,1499566071,429190910,,0.783575442904,0.38986307073,0.165212015133,0.626393898713,0.776962845759,0.053433663959,0.0332304607497,0.0189954933243,-0.0825928193753,-0.00674655604206,0.00510559579049,0.00664104538781,-0.136402279267,5.13606309891,2.16460585594,0.050788551569,-0.359872043133,2.18638777733,-0.0280847400427
2017/07/09/10:07:48.634400,445330,1499566071,439191804,,0.784065644739,0.388648250528,0.165066025891,0.626797163918,0.776633694775,0.0532755284183,0.0335728687528,0.0333631904988,-0.100380029911,-0.000936544798573,0.00331732494769,-0.0322683316386,-0.145611351473,4.77361392975,2.09465026855,0.240595117211,-0.410511612892,2.09884262085,-0.0562995225191
2017/07/09/10:07:48.644492,445331,1499566071,449191809,,0.784293363523,0.387213584435,0.165071384709,0.627849228502,0.775777268263,0.0533956942567,0.0335242621031,0.0354845114579,-0.129380186094,0.00552017972394,-0.0254325867965,-0.0389560991974,-0.154248824996,3.55180907249,1.87677013874,0.365746438503,-0.654154598713,1.55851650238,-0.161866158247
2017/07/09/10:07:48.654310,445332,1499566071,459188570,,0.784459562968,0.385563885054,0.164980857566,0.628299594845,0.775435266283,0.052822303394,0.0339053268123,0.0432361638176,-0.136096422681,0.00514107241357,-0.00250146047806,-0.037499120961,-0.217680977161,3.97855758667,1.81214904785,0.338640511036,-0.715113222599,1.71438670158,-0.167350634933
2017/07/09/10:07:48.664267,445333,1499566071,469184607,,0.784598884472,0.384777309671,0.165058741411,0.629065701583,0.774801629291,0.0530409395364,0.0338443063557,0.0290209304132,-0.133719229414,0.00769841552932,-0.0364629398091,-0.0204601923138,-0.193418020768,4.12779092789,1.91046237946,0.092415638268,-0.722755730152,1.75422430038,-0.143628954887
2017/07/09/10:07:48.674565,445334,1499566071,479183759,,0.784668889729,0.383260300208,0.164820573446,0.629721212264,0.774309090945,0.052366868059,0.0339755446548,0.0246216702482,-0.135479035733,0.00991298969787,-0.0431371978092,-0.0109790080921,-0.17449047389,4.3497633934,2.11959934235,-0.19517634809,-0.707483589649,1.78594338894,-0.103184662759
2017/07/09/10:07:48.684249,445335,1499566071,489189267,,0.785411677515,0.380866344207,0.165323936485,0.630938668252,0.773285817319,0.0523310034228,0.0347405774145,0.0246877749336,-0.177253439867,0.0056470123997,-0.0862271134811,-0.00250958615951,-0.201899605179,4.6466345787,2.15515089035,-0.418089300394,-0.629610955715,1.8991894722,-0.0662828832865
2017/07/09/10:07:48.694201,445336,1499566071,499182475,,0.785190295982,0.38060250498,0.16536096177,0.6308178219,0.773409184663,0.0520799123745,0.0345657544398,0.0243056903593,-0.177077282381,0.00432235750676,-0.105766191827,-0.00903380340178,-0.193291636954,4.32690858841,2.00201773643,-0.407381802797,-0.533572494984,1.79003202915,-0.0821170061827
2017/07/09/10:07:48.704320,445337,1499566071,509194101,,0.785892451557,0.378677654972,0.165538742502,0.631991024704,0.772414374183,0.0521122626657,0.035322674424,0.0287299697413,-0.156913397631,0.00807190408601,-0.0802487717774,-0.0246915938955,-0.176407454594,4.70052671432,2.02873253822,-0.82545208931,-0.51967138052,1.87752842903,-0.0846296325326
2017/07/09/10:07:48.714356,445338,1499566071,519195515,,0.786190242518,0.37644108154,0.165736083922,0.633142329368,0.771474662501,0.0519255748501,0.0355157790018,0.0393523653316,-0.172983542183,0.0158735986956,-0.0497137653899,-0.0361222253775,-0.222366452876,4.85007858276,2.00708627701,-1.02327883244,-0.556950688362,1.92547094822,-0.0800630897284
2017/07/09/10:07:48.724189,445339,1499566071,529185695,,0.786308884777,0.375107827474,0.165420792281,0.633685981396,0.77104869543,0.0516017052775,0.0355422322165,0.0480054235794,-0.162235743056,0.0215359228514,-0.0283317403717,-0.0590711425525,-0.220157229484,4.91003417969,1.925796628,-1.16008245945,-0.611859321594,1.9483269453,-0.114243410528
2017/07/09/10:07:48.734405,445340,1499566071,539189413,,0.787334924785,0.373208404013,0.165809078846,0.634454785044,0.770344773746,0.052003548748,0.0364922761006,0.0458622884525,-0.17690771394,0.0214495043565,-0.0320946682072,-0.0513666113938,-0.255589973413,4.99561500549,2.11793756485,-1.3588269949,-0.708966255188,1.96595644951,-0.122614197433
2017/07/09/10:07:48.744457,445341,1499566071,549212484,,0.787165126164,0.371951514767,0.165567781422,0.635167000462,0.769794780079,0.0515932505606,0.0362906955522,0.0347859657592,-0.183029414171,0.00788439049116,-0.0353177521345,-0.0188450630555,-0.27047940083,5.17831611633,2.09871220589,-1.46540975571,-0.719360113144,2.04116606712,-0.128259658813
2017/07/09/10:07:48.754291,445342,1499566071,559192822,,0.787517940694,0.369727600232,0.165975430158,0.636569269426,0.768627310417,0.0514416423489,0.0366794265916,0.029973358648,-0.171163026187,0.00634788876468,-0.0387413325015,-0.0165131601977,-0.238567722158,5.56377220154,2.26093459129,-1.6440192461,-0.760456383228,2.16357707977,-0.139414221048
2017/07/09/10:07:48.764526,445343,1499566071,569192754,,0.788608194029,0.368287174434,0.166465041796,0.637200054818,0.768044287242,0.0518370645311,0.037376218588,0.0396697607253,-0.209188664414,0.00930052066207,-0.0525578725868,-0.0188018483331,-0.280955006969,5.48096036911,2.00869417191,-1.60908746719,-0.569664061069,2.09930968285,-0.0704061686993
2017/07/09/10:07:48.774374,445344,1499566071,579191173,,0.788521065808,0.366065464975,0.166128650154,0.638691909949,0.7668384045,0.0516086288457,0.0369872272217,0.0545049799764,-0.227265025277,0.0248067092223,-0.0543129340289,-0.0519719889363,-0.292759363139,5.88381671906,2.02123570442,-1.19335973263,-0.609231412411,2.24083018303,-0.0918856263161
2017/07/09/10:07:48.784611,445345,1499566071,589226717,,0.788947361982,0.364178862459,0.166841679141,0.639450944914,0.766193702373,0.0512243316521,0.037759334464,0.0399107608253,-0.207413916609,0.026019942846,-0.0533171359353,-0.0319155086738,-0.263569693084,5.76676416397,2.10697054863,-0.919325113297,-0.709110438824,2.15071511269,-0.123726546764
2017/07/09/10:07:48.794350,445346,1499566071,599191812,,0.789404567176,0.362267298216,0.166965352431,0.640176873949,0.765574199088,0.0512210767032,0.038027845751,0.0271568429307,-0.173715282963,0.016416249152,-0.0262739643032,-0.00138416034856,-0.23993825284,5.5871963501,1.97726297379,-0.877069234848,-0.673005878925,2.01688838005,-0.109909310937
2017/07/09/10:07:48.804286,445347,1499566071,609185413,,0.789479606381,0.360606693104,0.166879597864,0.641153531897,0.764777790633,0.050854828822,0.0380902333359,0.0427275875913,-0.189816839143,0.0244871166868,-0.0490900509377,-0.041680448479,-0.23989517549,5.32448959351,2.02826094627,-1.02588927746,-0.798733055592,1.86814713478,-0.196991950274
2017/07/09/10:07:48.814295,445348,1499566071,619191011,,0.790029523546,0.358237403993,0.167381357778,0.641873643866,0.764141006782,0.0507036676052,0.0389343698496,0.0312359177996,-0.214489713959,0.00244888403107,-0.0707828313167,-0.00566555208093,-0.269806970731,5.70347595215,2.01160907745,-1.28656232357,-0.768693208694,1.98954498768,-0.175837546587
2017/07/09/10:07:48.824345,445349,1499566071,629190180,,0.790364265151,0.355527795513,0.16713614291,0.643169322362,0.763075158153,0.0499686398874,0.0394038172023,0.0496007561969,-0.237744979516,0.0252270756646,-0.0968522983988,-0.059248805685,-0.279527708512,5.58362483978,1.92117607594,-1.21348834038,-0.683243632317,1.93904519081,-0.171335071325
2017/07/09/10:07:48.834368,445350,1499566071,639191343,,0.791105158042,0.353535819106,0.168171997479,0.644064411004,0.76225789176,0.0503726117012,0.0400816780746,0.0542390560736,-0.225834068672,0.0269180064101,-0.0835170280874,-0.0658366373508,-0.271752261204,5.79848098755,2.12427353859,-1.3196823597,-0.72146499157,2.00714826584,-0.17815476656
2017/07/09/10:07:48.845171,445351,1499566071,649186917,,0.791000713799,0.351736750932,0.167530519728,0.644895858268,0.761600003623,0.049860467755,0.0398585025484,0.0425839491178,-0.220332668272,0.0228420038117,-0.0480151606402,-0.0318700141404,-0.277202807139,5.64319372177,1.81402742863,-1.4594181776,-0.530102133751,1.89180231094,-0.141420707107
2017/07/09/10:07:48.854406,445352,1499566071,659185164,,0.792101537813,0.35006714319,0.167660904136,0.645784325113,0.760783528561,0.0503033426722,0.0405043432767,0.0350249042306,-0.219560581696,0.00959918724881,-0.0461887030813,-0.0132490877201,-0.28411092198,5.74342632294,1.84497785568,-1.50475406647,-0.532606363297,1.92119288445,-0.110354937613
2017/07/09/10:07:48.865019,445353,1499566071,669185437,,0.792437579906,0.347635020422,0.168242635783,0.64727422253,0.759504797742,0.0503120731072,0.0407091925076,0.0527002361869,-0.229705571633,0.0253420510317,-0.0512014896192,-0.0568781154056,-0.30016188457,6.47050380707,2.06566047668,-1.49045407772,-0.713751912117,2.17227101326,-0.15412068367
2017/07/09/10:07:48.874408,445354,1499566071,679191694,,0.792860012792,0.345187628992,0.168088135153,0.648320555318,0.758614193574,0.0499029773045,0.0411661962739,0.0534725889218,-0.236557142143,0.0137196342371,-0.0318045093262,-0.0537847440321,-0.313573235169,5.82513570786,1.05460751057,-1.37689387798,-0.136311545968,1.97226965427,-0.0161105617881
2017/07/09/10:07:48.884234,445355,1499566071,689190392,,0.793133163557,0.341892038749,0.168555895567,0.649724118674,0.757411904342,0.0496099516692,0.0415286584126,0.0472793026739,-0.261512352695,0.0186547030938,-0.0523239925579,-0.0424686382077,-0.337130762993,5.3302989006,-0.102283030748,-1.50146722794,0.426318198442,1.77549731731,0.109533689916
2017/07/09/10:07:48.894360,445356,1499566071,699194925,,0.793923509655,0.3397537508,0.168562734575,0.650918872228,0.756332920145,0.0501415754386,0.0418444511761,0.0406369514882,-0.261964783449,0.00452216716057,-0.0401715740698,-0.0250913490749,-0.334770081643,5.42594099045,-0.149307206273,-1.38769245148,0.425023764372,1.84173750877,0.0899954736233
2017/07/09/10:07:48.904340,445357,1499566071,709232757,,0.793916255587,0.337440603071,0.168631085876,0.652385618478,0.755103442387,0.0496868699058,0.0417493839234,0.0421251291135,-0.23794589579,0.0130190239471,0.0106400920061,-0.0437071504278,-0.327957419092,5.40547990799,0.267257273197,-1.35689234734,0.181039869785,1.84490954876,0.00156360864639
2017/07/09/10:07:48.914447,445358,1499566071,719191965,,0.794531318322,0.335831620367,0.168827468681,0.653057316583,0.754475319722,0.0502783908739,0.0418953052081,0.0396898278151,-0.250596061282,0.0136412842663,0.0217402033081,-0.0250952740942,-0.370680603241,5.97786045074,0.704678118229,-1.37886881828,-0.130315542221,2.04351997375,-0.0335144773126
2017/07/09/10:07:48.924491,445359,1499566071,729192873,,0.794815842545,0.332830696217,0.16832583735,0.654775431661,0.753002103759,0.0500554859346,0.0418499003126,0.030260405838,-0.24738371226,0.00475939934847,0.0184032044445,-0.00704704894972,-0.357579469621,5.62412595749,1.51396822929,-1.46532893181,-0.621137261391,1.86439585686,-0.203670039773
2017/07/09/10:07:48.934491,445360,1499566071,739190889,,0.794792167772,0.330086868276,0.168637614951,0.656004242895,0.751947698072,0.0496382274496,0.0420611346015,0.0185739055572,-0.244875168904,-0.00237370586636,0.0228720204506,0.0177302886739,-0.33681761215,5.67206287384,1.8408523798,-1.66647720337,-0.759569108486,1.84442961216,-0.201532155275
2017/07/09/10:07:48.946222,445361,1499566071,749185203,,0.795072038925,0.328373356205,0.168620421194,0.657101547403,0.750983166516,0.0498147323641,0.0419563159614,0.0239497710564,-0.257174210955,0.0036682227754,-0.00404364856246,0.0029421424021,-0.347963507548,6.1712436676,1.81384265423,-1.69358146191,-0.740629971027,2.01578092575,-0.181893020868
2017/07/09/10:07:48.954146,445362,1499566071,759189469,,0.795296602658,0.324684588965,0.168179964714,0.658706781186,0.749594615477,0.0493266316872,0.0421920878148,0.0257993024807,-0.283800997193,0.0132603332084,-0.0173694563177,-0.0107680345296,-0.394602803615,5.80181407928,1.52949535847,-1.68337953091,-0.500510632992,1.86178267002,-0.114405751228
2017/07/09/10:07:48.964411,445363,1499566071,769183047,,0.795357136677,0.322494069522,0.168788479198,0.660118334311,0.748337110336,0.0496893377865,0.0420276541205,0.0296824657969,-0.299096413557,0.0157107125469,-0.0162765500995,-0.0162510822097,-0.401022995009,5.98049783707,1.02100014687,-1.77202689648,-0.248929411173,1.88787424564,-0.07131947577
2017/07/09/10:07:48.974410,445364,1499566071,779191568,,0.795750532567,0.319511867586,0.169181331769,0.661668083983,0.746949817001,0.049606803199,0.042432093964,0.0153796876931,-0.292111072417,0.00925719275393,0.00739392124087,0.019675401317,-0.409015760985,6.03918743134,0.84563267231,-1.84602558613,-0.148135572672,1.89998102188,-0.0398077405989
2017/07/09/10:07:48.984432,445365,1499566071,789190149,,0.795442727802,0.315966341634,0.168605713426,0.663360243975,0.745529978185,0.0486446931607,0.0420943246615,-0.00365267221147,-0.305169334838,-0.0153699946223,-0.000422743588884,0.0650454319309,-0.426262346247,6.40269041061,1.10661363602,-1.82566380501,-0.300987422466,2.03116130829,-0.0838568359613
2017/07/09/10:07:48.994470,445366,1499566071,799185169,,0.795852254863,0.313513029,0.168550392412,0.664716509641,0.744286721312,0.0491846593484,0.0420726463836,0.0253108494903,-0.288230409016,0.0018502814572,0.0189470473354,-0.0117290058153,-0.410338331216,6.42768096924,0.365894079208,-1.72598719597,-0.282728999853,2.02102661133,-0.091455437243
2017/07/09/10:07:49.004267,445367,1499566071,809186446,,0.796193509196,0.310409073305,0.168907392759,0.66627376419,0.742879330208,0.0491046745906,0.0424064008716,0.018631434438,-0.291537569462,-0.00422029511739,0.0224117363525,0.00234687715247,-0.407217611921,6.13308143616,0.469446957111,-1.52666199207,-0.387498915195,1.95053851604,-0.101189211011
2017/07/09/10:07:49.014430,445368,1499566071,819192805,,0.79660868239,0.307855901797,0.169252918034,0.667875523149,0.741400945221,0.0494865737297,0.0426380466731,0.032933190369,-0.316391720647,0.0139825733992,0.0246555581192,-0.0313684358017,-0.460883657675,5.79100751877,0.837652862072,-1.53655552864,-0.553271412849,1.83541858196,-0.141457900405
2017/07/09/10:07:49.024132,445369,1499566071,829184188,,0.796988875637,0.305089996547,0.169040131135,0.669328589528,0.740090834613,0.0493964266461,0.0427175467028,0.0272851511762,-0.301862072385,-0.00336821201599,0.0283466115469,-0.00968005481942,-0.442936533864,5.22484731674,0.599810123444,-1.41427373886,-0.464410454035,1.6202288866,-0.0943544134498
2017/07/09/10:07:49.034381,445370,1499566071,839183166,,0.797003185765,0.301427300605,0.169238105013,0.67125138353,0.738347342291,0.0492259461655,0.0429137328249,0.0309307656662,-0.325393081666,0.0126061598385,-0.0185243235701,-0.0287660030563,-0.429130153541,4.61808919907,0.385818183422,-1.61775588989,-0.283831179142,1.39631903172,-0.0532255917788
2017/07/09/10:07:49.044244,445371,1499566071,849185974,,0.797295728099,0.298465086731,0.169190596813,0.67253889484,0.737170110553,0.0491567909386,0.0430728793939,0.0205278942714,-0.328404178589,0.0139208429067,-0.00448421921161,-0.0167918838367,-0.448420218787,4.48367118835,0.316776901484,-1.56467819214,-0.280817329884,1.35536551476,-0.0830541551113
2017/07/09/10:07:49.054291,445372,1499566071,859193735,,0.797479151278,0.295278981277,0.169277140645,0.67406816324,0.735758533373,0.0491886970413,0.0432661988041,0.0299910070436,-0.344752085598,0.012815529285,-0.0265744794817,-0.0360483454793,-0.454783409479,4.97764015198,0.324593633413,-1.71811211109,-0.265886247158,1.53232455254,-0.0531235411763
2017/07/09/10:07:49.064345,445373,1499566071,869185149,,0.797437573296,0.291545052352,0.169387096354,0.675717831916,0.734275059926,0.0485566882803,0.0434487747237,0.0168355106727,-0.34005680008,0.0137498114675,-0.0153972943242,-0.0191338732669,-0.451869871127,4.80546522141,-0.12384082377,-1.50805175304,-0.114667490125,1.49538660049,-0.053098782897
2017/07/09/10:07:49.074279,445374,1499566071,879191456,,0.797978184214,0.288990503743,0.169998059448,0.677507863729,0.732553087365,0.0494036737429,0.0436846174068,0.012243234714,-0.340687941956,0.0140473471709,-0.00656142483492,-0.00640037196454,-0.455743988631,4.85911798477,-0.0497310906649,-1.6198476553,-0.0767730101943,1.45349895954,-0.0130284838378
2017/07/09/10:07:49.084407,445375,1499566071,889183654,,0.797850128387,0.285508995825,0.169461932804,0.678923930627,0.73128964152,0.048535896964,0.0438408865437,0.00796711745032,-0.318737946035,0.0122689871212,0.00447079197028,-0.00452276980452,-0.447952684483,4.85976219177,0.119698613882,-1.63367688656,-0.154693454504,1.44328737259,-0.0422081723809
2017/07/09/10:07:49.094331,445376,1499566071,899190211,,0.798223530248,0.282392635032,0.169873997595,0.680472361656,0.729815023608,0.0486893152164,0.0442351322175,0.0126650449802,-0.351783951447,0.0110770958631,-0.00225205409513,-0.00747698397296,-0.49518859136,4.97031164169,-0.217037886381,-1.80157387257,-0.103904590011,1.47174501419,-0.0477126948535
2017/07/09/10:07:49.104378,445377,1499566071,909186207,,0.798470030455,0.27808191626,0.169871080244,0.682434927114,0.72796597059,0.0487160159472,0.0444394611503,0.0158880021412,-0.358766132126,0.00953047240595,0.00458585627994,-0.0221847258424,-0.5078573408,4.99140644073,-0.290171146393,-1.94290614128,-0.117059543729,1.46666169167,-0.0392633602023
2017/07/09/10:07:49.114477,445378,1499566071,919187327,,0.798474321035,0.275231921213,0.170108338468,0.684105890764,0.726395962499,0.0486016858784,0.0445635727666,0.00448146517235,-0.347422903182,0.00529028699071,-0.00628460963367,-0.00158602239498,-0.46054269943,5.53152370453,0.554534614086,-1.92053222656,-0.60702419281,1.69120466709,-0.176330506802
2017/07/09/10:07:49.124428,445379,1499566071,929184695,,0.798668119455,0.271223568274,0.17006940734,0.68617046923,0.724434423897,0.0485623082086,0.0447945850644,0.00858406495628,-0.343812597432,0.00678047342181,-0.00458566527194,-0.00999387984417,-0.476589729681,6.02093791962,1.74733960629,-1.99590885639,-1.31491041183,1.84029889107,-0.368615090847
2017/07/09/10:07:49.134307,445380,1499566071,939190783,,0.798503446165,0.268071543151,0.170288099978,0.687704092814,0.722996112115,0.0482719060715,0.044827733364,0.0166721540489,-0.349843853649,0.0180261054384,-0.00887211784509,-0.0263451120532,-0.489516311799,4.86856222153,2.27781319618,-2.11600732803,-1.48644340038,1.39317142963,-0.40212982893
2017/07/09/10:07:49.146288,445381,1499566071,949197832,,0.798794493551,0.264099427349,0.170025464454,0.689311674576,0.721446001625,0.0478425981856,0.0455649847124,0.0214541622463,-0.358919014033,0.0139307663404,-0.0406928928385,-0.0380375475099,-0.470689068961,3.99705529213,1.67360854149,-2.20422935486,-1.07563078403,1.06926357746,-0.273244321346
2017/07/09/10:07:49.154050,445382,1499566071,959185071,,0.799188180287,0.260914090324,0.170512936125,0.690871702494,0.719917482577,0.0483102608995,0.0456204741867,0.0119838772935,-0.376919268556,0.0122051784722,-0.0404220544942,-0.0317632700548,-0.484023954124,3.24007058144,0.959357619286,-2.21132016182,-0.6666431427,0.785075604916,-0.188098117709
2017/07/09/10:07:49.164163,445383,1499566071,969186721,,0.79933990368,0.258032697425,0.171296381521,0.691989867865,0.71878274337,0.0484545217647,0.0464063565202,0.0100197953532,-0.375194361157,0.015627742205,-0.0501635000116,-0.029546570761,-0.473053031614,3.13503694534,0.0258773379028,-1.90759551525,0.00896703824401,0.797118484974,-0.0122215934098
2017/07/09/10:07:49.174453,445384,1499566071,979191576,,0.798529373582,0.254151006355,0.17043150122,0.693946528803,0.716997215697,0.0472708464819,0.0460290660111,1.72110096327e-05,-0.39121651913,0.0137960435617,-0.0682821011242,-0.0154528891125,-0.482680446632,3.03208661079,-0.431983917952,-1.75268518925,0.271646529436,0.784755408764,0.00974276661873
2017/07/09/10:07:49.184528,445385,1499566071,989184580,,0.798822562709,0.25044145444,0.170640067564,0.695669797012,0.715307297489,0.0473188000953,0.0462594297685,0.0085675702616,-0.388637430706,0.00939395891869,-0.0570567331682,-0.0292563098772,-0.49425022271,3.31605005264,-0.40285345912,-1.54485416412,0.204054236412,0.892355501652,-0.0142170079052
2017/07/09/10:07:49.194345,445386,1499566071,999194443,,0.799340080729,0.24730707264,0.171224982456,0.697413734889,0.713539427434,0.0479689603779,0.046632035412,-0.00437141806396,-0.376347989174,-0.00313722420463,-0.00278576547508,0.0101762855013,-0.508654859703,3.19080543518,-0.377782315016,-1.19740819931,0.17546826601,0.796171605587,0.0168822258711
2017/07/09/10:07:49.204513,445387,1499566072,9184913,,0.799282007741,0.242815410325,0.171304686158,0.699436020567,0.711561853212,0.0476299829609,0.0469080687089,0.00371171177742,-0.374986812936,0.00447045284066,0.0424760558196,-0.0152522915078,-0.546994275867,2.89979743958,-0.314852178097,-1.49314880371,-0.121713116765,0.649869203568,-0.0994265675545
2017/07/09/10:07:49.214334,445388,1499566072,19197643,,0.799038432433,0.239564041913,0.171294098754,0.701259266268,0.709783804799,0.0475045722385,0.0467515511488,0.0114012781339,-0.370222354355,0.034251360585,0.0283959842391,-0.0447877443899,-0.533022113311,2.09880304337,0.267197906971,-1.54856586456,-0.299550205469,0.355044305325,-0.109907209873
2017/07/09/10:07:49.224302,445389,1499566072,29188307,,0.7994070189,0.235871366266,0.171424975919,0.703412952531,0.707607152934,0.0476198159749,0.0472724915204,0.00225442926593,-0.366521559409,0.0163786074787,0.00387099133178,-0.0187574826037,-0.544822118715,1.28582596779,-0.0410918742418,-1.46537411213,-0.201471596956,-0.0439326316118,-0.140655398369
2017/07/09/10:07:49.234313,445390,1499566072,39195736,,0.799117805956,0.232363840061,0.171380209204,0.705334525011,0.705713276344,0.0473945519354,0.0471777051895,0.00567845170291,-0.370533837754,0.0145068279123,0.000742354980857,-0.0279050380796,-0.580692905408,0.917393147945,-0.187830284238,-1.12262892723,-0.0374448597431,-0.108772858977,-0.0530861280859
2017/07/09/10:07:49.244453,445391,1499566072,49191400,,0.799274844889,0.228537431027,0.171455572448,0.706960742966,0.70406377607,0.0473317542202,0.047543792169,-0.00470638082193,-0.376232987107,0.0100617256538,0.00362319377439,-0.0105010359145,-0.579676878564,0.684932649136,-0.394697725773,-0.811618387699,0.00414337217808,-0.213669553399,-0.0918230637908
2017/07/09/10:07:49.254309,445392,1499566072,59188972,,0.799207867818,0.224968524543,0.171704006708,0.708699338498,0.702314578278,0.04700478432,0.0478542683762,-0.0111117831376,-0.399796027641,0.00118199139464,-0.00822721037332,-0.00138447738829,-0.556243344655,-0.0119710974395,-0.444265067577,-0.612141728401,0.032928340137,-0.448219120502,-0.0701673179865
2017/07/09/10:07:49.264513,445393,1499566072,69184306,,0.798978649863,0.221963047877,0.171568731547,0.710446707008,0.700557612449,0.0472161512041,0.0474883481119,-0.0119730107964,-0.394753062671,0.0147206187971,-0.0133642901088,-0.00260442992227,-0.541022533458,-1.01091885567,0.0482265539467,-0.404740303755,-0.138977408409,-0.855084717274,-0.0652828887105
2017/07/09/10:07:49.274340,445394,1499566072,79191970,,0.799274598526,0.217455011817,0.171943761326,0.712563748705,0.698357126983,0.0472054411454,0.0481858231221,-0.0116022973734,-0.375246877204,-0.00233409545135,0.0116777305222,-0.00149517424474,-0.527652775993,-2.46693325043,-0.289305388927,-0.117500916123,-0.0659879744053,-1.35839545727,-0.0606767423451
2017/07/09/10:07:49.284566,445395,1499566072,89192440,,0.79900851631,0.213934212139,0.171742733884,0.714165348727,0.696732099261,0.0469787149079,0.0482207101021,0.00252633380844,-0.392437335002,0.00454105613361,0.00782150140715,-0.0381489435208,-0.559374300825,-2.94405245781,-0.0339234024286,-0.0620312020183,-0.12161295861,-1.48372900486,-0.0596323385835
2017/07/09/10:07:49.294332,445396,1499566072,99201752,,0.79934123351,0.209845742846,0.172329754359,0.71613989092,0.694640980995,0.0470926389251,0.0489882385374,-0.00172668561556,-0.400130601398,0.0142274021514,-0.0169422255351,-0.0453249377224,-0.54348382048,-3.87890052795,-0.108183294535,0.684400975704,-0.0834059268236,-1.74745440483,-0.0527280494571
2017/07/09/10:07:49.304249,445397,1499566072,109190174,,0.799205717325,0.206420276359,0.172171428526,0.717348976242,0.693403780608,0.0467641678173,0.0491401661654,-0.0163332513122,-0.395748513069,0.016731744269,-0.0348661858493,-0.0210713141407,-0.524104599978,-4.80933952332,0.151157617569,0.853091478348,-0.115757353604,-2.07066488266,-0.0579723976552
2017/07/09/10:07:49.314317,445398,1499566072,119190955,,0.798753653821,0.201896930995,0.172266581075,0.71948315551,0.691209665564,0.0463715103323,0.0492226593857,-0.021659578866,-0.397528223217,0.0124257127433,-0.0491003440016,-0.00439389283474,-0.51916275662,-5.57737636566,-0.0851380228996,1.01836073399,-0.0476929694414,-2.33852529526,-0.0487545952201
2017/07/09/10:07:49.324262,445399,1499566072,129200845,,0.79826118792,0.198269282587,0.172075609034,0.721463705069,0.689183595006,0.0458393782656,0.0491410830476,-0.0193405858302,-0.38867324089,0.00878714120664,-0.0320578497001,0.00203301292557,-0.504925781101,-6.12537431717,-0.073233820498,1.11020624638,0.131524831057,-2.52403926849,0.0525176674128
2017/07/09/10:07:49.334381,445400,1499566072,139191402,,0.798393445463,0.195344967377,0.172464825827,0.72273797221,0.687804640449,0.0461915004987,0.0494059245918,-0.0318960890371,-0.420654751254,0.0134985076859,-0.0566452127398,0.0279157159171,-0.554227809038,-6.6205072403,0.0875971913338,0.99289816618,0.138326048851,-2.79907035828,0.0357185155153
2017/07/09/10:07:49.344667,445401,1499566072,149186270,,0.797691994701,0.190477221659,0.172764518197,0.724609621595,0.685885949085,0.0449205344204,0.049834794336,-0.0502503536793,-0.420432604925,-0.00303172010463,-0.038838287215,0.0726613421837,-0.564104969255,-7.81476068497,-0.239406824112,1.27034282684,0.294426500797,-3.27241516113,0.0972693711519
2017/07/09/10:07:49.354501,445402,1499566072,159190885,,0.796846097944,0.18707342544,0.172066899587,0.726478450775,0.683982990734,0.0443805993786,0.0492614590091,-0.0382917489884,-0.40343885304,0.0151097134011,-0.0525786850935,0.035707534472,-0.527358816666,-8.43218135834,0.31929153204,1.10505115986,0.117099016905,-3.53150081635,0.0771707594395
2017/07/09/10:07:49.364602,445403,1499566072,169200380,,0.796691831245,0.182931200287,0.172536801812,0.728369929922,0.681959360435,0.0441758606446,0.049569842015,-0.0538681216876,-0.388074147544,0.00428876945094,-0.0415365091082,0.0748911874179,-0.527963495172,-8.23032474518,0.146075904369,1.02066099644,0.102803036571,-3.46853232384,0.0289595201612
2017/07/09/10:07:49.374404,445404,1499566072,179188795,,0.796489676089,0.17962762287,0.172578595057,0.729859765067,0.680383154894,0.0437764316048,0.0496700101577,-0.0386677377817,-0.372806915101,0.00189670586042,-0.00832113937692,0.0479262141759,-0.526740577631,-8.73455715179,0.0626201182604,1.27136993408,0.0640240907669,-3.65655684471,0.00774586945772
2017/07/09/10:07:49.384295,445405,1499566072,189191518,,0.795948456669,0.176955141938,0.172449189832,0.731460632311,0.678704036694,0.0437994034861,0.049069198161,-0.0390988641362,-0.376246614846,0.00892253234598,-0.00792552805145,0.0445391831786,-0.533312018216,-9.07819843292,0.067137375474,1.51361906528,0.190427005291,-3.78353428841,0.0804042071104
2017/07/09/10:07:49.394248,445406,1499566072,199185291,,0.795970368082,0.172196303252,0.173231479944,0.73331255944,0.676646174393,0.0434383081034,0.0501573348123,-0.0447666859713,-0.402146328888,0.00698861052932,-0.0284033994379,0.0434177860114,-0.544372741265,-8.75584793091,-0.375086784363,1.55661606789,0.218494802713,-3.59432172775,0.0368288308382
2017/07/09/10:07:49.404264,445407,1499566072,209185817,,0.795103712444,0.16829746068,0.17291011937,0.73529956809,0.674564334147,0.0426455289106,0.0497881826047,-0.0439828688542,-0.398090694838,0.00983344615345,-0.0466952168201,0.0452819409039,-0.527986837788,-9.65784358978,-0.448934733868,1.60595655441,0.231813922524,-3.94438552856,0.0496111512184
2017/07/09/10:07:49.414328,445408,1499566072,219192052,,0.795032070242,0.164965427851,0.172861492057,0.73703622193,0.672691483976,0.042459244639,0.0496083409833,-0.0439942345587,-0.373947817451,0.0157675067281,-0.0214389082942,0.0505709659437,-0.523094298535,-10.2021608353,0.00781675428152,1.24669420719,0.0900406986475,-4.19198083878,0.0429279729724
2017/07/09/10:07:49.424298,445409,1499566072,229185127,,0.794173127838,0.160597169552,0.17323916267,0.738794123811,0.670801536356,0.0415501920844,0.0498209090883,-0.052792672687,-0.41515274649,0.0119756174411,-0.0319689795317,0.0678266534579,-0.577183089467,-10.216963768,0.317542850971,1.35052573681,0.0891502797604,-4.19829416275,0.114264264703
2017/07/09/10:07:49.434455,445410,1499566072,239191757,,0.793643589015,0.157641125624,0.172974527355,0.740460746233,0.669022540672,0.0410830125217,0.0493853160724,-0.0566235708443,-0.397658130739,0.0169038280137,-0.0420494145095,0.0811849661176,-0.539269833014,-10.2206783295,0.522711634636,1.09737932682,0.0440093763173,-4.22425889969,0.0903174728155
2017/07/09/10:07:49.444228,445411,1499566072,249184323,,0.793261544091,0.152700741711,0.173545086325,0.742437195285,0.666826177532,0.0405693253514,0.0498396414056,-0.0640651822575,-0.382872566209,0.00649905894483,-0.0387429695348,0.114753469738,-0.522572284942,-10.183971405,-0.121554136276,1.4113920927,0.120382338762,-4.2115111351,0.0852950140834
2017/07/09/10:07:49.454314,445412,1499566072,259191746,,0.792854846468,0.149994014502,0.173533453328,0.743623516734,0.665541117359,0.039950840032,0.0498298790506,-0.056308408323,-0.394251941697,0.0152400139619,-0.0619958250737,0.0909990967064,-0.54109351531,-10.4851408005,0.35302811861,1.4186886549,0.114441797137,-4.36165571213,0.105377182364
2017/07/09/10:07:49.464356,445413,1499566072,269184219,,0.792712808899,0.145922153654,0.173840924638,0.745668406254,0.663255780268,0.039613868897,0.0500113911747,-0.0523978150687,-0.387892339746,0.0206405669807,-0.0606324097796,0.0786188486708,-0.534383127683,-10.8664798737,0.235332608223,1.41383218765,0.152301460505,-4.46666049957,0.113998062909
2017/07/09/10:07:49.474488,445414,1499566072,279184865,,0.791184809883,0.142343437593,0.173082231084,0.747335888724,0.661533786868,0.0380470636843,0.0491379609197,-0.0526878593379,-0.396474756914,0.0138096398855,-0.0539206612292,0.0905594616985,-0.551088056768,-11.247961998,0.211177915335,1.28326237202,0.11412935704,-4.56654453278,0.119505375624
2017/07/09/10:07:49.484343,445415,1499566072,289184512,,0.791442082077,0.139068931712,0.174341012133,0.748870578681,0.659742698338,0.0380639489562,0.049835370635,-0.0656697822949,-0.362199200332,-0.000983699870781,-0.0546783356375,0.143021091329,-0.505282809228,-10.649271965,0.00799541175365,1.70910048485,0.22455149889,-4.39240217209,0.136311009526
2017/07/09/10:07:49.494292,445416,1499566072,299189489,,0.790851014154,0.135693592379,0.173942207762,0.750381262635,0.658103092549,0.0371858412985,0.0494519309038,-0.0404078215424,-0.345823519087,0.020613374476,-0.0531118810448,0.0882573156399,-0.47576368685,-11.1625385284,0.229309469461,1.55850362778,0.122763156891,-4.52761125565,0.134859502316
2017/07/09/10:07:49.504352,445417,1499566072,309193027,,0.790166240261,0.132154962741,0.173778916909,0.751849916348,0.656499855244,0.0361299271355,0.0492368938667,-0.0558194933035,-0.390146128515,0.014730656579,-0.096935179126,0.126178760654,-0.508918873009,-10.7757749557,0.300003170967,1.26922392845,0.0148946940899,-4.42733669281,0.0940312594175
2017/07/09/10:07:49.514361,445418,1499566072,319188129,,0.790106339472,0.1283884417,0.174399483244,0.753457395704,0.654649709641,0.0355082113595,0.0497481401936,-0.0353543642677,-0.367373658837,0.0194506529596,-0.0770265623145,0.095066826271,-0.491379515042,-10.7042770386,0.0428801029921,1.19615888596,0.0412735193968,-4.44774246216,0.095242485404
2017/07/09/10:07:49.524316,445419,1499566072,329186267,,0.78977841224,0.124615486257,0.174306339638,0.755200535086,0.652693268443,0.03444016264,0.0497747358952,-0.0472546257291,-0.381672792428,0.0209135124091,-0.120485099014,0.126153006567,-0.506945402782,-10.5287427902,0.0584303438663,1.08387875557,-0.0202147699893,-4.41034173965,0.0982742160559
2017/07/09/10:07:49.534500,445420,1499566072,339190346,,0.788934391908,0.120338207363,0.174536613699,0.756663780961,0.651038853991,0.033130568283,0.0501068720027,-0.0395637798013,-0.37194748698,0.00614717070915,-0.123728256584,0.130740359802,-0.472011774183,-10.1726503372,-0.0832127183676,0.895624399185,0.0905205830932,-4.25858736038,0.126264512539
2017/07/09/10:07:49.544543,445421,1499566072,349192226,,0.788861992409,0.117222412844,0.174495614581,0.757879921531,0.649653240383,0.0321804108107,0.050330040343,-0.0470846024146,-0.371847069162,0.00363311194629,-0.144269940401,0.153112148059,-0.44599769621,-10.4137601852,-0.00216079503298,1.29749166965,0.149094447494,-4.41173315048,0.159893423319
2017/07/09/10:07:49.555444,445422,1499566072,359191612,,0.788135576044,0.114437338302,0.174060721656,0.759170909586,0.648256740752,0.0308142588633,0.0497313739799,-0.0512180052999,-0.374302152634,0.00177517622985,-0.155317155629,0.172930377085,-0.458891750123,-10.4783678055,0.700219392776,0.823070824146,-0.0529649630189,-4.46595907211,0.125012114644
2017/07/09/10:07:49.564246,445423,1499566072,369184483,,0.787903905417,0.110428032345,0.174516042389,0.760303334243,0.64692968743,0.0295992821169,0.0504450389853,-0.0405643885206,-0.367557901219,0.0186027864389,-0.1538458252,0.151551820354,-0.447296694329,-10.4187097549,0.375772386789,0.716417729855,-0.0225860625505,-4.46268177032,0.145298391581
2017/07/09/10:07:49.574467,445424,1499566072,379191462,,0.787712102805,0.107174788852,0.174900868343,0.762002076627,0.644970579927,0.0285969057412,0.050477749815,-0.0297140794421,-0.365536321431,0.0435688294528,-0.172891977885,0.13062128097,-0.429271784171,-10.5889015198,0.360628724098,0.714236080647,-0.104418620467,-4.6019449234,0.133692532778
2017/07/09/10:07:49.584390,445425,1499566072,389186096,,0.787082732763,0.10358626917,0.174547402818,0.763334467882,0.643468100862,0.0271479144991,0.0503218049602,-0.0484676754404,-0.358314972982,0.0233576177404,-0.159728617741,0.195151775835,-0.445749707894,-11.083357811,0.297188282013,0.135009005666,-0.107031151652,-4.81053638458,0.122334212065
2017/07/09/10:07:49.594467,445426,1499566072,399191606,,0.786829355145,0.0995661432391,0.175232095152,0.764449863443,0.642149968092,0.0258754096607,0.0508948714141,-0.0562814680825,-0.372031037213,-0.000201529407661,-0.169866490808,0.225136880235,-0.42898598048,-10.9914121628,0.0296020060778,0.0639891922474,-0.0900733023882,-4.8040394783,0.135955631733
2017/07/09/10:07:49.604341,445427,1499566072,409215760,,0.786915835099,0.096970388552,0.175315654682,0.765421864046,0.641025874853,0.0249180043165,0.0509341817372,-0.0325657216059,-0.362574334723,0.0171690734574,-0.187172900449,0.171672609437,-0.412644577227,-10.4633750916,0.786524057388,0.505486786366,-0.241160228848,-4.66287326813,0.118026681244
2017/07/09/10:07:49.614243,445428,1499566072,419191152,,0.786409906695,0.0930765283389,0.175548147462,0.766653420839,0.639576261131,0.0230030474017,0.0515324977446,-0.0335121935509,-0.350236120363,0.00746212252397,-0.175801252811,0.181867462371,-0.395603952643,-10.301820755,0.746226668358,0.479609400034,-0.175913572311,-4.5432138443,0.202013835311
2017/07/09/10:07:49.624472,445429,1499566072,429188218,,0.785965745284,0.0897345303395,0.175640900033,0.768146012552,0.637854830989,0.0216847572063,0.051212198635,-0.0242758578027,-0.347460500942,0.0147830341215,-0.182312153693,0.175796268154,-0.395998499969,-10.4375648499,0.491650551558,0.158458054066,-0.188203901052,-4.6015663147,0.166481360793
2017/07/09/10:07:49.634210,445430,1499566072,439185987,,0.786276152227,0.0870294826752,0.17570784252,0.769002096726,0.6368271999,0.0208337517286,0.0515058005207,-0.0321369196196,-0.351259180198,0.00411781727854,-0.190230343902,0.211730678365,-0.41658796517,-9.7116985321,0.620061635971,-0.116546869278,-0.245266482234,-4.347468853,0.14186437428
2017/07/09/10:07:49.644331,445431,1499566072,449183575,,0.785472728661,0.0837332616641,0.175432060798,0.770144939006,0.6355345363,0.0187508241706,0.0511960221734,-0.0444667254493,-0.34247876263,-0.0154050432623,-0.187838621936,0.259541414998,-0.395909604209,-9.1034450531,0.884298801422,-0.208312064409,-0.24744848907,-4.13563251495,0.160618662834
2017/07/09/10:07:49.654389,445432,1499566072,459191407,,0.785284950135,0.0799639498993,0.175775840169,0.771446240664,0.633964593066,0.0173594729969,0.0515581341883,-0.0429861449379,-0.343480464161,0.0100033644089,-0.205036002824,0.244410339107,-0.383286818473,-8.77318572998,0.656405746937,-0.141430303454,-0.27850997448,-4.05112934113,0.159119695425
2017/07/09/10:07:49.664396,445433,1499566072,469189799,,0.784243016879,0.077806606413,0.174679906982,0.772320712779,0.633075274591,0.0153643035396,0.0500035147844,-0.0415400301343,-0.342738812848,0.00389226165309,-0.192308859288,0.25541047468,-0.390091180817,-8.15434360504,0.800751388073,-0.325669616461,-0.302697211504,-3.75891590118,0.128725498915
2017/07/09/10:07:49.674319,445434,1499566072,479190810,,0.783384099067,0.0740764368176,0.174315388296,0.773697220878,0.631459231925,0.0131739413832,0.0497824877951,-0.0540205039008,-0.328172046105,-0.0107790436063,-0.176389867856,0.297564320643,-0.382124821817,-7.7278046608,0.310130566359,-0.00742460414767,-0.114424437284,-3.64462518692,0.172124683857
2017/07/09/10:07:49.684062,445435,1499566072,489185536,,0.783172473583,0.0701974826251,0.174943963694,0.77466676112,0.63026603925,0.0112592301876,0.0502927302814,-0.0529626910867,-0.343350742261,-0.00481855742838,-0.188254217951,0.299497801525,-0.385595078745,-7.4693441391,-0.182413071394,0.418590039015,-0.111557669938,-3.51159334183,0.137482613325
2017/07/09/10:07:49.694360,445436,1499566072,499192327,,0.783212293132,0.0675140184146,0.175508122606,0.775492064339,0.629257969059,0.00984779282148,0.0504924499245,-0.051801753266,-0.343625895696,0.00807716564506,-0.221415097582,0.305111773154,-0.372751094813,-7.48997211456,0.901034653187,0.629151701927,-0.291545331478,-3.58821940422,0.125609189272
2017/07/09/10:07:49.704113,445437,1499566072,509191523,,0.782686474613,0.0648171757469,0.175307668409,0.776627494046,0.62793062223,0.00835581555074,0.049830206747,-0.0411708406489,-0.328188763004,0.0124014992539,-0.198578649199,0.289051083183,-0.368084122183,-6.89315605164,0.680197894573,0.201045438647,-0.230927035213,-3.28805494308,0.139629721642
2017/07/09/10:07:49.714155,445438,1499566072,519190391,,0.782233374823,0.0606149734987,0.175641728247,0.778124739129,0.626056319421,0.00602436498599,0.0503893073535,-0.0493403931305,-0.323789065861,0.0128358703127,-0.206690061524,0.308415683524,-0.353844062355,-6.78390645981,0.502781867981,-0.272778689861,-0.280361711979,-3.19713330269,0.149656146765
2017/07/09/10:07:49.724444,445439,1499566072,529184710,,0.782312412567,0.0579771076136,0.175701137317,0.779013731764,0.624969854309,0.00494651430286,0.0502575260486,-0.0422460158594,-0.339984978312,0.0132107703118,-0.207605587259,0.292672645972,-0.394265785022,-4.8883972168,1.25816881657,-0.34400382638,-0.435897469521,-2.51723694801,0.0787676498294
2017/07/09/10:07:49.734469,445440,1499566072,539190426,,0.781515107112,0.0545709884687,0.175489409396,0.780225818996,0.623506703601,0.00249918210887,0.0498077908193,-0.0466585940048,-0.323171949121,-0.00132731110509,-0.201382548348,0.324862315835,-0.366628692024,-4.37537050247,0.80517745018,-0.298546463251,-0.389623999596,-2.27716970444,0.0562314540148
2017/07/09/10:07:49.744415,445441,1499566072,549191254,,0.781031796949,0.0517848356957,0.175699597855,0.780864490356,0.622730896991,0.000783560935077,0.049560706864,-0.0504948333895,-0.332345379377,0.0116053252716,-0.214139949125,0.326823351348,-0.369352013796,-5.00177431107,1.0734256506,-0.309571236372,-0.550754010677,-2.46652984619,0.0264174565673
2017/07/09/10:07:49.754368,445442,1499566072,559205085,,0.780608038429,0.0485236949243,0.175466649647,0.781990308151,0.621346273826,-0.00099690884655,0.0491830472225,-0.0608551546469,-0.329023118654,0.0133474379482,-0.217644598965,0.342545071694,-0.338386581964,-4.94879388809,0.715155422688,-0.204778045416,-0.479998737574,-2.473528862,0.0601185634732
2017/07/09/10:07:49.764059,445443,1499566072,569189447,,0.780507746604,0.046114532146,0.176358398091,0.782840286519,0.620266122316,-0.00248167774118,0.0492429140621,-0.0550693703533,-0.335682339438,0.00790377965985,-0.217020067136,0.329131770111,-0.368070124493,-4.80205535889,1.50426292419,0.283327519894,-0.618276774883,-2.50371456146,0.0404894724488
2017/07/09/10:07:49.774069,445444,1499566072,579188079,,0.779312926184,0.0424462866781,0.175944198052,0.784246466536,0.618520503141,-0.00515946053789,0.0486132377829,-0.0467843775349,-0.317390425344,0.0199342640181,-0.170819415164,0.299403494721,-0.396038874992,-4.26108074188,0.706050395966,0.0679195523262,-0.488596558571,-2.16798305511,0.0650049895048
2017/07/09/10:07:49.784518,445445,1499566072,589183030,,0.778781229124,0.0395064294749,0.176151303465,0.785433067754,0.617025830587,-0.00680864321251,0.0482458583081,-0.0436471491995,-0.306644824221,0.0189345197667,-0.142199959251,0.293670538863,-0.376016347978,-2.85121202469,0.794515013695,-0.257099926472,-0.400729000568,-1.60295844078,0.0193144157529
2017/07/09/10:07:49.794480,445446,1499566072,599191785,,0.778689188682,0.0368572773681,0.176743469768,0.786044337069,0.616236342168,-0.00838517571241,0.0481327287988,-0.0537839523229,-0.293890244238,0.0266032112417,-0.141574709346,0.327581731427,-0.368918827259,-2.28018260002,0.333262532949,0.071890860796,-0.245189517736,-1.40195596218,0.0440595448017
2017/07/09/10:07:49.804445,445447,1499566072,609192412,,0.778048501665,0.0345606826014,0.17654238772,0.787104649017,0.614907039651,-0.0102181459628,0.0474467446304,-0.0601500361126,-0.290661536989,0.0149547364487,-0.12401529791,0.336492151535,-0.370009352105,-1.73738336563,0.550130665302,-0.56267786026,-0.277267605066,-1.17063415051,0.0205367133021
2017/07/09/10:07:49.814317,445448,1499566072,619191268,,0.778138250238,0.0312326075504,0.177217873397,0.788420999603,0.613194458099,-0.0110142514165,0.0475769924149,-0.048780331916,-0.293407910128,0.0180262443286,-0.14305301705,0.302725100337,-0.378299729963,-1.46077680588,0.125808447599,-0.502995431423,-0.258844047785,-1.0491746664,-0.0184933841228
2017/07/09/10:07:49.824263,445449,1499566072,629183756,,0.777684378945,0.0286236202955,0.176775202853,0.789380681461,0.611967491874,-0.0127876996845,0.0470149270198,-0.0425919484249,-0.304551333401,0.0117866672703,-0.124252452322,0.275314533653,-0.390372724366,-0.0530351996422,-0.135785520077,-0.565717995167,-0.240829944611,-0.357266128063,-0.077836021781
2017/07/09/10:07:49.834226,445450,1499566072,639184420,,0.777414636919,0.0257762066732,0.177444571717,0.790640625405,0.610330118853,-0.0139341954328,0.0468015563594,-0.0298368884147,-0.288607323341,0.0237030423413,-0.117628923485,0.241183383432,-0.384733039082,0.289796799421,-0.11114987731,-0.102441832423,-0.185135275126,-0.221567779779,-0.0753327682614
2017/07/09/10:07:49.844541,445451,1499566072,649186960,,0.776436244013,0.0231655714618,0.177278990373,0.791561246351,0.60916626132,-0.0157147912994,0.045829081148,-0.0539920179247,-0.283440172792,0.0179356889746,-0.0945392873489,0.28634038717,-0.407411911697,0.145155280828,-0.288737177849,-0.360110789537,-0.188431456685,-0.140435263515,-0.0974603295326
2017/07/09/10:07:49.854331,445452,1499566072,659191547,,0.776316650889,0.0213754085137,0.177121313544,0.792380544596,0.608142718114,-0.0167304709646,0.0448954150411,-0.0709134619501,-0.286906215761,0.0117211313944,-0.0829380426233,0.321879769262,-0.415559096014,0.0611841231585,0.425650984049,-0.250852257013,-0.325245082378,-0.292094945908,-0.108143672347
2017/07/09/10:07:49.864337,445453,1499566072,669192562,,0.77508410052,0.0173188551495,0.177400159039,0.794095356279,0.605852929888,-0.0190263808085,0.0446406688552,-0.0734051384869,-0.277557807799,0.0135297537277,-0.0678944860793,0.328303371548,-0.398173506497,-0.958345353603,0.0965521484613,-0.326579838991,-0.346704483032,-0.592838287354,-0.0783338099718
2017/07/09/10:07:49.874503,445454,1499566072,679188656,,0.774252134131,0.0162331484697,0.176970957678,0.794710898017,0.605132342885,-0.0203391520005,0.0428457123143,-0.073208387878,-0.284770657102,0.0237970445802,-0.0743568343935,0.313191865095,-0.433043645416,-0.181360885501,0.922259449959,-0.316649883986,-0.459083199501,-0.303909242153,-0.0902934670448
2017/07/09/10:07:49.884400,445455,1499566072,689186219,,0.773381295435,0.0122462390556,0.17724986677,0.796274004674,0.603046474004,-0.0217437315727,0.0425425646791,-0.0768696169611,-0.276597407479,0.0187385674896,-0.0370983445658,0.306755049792,-0.434910473832,0.328265428543,0.056103900075,-0.201287031174,-0.31367829442,-0.116753160954,-0.122789278626
2017/07/09/10:07:49.894290,445456,1499566072,699192820,,0.772884690018,0.00959660323165,0.177749474009,0.797870764182,0.600958006075,-0.0225625629443,0.0417450518208,-0.069603617542,-0.277968364648,0.0157727372349,-0.0146924558231,0.280457257293,-0.439392186038,2.29747128487,0.20831823349,0.148036703467,-0.25321161747,0.652648806572,-0.159998565912
2017/07/09/10:07:49.904512,445457,1499566072,709190011,,0.772690430948,0.00755576708013,0.178385548062,0.798728058144,0.599819798925,-0.0234662107513,0.0412193510815,-0.0595623672756,-0.273389663983,0.0369173615287,-0.0253448453499,0.24404564857,-0.441517389722,2.59823489189,0.516803383827,0.404540002346,-0.385535210371,0.756007969379,-0.201957374811
2017/07/09/10:07:49.914038,445458,1499566072,719184810,,0.771899689987,0.00475847911849,0.178443085258,0.800314857262,0.597719931021,-0.0245445551015,0.0403060556308,-0.0526051893163,-0.271455388879,0.0372966178994,-0.0309317608424,0.224361735621,-0.442618837413,1.4456769228,-0.13531062007,-0.267707049847,-0.263841032982,0.397955626249,-0.172300755978
2017/07/09/10:07:49.924360,445459,1499566072,729190236,,0.771413940269,0.00116358873942,0.178944385158,0.801500530629,0.596081412097,-0.0255859496717,0.0403634579056,-0.060962536262,-0.26828067701,0.0408800749008,0.0123063313247,0.228142524146,-0.438544000907,1.3350893259,-0.52763915062,-0.023690380156,-0.131175875664,0.366097003222,-0.15165784955
2017/07/09/10:07:49.934468,445460,1499566072,739210417,,0.771459743448,-0.000446975216349,0.178898973751,0.802777838467,0.594412241451,-0.0259198145503,0.0393699440283,-0.0580793162434,-0.272668460212,0.0285877949727,-0.0101467599128,0.217841518058,-0.456135141721,2.04362106323,-0.0411588400602,-0.124671943486,-0.229512453079,0.661848723888,-0.207252800465
2017/07/09/10:07:49.944853,445461,1499566072,749225909,,0.770927708399,-0.00310642457185,0.179295235415,0.803962623424,0.592809677737,-0.0266791348326,0.038845976401,-0.0379287932117,-0.266842701631,0.0307904929121,0.0113796289441,0.160762336372,-0.464200239265,2.65288567543,-0.647795081139,0.706519424915,-0.00828160718083,0.949069857597,-0.200769156218
2017/07/09/10:07:49.954370,445462,1499566072,759188838,,0.770656921467,-0.00515663957901,0.17945874257,0.805120765655,0.591272878801,-0.0269971683285,0.0380537568123,-0.0378654942685,-0.265956398204,0.037250176499,0.0260235404497,0.146395895813,-0.459605851486,3.42368674278,-0.228365361691,0.547580242157,-0.0124021619558,1.31986451149,-0.259291470051
2017/07/09/10:07:49.964243,445463,1499566072,769186038,,0.770424744035,-0.00808065207337,0.180165498884,0.806492562223,0.589380328894,-0.0275939777432,0.0379360960615,-0.0504098362237,-0.238988096058,0.0277822736089,0.0558520870521,0.179057065578,-0.44294558089,3.82038235664,-0.704427421093,1.02802729607,0.137752562761,1.41689121723,-0.244185507298
2017/07/09/10:07:49.974336,445464,1499566072,779190149,,0.770498007887,-0.00936500846063,0.180888865067,0.807474978367,0.588096588064,-0.0274348661733,0.037066029413,-0.042796792216,-0.257644886626,0.0389911529231,0.0587517281284,0.129300168616,-0.484837470749,3.76170253754,-0.329028069973,1.16378986835,0.0426046401262,1.36539590359,-0.282925963402
2017/07/09/10:07:49.984613,445465,1499566072,789185633,,0.770124118553,-0.0116373221513,0.181374261743,0.80895790878,0.58609425988,-0.0276201981103,0.0363007577714,-0.0331171334795,-0.242066801986,0.0386360577668,0.108133258803,0.0953831775606,-0.478396172272,3.85050296783,-0.349217742682,0.748991131783,0.0882856249809,1.37021505833,-0.246404051781
2017/07/09/10:07:49.994414,445466,1499566072,799191271,,0.769558037463,-0.0144049493196,0.181264156731,0.810632355529,0.583813936888,-0.0278631673927,0.0354981008861,-0.0292127899563,-0.236468813493,0.0483427833818,0.113240565023,0.0753511964091,-0.469963651529,3.572306633,-0.86676800251,0.41716375947,0.153977125883,1.30933260918,-0.257740914822
2017/07/09/10:07:50.004509,445467,1499566072,809194001,,0.769043327457,-0.0167644270176,0.182045983538,0.81185589238,0.582164836607,-0.0278615041107,0.0346099640988,-0.0336472943965,-0.25138323187,0.0403502716135,0.0979492976492,0.0719902677762,-0.495548819649,4.67370223999,-0.969372332096,0.620031774044,0.113693922758,1.71035885811,-0.312232553959
2017/07/09/10:07:50.014323,445468,1499566072,819185577,,0.769012336119,-0.0189137368019,0.182114229945,0.813173254517,0.580373270708,-0.0276034030485,0.0339731795196,-0.027100805379,-0.237857243626,0.0519154713065,0.119137773724,0.0436068744825,-0.46326969223,5.19946908951,-1.22305583954,0.720331609249,0.200541272759,1.96128809452,-0.33582752943
2017/07/09/10:07:50.024419,445469,1499566072,829186834,,0.768434249586,-0.0216099540044,0.181909344148,0.814640054546,0.578353089519,-0.0277372196292,0.0331652230414,-0.0133464767574,-0.220458733379,0.0482899199627,0.140981110736,0.00995771603363,-0.466230387246,5.91140699387,-1.70541036129,-0.0226304829121,0.231310784817,2.27871179581,-0.375772029161
2017/07/09/10:07:50.034469,445470,1499566072,839192919,,0.768593853695,-0.023362208343,0.182677651418,0.81567499479,0.576914023834,-0.027585046461,0.0329177336664,-0.0282129398942,-0.246053739883,0.0349568502457,0.117488223964,0.0325830127585,-0.506757275112,6.66016340256,-1.23051941395,0.521398127079,0.187138825655,2.47935986519,-0.391197830439
2017/07/09/10:07:50.044337,445471,1499566072,849183903,,0.76926047174,-0.0254464025566,0.183700311049,0.816983113572,0.575116991534,-0.0262987478206,0.0329759616998,-0.00565996802309,-0.2378585058,0.0411210366436,0.105073971512,-0.0237310504003,-0.471020593083,6.63511610031,-1.24627554417,1.02682578564,0.158132016659,2.43819093704,-0.382901489735
2017/07/09/10:07:50.054383,445472,1499566072,859189775,,0.769392839524,-0.0281853920858,0.183859841867,0.818441452197,0.573061664631,-0.0259246646911,0.0328911784074,0.0237415723075,-0.25690072292,0.0650406709045,0.0648047159236,-0.116072146722,-0.464474732754,5.29416751862,-1.28481328487,0.486980676651,0.109970778227,2.00337600708,-0.354065299034
2017/07/09/10:07:50.064333,445473,1499566072,869202200,,0.769624046666,-0.0306060125053,0.184343179654,0.819535938679,0.571491778343,-0.0255684455619,0.0332302135336,0.0135098331285,-0.265015140723,0.0559275727686,0.0505105348223,-0.104034598825,-0.480131599655,5.62608575821,-1.09953784943,0.55217474699,0.156889051199,2.08198428154,-0.358100742102
2017/07/09/10:07:50.074303,445474,1499566072,879189267,,0.769709096561,-0.0336635252018,0.184914223694,0.820914204039,0.569498145784,-0.0252129836745,0.0337051481291,0.0129918675237,-0.266842582284,0.0468894104343,0.0334075294854,-0.106283249902,-0.464602730893,5.55629587173,-1.45216810703,0.465065479279,0.233718961477,2.14192914963,-0.385306537151
2017/07/09/10:07:50.084426,445475,1499566072,889193899,,0.76939967315,-0.0362706144251,0.185544688513,0.82233789857,0.567483272432,-0.024780984089,0.0333019355768,0.00778737384562,-0.271115688558,0.0487443435702,0.0331113161338,-0.116277038576,-0.463463302879,5.07743263245,-1.5781468153,0.796372413635,0.300221145153,2.03220891953,-0.336748957634
2017/07/09/10:07:50.094274,445476,1499566072,899191239,,0.770025360369,-0.039000408374,0.185920652274,0.823316392298,0.56603665902,-0.0241840911494,0.0341723360971,0.0193280278517,-0.257282911116,0.0515374296754,0.046466894775,-0.146886322188,-0.420680580139,6.21716737747,-2.05786561966,1.11740219593,0.413951724768,2.41916394234,-0.388977468014
2017/07/09/10:07:50.104230,445477,1499566072,909190155,,0.769731616542,-0.0412557885126,0.186222457917,0.824516061694,0.564320649293,-0.0239043056889,0.0338238519302,0.014984966733,-0.260298554522,0.052448061376,0.0180161457129,-0.133535595367,-0.403840377222,6.19036912918,-1.73867583275,0.343976944685,0.281663417816,2.44265270233,-0.381275296211
2017/07/09/10:07:50.114318,445478,1499566072,919190954,,0.769619859677,-0.0428377955244,0.185834943923,0.825289843028,0.563227555302,-0.0236883310196,0.0333205479491,0.00274984109888,-0.253726511844,0.0282715764533,0.0380036336993,-0.0957611492779,-0.389110233489,6.56719350815,-1.71207726002,0.362142503262,0.34887868166,2.53876447678,-0.391498684883
2017/07/09/10:07:50.124225,445479,1499566072,929191620,,0.770400079488,-0.0444866520425,0.186117658254,0.826166950364,0.561974135868,-0.0225964133321,0.03350586286,0.0201747545431,-0.263391640424,0.0315910988888,0.041620727939,-0.157543357183,-0.404235502052,7.67436265945,-1.17255949974,0.581740617752,0.318863749504,2.9121389389,-0.398144245148
2017/07/09/10:07:50.134405,445480,1499566072,939191645,,0.770969708207,-0.0484156324221,0.187371334836,0.82763483324,0.559758707676,-0.0214948768928,0.0350534200299,0.0305975462555,-0.28946505695,0.0478745029509,-0.0100786234553,-0.210194210356,-0.444365923425,8.27914619446,-2.14533042908,1.39781248569,0.539407014847,3.14265823364,-0.446269720793
2017/07/09/10:07:50.144253,445481,1499566072,949184647,,0.771312797533,-0.0512715280545,0.187577037525,0.829092344585,0.557611760279,-0.0205548833916,0.0353907575075,0.0337297849897,-0.275191133169,0.0376207045296,0.00163400051472,-0.211581754234,-0.443445227281,7.46517896652,-2.17817163467,1.61669206619,0.436620235443,2.79544043541,-0.42971020937
2017/07/09/10:07:50.154341,445482,1499566072,959184619,,0.771989070528,-0.0531877329404,0.188269269473,0.829941224537,0.556334902874,-0.0195057136029,0.0361741177533,0.0391201689077,-0.257073714307,0.0415787849315,-0.00674926758961,-0.212516001735,-0.404823603916,6.24246931076,-1.32609915733,0.941795051098,0.184239834547,2.20295786858,-0.353605926037
2017/07/09/10:07:50.164631,445483,1499566072,969188532,,0.771959854536,-0.056655320204,0.188500188573,0.831278316205,0.554282557312,-0.0192083977067,0.0371247239019,0.041034677616,-0.268338476291,0.0460228294865,-0.0132797127596,-0.239924605622,-0.413663760836,4.82408332825,-1.51049852371,0.445963472128,0.111907243729,1.68459630013,-0.312938392162
2017/07/09/10:07:50.174389,445484,1499566072,979191747,,0.772089124727,-0.0584625897918,0.187884849162,0.832321844787,0.5527631387,-0.0184549172895,0.0367787331649,0.0401805248611,-0.259612366024,0.0289227871511,-0.00224043450954,-0.234217643138,-0.417327419707,6.34167528152,-1.92252969742,-0.317964285612,0.305854678154,2.2035446167,-0.339303165674
2017/07/09/10:07:50.184159,445485,1499566072,989188946,,0.772199769979,-0.0611170846836,0.188105026914,0.833394820249,0.551130099967,-0.0178527143185,0.037282262312,0.0170450150859,-0.268655683298,0.00767373983249,0.00924812680227,-0.190304439905,-0.422025614272,7.79470586777,-2.45302319527,0.109215460718,0.606942415237,2.65878343582,-0.343737989664
2017/07/09/10:07:50.194340,445486,1499566072,999191700,,0.772406389282,-0.0643322044373,0.188680863439,0.834796069744,0.548968163231,-0.0170552790897,0.0381915586863,0.0128122843689,-0.276431349087,0.0168099897318,-0.0119088477122,-0.195319686184,-0.420270147941,7.64103555679,-2.44429898262,0.478544414043,0.531311869621,2.62707233429,-0.369580626488
2017/07/09/10:07:50.204551,445487,1499566073,9204798,,0.772531377257,-0.0656683442309,0.188640217744,0.835471088005,0.547978300571,-0.0162727022089,0.0379873975596,0.00919507195441,-0.275213327799,0.0218112761402,-0.013896867562,-0.194550701179,-0.424899754631,6.07079648972,-1.63725340366,0.391226321459,0.276683688164,2.01814436913,-0.303683817387
2017/07/09/10:07:50.214271,445488,1499566073,19191515,,0.772359828838,-0.0685165135399,0.188625685404,0.83654000933,0.546287559637,-0.0162652518473,0.0388092329054,0.00404622196306,-0.275638524816,0.0181222177676,-0.0123562018008,-0.19003215445,-0.414573637417,5.24855899811,-1.1386743784,-0.0526256337762,0.0682754814625,1.63964772224,-0.287041723728
2017/07/09/10:07:50.224334,445489,1499566073,29184657,,0.772835756267,-0.0706290198373,0.189138873248,0.837412238194,0.544939174991,-0.0150740559275,0.0394311009514,0.0207826516744,-0.248498770343,0.0177174023861,-0.00308649554687,-0.207083759238,-0.368878332365,3.90965938568,-1.03795468807,-0.100578524172,0.0369376242161,1.1438574791,-0.234195515513
2017/07/09/10:07:50.234349,445490,1499566073,39193929,,0.773354772543,-0.0733416138044,0.1889549933,0.838217038613,0.543646641406,-0.0142778138168,0.040455772142,0.00285809736691,-0.28145187679,0.0301783676835,-0.0417517190931,-0.20546668896,-0.405049939075,4.96785926819,-1.3048145771,-0.0531507357955,0.20450951159,1.45857739449,-0.25498187542
2017/07/09/10:07:50.244146,445491,1499566073,49191428,,0.772361657111,-0.0763564201573,0.189398175011,0.839804776499,0.541178739026,-0.0143810963325,0.0405794758811,0.00187608439486,-0.258059217523,0.0058634804602,-0.0166635454929,-0.183533864244,-0.371981245743,6.98309230804,-2.68100667,0.313784897327,0.677058041096,2.28597640991,-0.308219134808
2017/07/09/10:07:50.254349,445492,1499566073,59224232,,0.771966657667,-0.0792568628525,0.188539458795,0.84087549403,0.53951354458,-0.0141009138534,0.0406780405366,-0.0146996075201,-0.266991165781,-0.0150872549945,0.00453271695026,-0.156224729673,-0.418352079337,6.08143377304,-2.47090363503,-0.377390742302,0.565267920494,1.86510384083,-0.288031220436
2017/07/09/10:07:50.264371,445493,1499566073,69189689,,0.772645567225,-0.0814852140452,0.189008928174,0.841823233356,0.53798711686,-0.0129395873512,0.0416662087727,-0.0294971124023,-0.274498644408,-0.0187654536722,0.000207059556793,-0.128342650063,-0.429577311162,6.07495832443,-2.08108639717,-0.00297654420137,0.356138557196,1.77971506119,-0.269458651543
2017/07/09/10:07:50.274332,445494,1499566073,79192551,,0.771904670158,-0.0840369064735,0.188235805411,0.843133155035,0.535955340043,-0.0127756616935,0.0414142346121,-0.023259984711,-0.249371893239,-0.0155999684166,0.0172272904378,-0.133326019873,-0.425350827493,4.74355506897,-1.76023483276,-0.855183422565,0.123902052641,1.32393527031,-0.200995415449
2017/07/09/10:07:50.284082,445495,1499566073,89184318,,0.77101924229,-0.0861058405815,0.188005078204,0.844027000929,0.534566749751,-0.0128403718652,0.0411331571178,-0.0514725309945,-0.240897201151,-0.0404305531464,0.0230786047881,-0.0526512920786,-0.433689316111,5.14666604996,-1.65998148918,-0.0177483223379,0.161270156503,1.55003643036,-0.242616564035
2017/07/09/10:07:50.294137,445496,1499566073,99192028,,0.770839585848,-0.0878058712348,0.18755535241,0.845061173142,0.532961639087,-0.012278819497,0.0408990892452,-0.0549871720041,-0.233235391739,-0.0275001216998,0.0292922221665,-0.0538341895634,-0.4067722237,5.05443143845,-1.33230948448,-0.313595592976,0.220359623432,1.41330480576,-0.191379368305
2017/07/09/10:07:50.304354,445497,1499566073,109192006,,0.76908097678,-0.0904256540737,0.187008781772,0.846033712595,0.531465705119,-0.0129437602135,0.0400452307611,-0.0703756505878,-0.226431737829,-0.0400789256963,0.0458412739997,-0.0105476819735,-0.374876682115,4.32846546173,-2.47042512894,-0.296194493771,0.443670839071,1.26312553883,-0.186137720942
2017/07/09/10:07:50.314340,445498,1499566073,119192597,,0.768755860502,-0.0927927149338,0.186607084393,0.847190616854,0.529625142073,-0.0124466679979,0.0401291422035,-0.0987853076271,-0.211663388421,-0.0649741017706,0.100308398846,0.0650706834702,-0.360349312153,5.25794315338,-2.62583518028,-0.636361420155,0.568184375763,1.52778482437,-0.209174275398
2017/07/09/10:07:50.324424,445499,1499566073,129191631,,0.767044486522,-0.0945849008701,0.185894423983,0.848043231623,0.528336050838,-0.0131613794243,0.0388648012295,-0.114731404505,-0.211255724277,-0.0626037402081,0.102168209112,0.0990956676547,-0.359907749805,4.22604656219,-1.97155642509,-0.434424430132,0.430619776249,1.15067493916,-0.170066699386
2017/07/09/10:07:50.334529,445500,1499566073,139191177,,0.766373659952,-0.0965601807008,0.18564701497,0.848935289812,0.526919461174,-0.0130602084784,0.0386547035123,-0.120242451763,-0.219236903803,-0.0401812797387,0.0933231738299,0.0822003734728,-0.37288371481,3.52579021454,-1.55217885971,-0.501992762089,0.159935757518,0.951130568981,-0.198511064053
2017/07/09/10:07:50.344297,445501,1499566073,149187148,,0.764754186082,-0.0981654768134,0.184839335694,0.849836652561,0.525553923293,-0.0134886332309,0.0372665325537,-0.129880533821,-0.236748630626,-0.0474572276849,0.0959030001758,0.0849584391849,-0.408220843849,3.89577627182,-1.39328050613,-0.522321045399,0.175275176764,1.2393270731,-0.197342634201
2017/07/09/10:07:50.354382,445502,1499566073,159185909,,0.763432988318,-0.101825921028,0.184641264036,0.851202583566,0.523299462883,-0.0139029887266,0.0376635205568,-0.140551404243,-0.211870959884,-0.0487715704617,0.111753586686,0.116627297769,-0.376477217367,2.92830991745,-1.47507047653,-0.542431950569,0.141939789057,0.98228520155,-0.203254342079
2017/07/09/10:07:50.364380,445503,1499566073,169189007,,0.762369408046,-0.103464213007,0.184253452529,0.851657955573,0.522592159011,-0.0142015486876,0.0370739539747,-0.134384315006,-0.207033043245,-0.0565856039098,0.0978142252113,0.114010014903,-0.340057493905,3.99116873741,-1.64042830467,0.285006999969,0.232039093971,1.469856143,-0.248037680984
2017/07/09/10:07:50.374136,445504,1499566073,179193308,,0.761363184437,-0.104456946499,0.183308238579,0.852110402671,0.521936625086,-0.0142353097856,0.0358800363716,-0.125342866953,-0.213062853308,-0.0540247327325,0.0657866683327,0.100382710525,-0.294254883573,3.93647694588,-0.969497799873,0.0131460428238,0.104347378016,1.57290065289,-0.291129499674
2017/07/09/10:07:50.384464,445505,1499566073,189184720,,0.759440246621,-0.106587707369,0.182472206898,0.852910303486,0.520682756578,-0.0150954963625,0.0347218547741,-0.146123376197,-0.195223107603,-0.0717413031526,0.0993899319806,0.163274314399,-0.253121972005,2.78129887581,-0.714671313763,0.242027953267,0.158915996552,1.13600468636,-0.263089805841
2017/07/09/10:07:50.394559,445506,1499566073,199183899,,0.758530500594,-0.108508635996,0.182767673607,0.853884739854,0.51910143717,-0.0149359574332,0.0345176208347,-0.144672443078,-0.179626693888,-0.0538134433553,0.108907155897,0.160919464899,-0.255161041831,2.19388437271,-0.736199557781,0.188243150711,0.0857546776533,0.977859318256,-0.260572046041
2017/07/09/10:07:50.404374,445507,1499566073,209199454,,0.756559420538,-0.110342248665,0.181839959656,0.854478768865,0.518169776807,-0.0159546043634,0.0333401643978,-0.159960903975,-0.191507339719,-0.0592580312157,0.1006389115,0.17981017807,-0.315385317256,1.2583758831,-0.413505584002,-0.00996945053339,0.026095494628,0.589621305466,-0.220493897796
2017/07/09/10:07:50.414243,445508,1499566073,219191031,,0.755540177078,-0.111683972398,0.181062490094,0.855238827636,0.516959882781,-0.0161552371738,0.0325274593468,-0.16187320719,-0.17883348181,-0.0662489031394,0.110211606886,0.188594594413,-0.309914063353,0.975588083267,-0.204060643911,-0.486826628447,-0.142528161407,0.421399265528,-0.244096517563
2017/07/09/10:07:50.424102,445509,1499566073,229186238,,0.753962477407,-0.112779196643,0.180649926144,0.855702921499,0.516272122078,-0.016473300967,0.0310521570569,-0.133869903256,-0.163070640034,-0.0629360059697,0.107218522671,0.140837162078,-0.288841187429,0.929665982723,-0.310712903738,-0.583588540554,-0.0750182271004,0.387932986021,-0.234984502196
2017/07/09/10:07:50.434379,445510,1499566073,239191289,,0.752238835272,-0.114998469852,0.179551385626,0.856752851712,0.514543912926,-0.0172392492141,0.030363152683,-0.141185153786,-0.163208818583,-0.0574143429075,0.113099473346,0.142531003414,-0.299022672017,1.84540581703,-0.727270126343,-0.365694016218,-0.0241521522403,0.672447085381,-0.248601615429
2017/07/09/10:07:50.444221,445511,1499566073,249191312,,0.751332333967,-0.115960505264,0.178882783727,0.857240453531,0.513761351987,-0.0175968680083,0.0296382906133,-0.118933113665,-0.154458939943,-0.060599175506,0.100967071845,0.103273121938,-0.290528328174,1.71555662155,-0.231719791889,-0.722434163094,-0.166852712631,0.660599827766,-0.267600148916
2017/07/09/10:07:50.454346,445512,1499566073,259196442,,0.750496393664,-0.117289740349,0.178235011381,0.857900499287,0.512683482505,-0.0176173085004,0.0291892194267,-0.115026601596,-0.1640268297,-0.0615937049321,0.0835016432988,0.0872075950398,-0.290900934135,1.79246044159,0.254288375378,-0.524234354496,-0.203630536795,0.606810986996,-0.238257735968
2017/07/09/10:07:50.464649,445513,1499566073,269183743,,0.749318231936,-0.119675747921,0.177962648703,0.858693788916,0.511350049067,-0.0177478792489,0.0291739092009,-0.101793981317,-0.15943987358,-0.0700917694977,0.0601830133102,0.0756457711077,-0.242592953077,0.454011797905,-0.592683792114,-0.572316408157,-0.0943024158478,0.205559149384,-0.240427464247
2017/07/09/10:07:50.474356,445514,1499566073,279192117,,0.748748317785,-0.12071473428,0.177534482101,0.859228338545,0.510478481345,-0.0176264726218,0.0287695983392,-0.112024780189,-0.187329530458,-0.0644378923121,0.0521353292481,0.058854807463,-0.288330753954,-0.311781078577,0.234462186694,-0.330173552036,-0.301820933819,-0.151516452432,-0.212580248713
2017/07/09/10:07:50.484311,445515,1499566073,289184528,,0.747560276423,-0.123326414385,0.177042732411,0.860046339939,0.509070569923,-0.0180462391765,0.029013466645,-0.0990987260098,-0.174505738214,-0.0614059339031,0.0368748315321,0.0406624944449,-0.269678772765,-0.987218737602,0.133534818888,-0.440081179142,-0.245834901929,-0.386503309011,-0.138943523169
2017/07/09/10:07:50.494355,445516,1499566073,299190444,,0.746654681218,-0.124419024264,0.176241999426,0.860581826053,0.508205922873,-0.0180222398342,0.0282994610421,-0.0874251325442,-0.172812431637,-0.0497703611037,0.019383100209,0.0085719087349,-0.260555508307,-2.17549562454,1.30222141743,-1.02619361877,-0.59539437294,-0.839325070381,-0.128144785762
2017/07/09/10:07:50.504375,445517,1499566073,309188597,,0.746115762277,-0.125217933412,0.175993971234,0.860722599951,0.507982668468,-0.0179924669679,0.028044350614,-0.0941308039284,-0.144132747276,-0.0584999896417,0.0558997186717,0.0507826165368,-0.20701631849,-1.21046829224,1.65394997597,-0.856793582439,-0.648093760014,-0.513918042183,-0.153550103307
2017/07/09/10:07:50.514467,445518,1499566073,319188573,,0.744473466289,-0.127165956855,0.175035495078,0.861491048075,0.506689240439,-0.0187586944513,0.027336771787,-0.0937498503407,-0.137705647854,-0.0499223554874,0.0286643413866,0.0671803258712,-0.198928916861,-2.08786225319,1.29734551907,-1.30722200871,-0.621822595596,-0.786461532116,-0.167787730694
2017/07/09/10:07:50.524424,445519,1499566073,329216972,,0.744055920411,-0.128994376457,0.174739839529,0.862317391039,0.505267881714,-0.018508278526,0.0277583941464,-0.110274829677,-0.15793943547,-0.0457755857693,0.0354455717683,0.0689719712329,-0.240547129726,-2.42961120605,1.66229736805,-0.872882962227,-0.747126877308,-1.00459265709,-0.150200873613
2017/07/09/10:07:50.534377,445520,1499566073,339189891,,0.743337004795,-0.129821825294,0.174392537095,0.862615131388,0.504795665229,-0.0183068180652,0.027227410435,-0.111512334483,-0.145701981189,-0.0527103452489,0.0579688371763,0.0748092065933,-0.252872289875,-2.2961025238,1.85032892227,-0.604215025902,-0.75363445282,-1.04201602936,-0.134098514915
2017/07/09/10:07:50.544566,445521,1499566073,349188937,,0.742874916005,-0.130922442961,0.174399408281,0.862997189698,0.504137788352,-0.0182146463425,0.0273709259497,-0.0959715867749,-0.132997346784,-0.0549931582022,0.0589318695736,0.0564262933837,-0.206910825011,-2.74126696587,2.29216623306,-0.229151278734,-0.866983354092,-1.1682343483,-0.158294960856
2017/07/09/10:07:50.554451,445522,1499566073,359209321,,0.741403624985,-0.13201951911,0.173249524348,0.863297793442,0.503662832829,-0.0187935666245,0.0262196971313,-0.0708259788495,-0.120697750056,-0.0450590249563,0.0488506120169,0.00803200654034,-0.18007287549,-3.3711104393,1.84273266792,-0.798256278038,-0.798547506332,-1.30723774433,-0.123952016234
2017/07/09/10:07:50.564573,445523,1499566073,369191861,,0.740716368917,-0.133282829862,0.17282829972,0.864138788812,0.502243579316,-0.0184578387488,0.0259778539477,-0.0815149411079,-0.132026681089,-0.0414259117771,0.0517907773828,0.00959075576383,-0.205423313397,-3.34435915947,1.85515844822,-0.736548542976,-0.815923035145,-1.27636158466,-0.138252049685
2017/07/09/10:07:50.574490,445524,1499566073,379192433,,0.739663936054,-0.134313456257,0.172649750526,0.864477559933,0.501657449901,-0.0190626649556,0.0255923061786,-0.0806378781106,-0.114740457488,-0.0415346426333,0.0497707981056,0.0353848008196,-0.175144609395,-3.54016137123,1.88639354706,-0.680623173714,-0.760129988194,-1.31114673615,-0.116759076715
2017/07/09/10:07:50.584307,445525,1499566073,389192338,,0.738759883108,-0.136016336392,0.172395183327,0.865046279715,0.500666622493,-0.0192142406964,0.0256647623458,-0.0888376291429,-0.116550351367,-0.0404195478925,0.03530109408,0.058850821022,-0.200502295377,-3.58726167679,1.64895164967,-0.606351196766,-0.785819351673,-1.36545646191,-0.155055314302
2017/07/09/10:07:50.594450,445526,1499566073,399190822,,0.738320356292,-0.13689438203,0.17228970603,0.865497413927,0.49989721021,-0.0190573718603,0.0255699489261,-0.0979396768464,-0.127900059121,-0.0394901322554,0.0273493673455,0.0678396948698,-0.197741676665,-3.36900186539,2.09812355042,-0.526610851288,-0.947876274586,-1.33157551289,-0.17022061348
2017/07/09/10:07:50.604245,445527,1499566073,409230307,,0.737293354645,-0.137550219803,0.171345876754,0.865714906917,0.499564820286,-0.0192431038001,0.0245437004417,-0.0887188999362,-0.114266048323,-0.0447678020578,0.0476394776582,0.0560665051524,-0.188205838824,-3.26814723015,1.72283065319,-0.55960726738,-0.812363922596,-1.277364254,-0.172352492809
2017/07/09/10:07:50.614351,445528,1499566073,419196362,,0.736757789803,-0.139329818963,0.171463556797,0.866312376913,0.498488913565,-0.0193690017205,0.0252291583717,-0.0794287772905,-0.123709429446,-0.02545092568,0.0186864369601,0.0258080199544,-0.1849042006,-3.08263683319,1.59133172035,-0.627080619335,-0.744192838669,-1.20377826691,-0.180382922292
2017/07/09/10:07:50.624284,445529,1499566073,429184952,,0.735874172609,-0.139684545445,0.171359096188,0.866576681245,0.498060383986,-0.0195387648081,0.0244733752623,-0.0730254060698,-0.0957144147312,-0.0355620723668,0.0362669181417,0.041783487485,-0.16401802952,-2.86117482185,1.97866714001,-0.163952797651,-0.816612839699,-1.15992212296,-0.161136686802
2017/07/09/10:07:50.634259,445530,1499566073,439191041,,0.735638332848,-0.140195939666,0.171126874039,0.86675589672,0.497778910463,-0.0190878460055,0.0242079725386,-0.075470957444,-0.0983556985493,-0.0219846741859,0.021133820801,0.0457195066937,-0.15224925169,-2.38763284683,2.29536128044,-0.322032302618,-0.842890501022,-1.07739078999,-0.189394623041
2017/07/09/10:07:50.644199,445531,1499566073,449191578,,0.73451658294,-0.141776802388,0.170597743478,0.867324603276,0.496786876952,-0.0194256336841,0.023947363044,-0.0862870092765,-0.139803632148,-0.0199333100406,-0.00615514196138,0.0275304270249,-0.193886663338,-3.2940223217,2.3067855835,-0.711493551731,-0.945151209831,-1.37468492985,-0.144190013409
2017/07/09/10:07:50.654408,445532,1499566073,459190465,,0.733282811298,-0.14323563788,0.17039357018,0.868033646899,0.495527556704,-0.0200741605149,0.0238129476808,-0.100674386987,-0.119267645793,-0.0416166764153,0.0461345133753,0.0733421511558,-0.203887028424,-2.51170349121,2.16128921509,-0.281169772148,-0.821420788765,-1.18815374374,-0.151498988271
2017/07/09/10:07:50.664480,445533,1499566073,469193252,,0.732771837641,-0.143634787669,0.170121476538,0.868132661009,0.495362319886,-0.0202740313525,0.0234695244815,-0.0763591943843,-0.092962316389,-0.0198121537487,0.0371291237147,0.045823898494,-0.16321707713,-4.1362195015,3.01526069641,-0.879120051861,-1.13127577305,-1.84573841095,-0.07981595397
2017/07/09/10:07:50.674200,445534,1499566073,479191257,,0.73178402239,-0.144353808084,0.169590784585,0.868755259354,0.494305462489,-0.0203595981888,0.0226251156618,-0.0860020491323,-0.0811155272477,-0.0272720611089,0.0442779763209,0.0864587374753,-0.132317613938,-3.69352674484,2.56790876389,-0.889180421829,-1.13463902473,-1.68931734562,-0.11079145968
2017/07/09/10:07:50.684142,445535,1499566073,489184129,,0.730461362628,-0.146104657537,0.169310579512,0.869186868723,0.493533333173,-0.0208773184857,0.0224315371564,-0.0886287128925,-0.10045250233,-0.0166797019471,0.0282199467795,0.0669837565391,-0.182128999169,-4.65461683273,2.03913331032,-1.20692896843,-1.05149304867,-2.03897619247,-0.105486743152
2017/07/09/10:07:50.694407,445536,1499566073,499188163,,0.730064701086,-0.147118561444,0.169480897259,0.869484779428,0.492970634193,-0.0212477144782,0.022906479323,-0.071188220125,-0.103486638379,-0.00796066965495,-0.00125365429097,0.0302766215763,-0.153625171803,-4.22766876221,2.26131153107,-1.2999663353,-1.10438895226,-1.93504488468,-0.0695404708385
2017/07/09/10:07:50.704386,445537,1499566073,509184702,,0.729496873129,-0.147554403283,0.169213744835,0.869632137134,0.49275028049,-0.0210004284221,0.0222730587917,-0.0829324251601,-0.0949570332952,-0.0352264790146,0.030095220066,0.067029391666,-0.142627095295,-3.35436081886,1.79206395149,-1.07906115055,-0.792691469193,-1.71353161335,-0.0784684419632
2017/07/09/10:07:50.714382,445538,1499566073,519187926,,0.729019861543,-0.14854824555,0.168995628669,0.869942327315,0.492178244414,-0.0213066386453,0.0225155506267,-0.0708706438104,-0.0967952551269,-0.0151279395974,0.00940025014854,0.0329481885936,-0.133863993791,-3.33057355881,2.02782082558,-0.878550827503,-0.961721777916,-1.65954518318,-0.089979223907
2017/07/09/10:07:50.724300,445539,1499566073,529186650,,0.728712906526,-0.149661106578,0.168833240715,0.870301573752,0.491554626859,-0.0209072754984,0.0226297452508,-0.0500063486529,-0.0883454944314,0.000840078307357,-0.0114226099803,-0.00625374527814,-0.124589189435,-4.3568315506,2.39606499672,-0.778996527195,-1.22296524048,-1.97211956978,-0.114444956183
2017/07/09/10:07:50.734435,445540,1499566073,539191142,,0.728839973301,-0.150032494776,0.16953071934,0.870466825311,0.491269908,-0.0203556727781,0.0229571364185,-0.0375874083783,-0.0694272610689,-0.015774123609,0.0269767852654,-0.0162533431283,-0.102726081831,-3.69041705132,2.77382159233,-0.538209617138,-1.2173204422,-1.79475498199,-0.0901645421982
2017/07/09/10:07:50.744521,445541,1499566073,549188404,,0.72819136183,-0.150360633886,0.169256875503,0.87085108994,0.490598890948,-0.0206487189685,0.022466369445,-0.0495648335502,-0.0836375766323,-0.0162244514971,0.0101984895538,0.00541307491322,-0.119144729837,-5.65154457092,3.78599572182,-0.724014401436,-1.6244635582,-2.49643659592,-0.0760541111231
2017/07/09/10:07:50.754426,445542,1499566073,559187841,,0.72736535015,-0.151811878901,0.168831629813,0.871058335701,0.490224134296,-0.0207878896273,0.0224841634241,-0.0527141880008,-0.0754001183966,-0.00400408001811,0.0212798395282,0.0077120234439,-0.127797346096,-5.99347496033,3.86100840569,-1.06199812889,-1.74763000011,-2.67062330246,-0.069607436657
2017/07/09/10:07:50.764345,445543,1499566073,569190909,,0.726349964334,-0.151962079297,0.168314197833,0.871242189101,0.489899231311,-0.0215761340022,0.0216855143829,-0.0619729211516,-0.064055626458,-0.018276929916,0.0357785254985,0.041418614413,-0.105855568356,-5.85884475708,3.59187650681,-1.38590586185,-1.61834394932,-2.61001133919,-0.0252867490053
2017/07/09/10:07:50.774334,445544,1499566073,579194152,,0.726003153009,-0.152581329906,0.168329372683,0.871719887276,0.489083327484,-0.021102867894,0.0213683380536,-0.0592046182547,-0.0496515262319,-0.0263356582875,0.0467958502612,0.0569992817272,-0.098017710297,-4.75943756104,2.83604836464,-0.746510088444,-1.33522808552,-2.27356314659,-0.0636200904846
2017/07/09/10:07:50.785177,445545,1499566073,589197411,,0.725403998493,-0.15295661727,0.16801947647,0.871913040035,0.488745797338,-0.0213039175229,0.0210080770243,-0.0511611718455,-0.0365378795464,-0.0229642248328,0.0689586899279,0.0448728818818,-0.11813368259,-3.9958024025,2.08606386185,-1.11221063137,-1.17018043995,-1.94861555099,-0.0850808992982
2017/07/09/10:07:50.794267,445546,1499566073,599188905,,0.725172482957,-0.153326145277,0.168320471487,0.872011988641,0.48857822957,-0.0211792635511,0.0209247234833,-0.0669679865724,-0.0628088575572,-0.00208074736327,0.0620867224269,0.0307181050911,-0.145327037795,-3.25057291985,2.39307451248,-0.936247885227,-1.18517136574,-1.74106621742,-0.0934135466814
2017/07/09/10:07:50.804258,445547,1499566073,609187643,,0.724637313336,-0.153624664136,0.168076591552,0.872423172858,0.487876149373,-0.0209512354211,0.0203891164339,-0.058746001376,-0.0614755358765,-0.0067196016822,0.0286528392457,0.0360155027062,-0.106313284577,-3.00276994705,1.9551782608,-0.999673008919,-1.14451956749,-1.65712428093,-0.110816590488
2017/07/09/10:07:50.814259,445548,1499566073,619195606,,0.724702502254,-0.153826899932,0.168086909761,0.872041717882,0.488544301699,-0.0210171913946,0.0206394092968,-0.0557624352338,-0.0491491101237,-0.00700890084646,0.0330980141548,0.0441769902197,-0.0736054356128,-2.49237728119,2.05480957031,-1.02573025227,-1.15373659134,-1.49541556835,-0.127165019512
2017/07/09/10:07:50.824347,445549,1499566073,629195201,,0.724273795032,-0.154477859049,0.16821961317,0.872635205772,0.487494942226,-0.0208607365328,0.0205258038474,-0.0383088953271,-0.0352042464425,-0.00836965876392,0.0403374516393,0.0249141425396,-0.0500511677349,-2.98849987984,1.74155831337,-0.675602197647,-1.01794040203,-1.59122395515,-0.144025102258
2017/07/09/10:07:50.834464,445550,1499566073,639199880,,0.723308583977,-0.154912704861,0.167938334682,0.872872557338,0.487077211536,-0.0212957275936,0.0198942362274,-0.0442367127227,-0.0428500414365,-0.0186594048322,0.0290627481167,0.0353355960683,-0.0905610863851,-2.92799043655,1.46251678467,-0.236241161823,-0.848161697388,-1.51411902905,-0.109832070768
2017/07/09/10:07:50.844939,445551,1499566073,649193159,,0.723431070813,-0.154603204284,0.16763688284,0.872889960365,0.487066129883,-0.0211691026198,0.019533850339,-0.0407796325504,-0.0360384484601,-0.0160871674357,0.0244249227144,0.0399920132089,-0.0788903578626,-3.98310470581,2.17767953873,-0.480209380388,-1.14302492142,-1.86473965645,-0.132729530334
2017/07/09/10:07:50.854540,445552,1499566073,659189901,,0.722821656069,-0.155240668262,0.167645984952,0.87292719663,0.486976110027,-0.0216290868754,0.0196102077489,-0.0321875002625,-0.0460201965758,0.000907665440513,0.0113010264361,0.00366546314552,-0.0845126080259,-4.16220521927,2.187541008,-0.49090218544,-1.0972880125,-1.87272083759,-0.106601789594
2017/07/09/10:07:50.864319,445553,1499566073,669191406,,0.722893462877,-0.155286077335,0.167568242197,0.872937731848,0.486965432313,-0.0214769914648,0.0195735251351,-0.0261450692929,-0.0370457990113,-0.00311874717983,-0.000145832431122,0.0151073158574,-0.0511524839025,-3.90277266502,2.61235165596,-0.227960973978,-1.17632913589,-1.76400625706,-0.132124915719
2017/07/09/10:07:50.874614,445554,1499566073,679197251,,0.722913890924,-0.155684701414,0.167979866209,0.873056894158,0.486746391079,-0.021300055843,0.0198976871743,-0.0282489683825,-0.00678240102915,-0.00423076047121,0.0380070574701,0.0405157227801,-0.0013247573692,-3.52920079231,2.09624838829,0.0653374418616,-0.986636579037,-1.57773208618,-0.122384205461
2017/07/09/10:07:50.884415,445555,1499566073,689195943,,0.721686045116,-0.155923261428,0.16762279707,0.873179066983,0.486521395035,-0.0222158659326,0.0190185293154,-0.0431039793523,-0.0225229120038,-0.00930703769742,0.0173782123266,0.0713203081173,-0.0317226763599,-2.64937520027,2.01177549362,-0.469839215279,-0.880966424942,-1.23911881447,-0.174335867167
2017/07/09/10:07:50.894303,445556,1499566073,699184587,,0.721473207822,-0.156087399931,0.167122116437,0.873361263695,0.486200668002,-0.0223576084811,0.0186855787787,-0.0416766838794,-0.0175182165473,-0.0137031296944,0.0187132808378,0.0788555181408,-0.0403644192784,-2.46881914139,1.94192779064,-0.758448183537,-0.849696397781,-1.24982953072,-0.15495839715
2017/07/09/10:07:50.904509,445557,1499566073,709191777,,0.720870832376,-0.156190877879,0.166486634603,0.873513109244,0.485953567189,-0.0224446127304,0.01789463253,-0.0521615578869,-0.0089959481868,-0.0266791498158,0.0584849224639,0.0999356424563,-0.0634137296462,-2.71558308601,1.44232988358,-1.16901063919,-0.814349591732,-1.38521838188,-0.150983095169
2017/07/09/10:07:50.914469,445558,1499566073,719197374,,0.720257791849,-0.156932858326,0.166992250302,0.873807776397,0.485390177204,-0.022951825613,0.0181537732517,-0.0445104847207,-0.0229887219375,-0.0175732646508,0.0409749798786,0.0616391139793,-0.0624867880373,-1.99396240711,1.39023065567,-0.964797437191,-0.737259805202,-1.14922320843,-0.163150027394
2017/07/09/10:07:50.924497,445559,1499566073,729188079,,0.720067429366,-0.157055151156,0.166736421751,0.873944445458,0.485167371953,-0.0227321182426,0.0178038828831,-0.0345979593039,-0.0231387838143,-0.00987147233548,0.0176879977261,0.0453818267967,-0.048226116329,-2.50942564011,1.93596279621,-0.97666990757,-0.950230658054,-1.34560978413,-0.13860283792
2017/07/09/10:07:50.934330,445560,1499566073,739196538,,0.71996695603,-0.156742212476,0.166435065339,0.873908244509,0.485238655459,-0.0228964416921,0.0174235583463,-0.0210020537734,-0.0241359184635,-0.00862646544706,0.0100200142077,0.0142509856281,-0.0477279404732,-3.17667579651,2.25270533562,-0.906128048897,-1.09796500206,-1.59274756908,-0.122874237597
2017/07/09/10:07:50.944413,445561,1499566073,749220762,,0.719462591139,-0.157622573623,0.166324179861,0.873962756322,0.485106025604,-0.0233779550185,0.017740228414,-0.0140916998603,-0.0143250756427,-0.00833746073377,0.021310416705,0.00790587101786,-0.0315958451388,-2.89763188362,1.76085031033,-0.61767244339,-0.803106069565,-1.53828072548,-0.105758666992
2017/07/09/10:07:50.954286,445562,1499566073,759196551,,0.719446467072,-0.157723169491,0.166163689558,0.874134996302,0.484800425857,-0.0233300325929,0.0176710188822,-0.0180520023173,-0.0199631744268,-0.0156104257736,-0.00836674731428,0.0274154172419,-0.0234041254964,-2.95193171501,1.89109611511,-0.847616434097,-0.847445487976,-1.59709310532,-0.0942585468292
2017/07/09/10:07:50.964454,445563,1499566073,769189710,,0.719446467072,-0.157723169491,0.166163689558,0.874227939549,0.484632803659,-0.0233266437886,0.0176754920351,-0.0189550469651,-0.00379582786488,-0.0302004766393,0.0236138702679,0.0483565426833,-0.0226237535704,-2.77936005592,1.6361631155,-0.827693521976,-0.705728828907,-1.5363317728,-0.111479997635
2017/07/09/10:07:50.974388,445564,1499566073,779197608,,0.720006644501,-0.157444160308,0.166376485929,0.873813182905,0.485394157737,-0.0228557745022,0.0179066073829,-0.00122590542831,0.00706772542025,-0.0173329953683,0.00508432491466,0.0227454856203,0.0122000350047,-2.22824907303,1.51684081554,-0.652443885803,-0.679737091064,-1.30872857571,-0.11176879704
2017/07/09/10:07:50.984474,445565,1499566073,789198067,,0.719396509817,-0.157432221051,0.165931646262,0.873985246176,0.485059435031,-0.0236848061017,0.0174975402131,0.000669254570135,-0.00171834000897,-0.0127547886337,-0.011637624836,0.0154194254007,0.0171393243115,-2.48263335228,1.40859901905,-0.784702301025,-0.658818006516,-1.39983952045,-0.102802440524
2017/07/09/10:07:50.994291,445566,1499566073,799185044,,0.71953620099,-0.157529554774,0.166123272432,0.873904256072,0.4852113665,-0.0234600610311,0.0176325430492,-0.0194799236475,-0.00720449910201,-0.0322105217024,0.012376539544,0.0540613077096,-0.0221501218089,-2.23599171638,1.29060935974,-0.551731407642,-0.509158730507,-1.39790964127,-0.0867601558566
2017/07/09/10:07:51.004373,445567,1499566073,809207003,,0.718995723889,-0.157735839798,0.164884583109,0.873922015386,0.485180696195,-0.0239073885033,0.016983516668,-0.0256441518556,-0.0181838105767,-0.0210629397729,-0.00817210395106,0.0565248432797,-0.0204389816302,-2.24910664558,1.22307693958,-1.30449938774,-0.555630266666,-1.34348297119,-0.11699680984
2017/07/09/10:07:51.014274,445568,1499566073,819184642,,0.719203147806,-0.15756598596,0.165292549555,0.874044896826,0.484956854304,-0.0238260301371,0.0171664813838,-0.0189327175549,-0.00727143248757,-0.0266040031211,0.0139763891369,0.0429514942869,-0.0100234666511,-2.24000835419,1.36220860481,-0.73315089941,-0.599823832512,-1.40709352493,-0.0923065021634
2017/07/09/10:07:51.024356,445569,1499566073,829191672,,0.71916326311,-0.158243767465,0.165112151556,0.874262668021,0.484559098944,-0.0237123681238,0.017463978162,-0.014072574612,-0.00613335836464,-0.0177612758248,0.0206563092061,0.0243339628562,-0.0247897602499,-1.76387643814,1.13508486748,-1.10515403748,-0.582259297371,-1.1842931509,-0.113395132124
2017/07/09/10:07:51.034306,445570,1499566073,839198332,,0.718645252261,-0.158025317084,0.165011266774,0.87418723948,0.48468214511,-0.0243132221655,0.0169928152302,-0.0113233097253,-0.0139443366295,-0.0141011662997,-0.00539005595325,0.020679995239,-0.0222463218699,-2.22923493385,1.39877164364,-0.631941854954,-0.595450162888,-1.34600436687,-0.089255169034
2017/07/09/10:07:51.044612,445571,1499566073,849190018,,0.718991076626,-0.157698413843,0.16434526729,0.874102402382,0.484860238897,-0.0239443657803,0.0167989950276,0.00590753246205,-0.00551452709206,-0.0122335626714,0.00019874511616,-0.012659008774,-0.00974903084522,-3.36403775215,2.29736685753,-0.953438282013,-0.964683234692,-1.77029561996,-0.0597741380334
2017/07/09/10:07:51.054456,445572,1499566073,859193377,,0.718483646075,-0.157991653046,0.163854747103,0.874133017528,0.484783959844,-0.0245384238548,0.0165482839226,-0.0076092478222,-0.000421656396226,-0.0269173031875,-0.00538602830958,0.039720034641,0.0174445816248,-3.66802072525,2.06516647339,-1.020809412,-0.93003565073,-1.85085439682,-0.0524282753468
2017/07/09/10:07:51.064412,445573,1499566073,869185355,,0.718397525415,-0.157716453714,0.163837415788,0.873993489907,0.485044755901,-0.0245154809514,0.0163081441759,-0.00499393411233,-0.00327595269995,-0.0213073318387,-0.0127514627573,0.0310723014104,0.00922646715739,-4.19699001312,2.52888631821,-0.866062164307,-1.08615422249,-1.99868273735,-0.0304509550333
2017/07/09/10:07:51.077432,445574,1499566073,879195245,,0.718403171023,-0.157837456921,0.163693798919,0.874158439765,0.484728744817,-0.0247795523166,0.0164632901337,-0.00188181294854,-7.93175273753e-05,-0.0216083050248,-0.00661440863483,0.02199126498,0.00910114053229,-3.94650411606,2.14609098434,-1.01817917824,-1.00754857063,-1.86075270176,-0.0335283577442
2017/07/09/10:07:51.084368,445575,1499566073,889196657,,0.718867003346,-0.157505152542,0.163583429209,0.87384970173,0.48529665152,-0.0245042539741,0.0165348222606,-0.00901546921661,0.00557265270526,-0.01515205868,0.0106493964453,0.0363680910919,-0.0071295045444,-3.50673484802,2.47577357292,-0.642505526543,-1.0518194437,-1.78026545048,-0.0540625825524
2017/07/09/10:07:51.094229,445576,1499566073,899194515,,0.718575148875,-0.157959753447,0.163180059396,0.874009324641,0.484980736826,-0.0250083088239,0.0166123399402,0.0149570635776,0.0339523778048,-0.0156669177749,0.0126009201935,0.0206408384742,0.0376753118504,-2.52327680588,1.23982000351,-1.19666111469,-0.631066322327,-1.34228503704,-0.0658290460706
2017/07/09/10:07:51.104383,445577,1499566073,909194455,,0.718866703825,-0.157316950667,0.163304819518,0.874037875821,0.484971446607,-0.0244148787081,0.0162604214011,0.000185149135955,-0.00108166279476,-0.0259212107223,-0.00311704006862,0.0202064657124,-0.00193725790895,-1.73291838169,0.895193338394,-0.798334419727,-0.353194236755,-1.06694197655,-0.113866060972
2017/07/09/10:07:51.114415,445578,1499566073,919191661,,0.718985361594,-0.157613078878,0.163083275503,0.873875441052,0.485240553987,-0.0246111122409,0.0166616760094,-0.0107451053634,-0.0122896321069,-0.039567911488,0.00172812173067,0.0305299044732,-0.00375515965901,-0.653408944607,0.216421574354,-0.732687234879,-0.226168811321,-0.588471055031,-0.154100656509
2017/07/09/10:07:51.124374,445579,1499566073,929189388,,0.718766666273,-0.157593535297,0.162652657942,0.873862942848,0.485269846943,-0.0247532735986,0.0162483295238,0.0126914615608,0.00551196247996,-0.0244278227508,0.0227364338481,-0.0136331316521,0.0185574023496,-1.96530008316,0.864495158195,-0.848621785641,-0.384253323078,-1.08605837822,-0.11846755445
2017/07/09/10:07:51.134238,445580,1499566073,939190614,,0.719320492307,-0.156957357367,0.162271641921,0.873738737313,0.485507081186,-0.0245413736788,0.0161621166377,0.0144647497403,0.00428271564415,-0.0194086694569,0.00871923044285,-0.0159395787241,0.0272949462315,-2.17760562897,1.70327150822,-1.0094575882,-0.654958546162,-1.16004538536,-0.116528593004
2017/07/09/10:07:51.144249,445581,1499566073,949190717,,0.719313103895,-0.157057332998,0.16185474769,0.873709629124,0.48557318883,-0.0243527826202,0.0160344705184,0.0156994464112,0.0268700456572,-0.0244139211547,0.0276709784717,0.00472429763546,0.0469043055466,-2.29366278648,1.4870698452,-1.00781691074,-0.620456933975,-1.16666829586,-0.105624854565
2017/07/09/10:07:51.154369,445582,1499566073,959192258,,0.718844676748,-0.157780406153,0.161974076139,0.873882575702,0.48525280624,-0.0245077871114,0.0160725322304,0.00493453584931,0.00847307723943,-0.0302753218741,0.030280134031,0.0041695222846,0.017177918223,-2.39922809601,0.770293653011,-0.901142835617,-0.409878492355,-1.1759916544,-0.127616360784
2017/07/09/10:07:51.164182,445583,1499566073,969186091,,0.719140907274,-0.156800398654,0.161515122472,0.873813886512,0.485384411005,-0.0246396673683,0.0156253666817,-0.00612918399476,-0.00372261337683,-0.0186566704195,0.0179558022471,0.0121330656459,-0.0155076847848,-2.35653614998,1.62046778202,-1.102637887,-0.668966174126,-1.1406712532,-0.134693652391
2017/07/09/10:07:51.174355,445584,1499566073,979190878,,0.719022870094,-0.157233040633,0.161507677234,0.873815096953,0.485394062323,-0.0243844594821,0.015658184261,0.00219863785058,-0.00758256918966,-0.0146565814228,0.0182674431645,-0.0141946772354,-0.0389068013751,-2.20615339279,1.12907040119,-1.20205712318,-0.462786227465,-1.01929366589,-0.113374598324
2017/07/09/10:07:51.184565,445585,1499566073,989193880,,0.718542625552,-0.157286553235,0.16106509567,0.873795291879,0.485400799915,-0.0251139608774,0.0153993604022,-0.0112241579725,0.00324691542579,-0.0332221730218,0.0328641445614,0.032463305051,-0.0165752530382,-3.29594302177,1.60744011402,-1.34289252758,-0.615858197212,-1.48325455189,-0.0543909072876
2017/07/09/10:07:51.194306,445586,1499566073,999191976,,0.719047320151,-0.157135676743,0.160945912867,0.873860420705,0.485307395435,-0.0245655805309,0.0155315586682,0.00121435538342,0.013053171775,-0.0344927870498,0.0152883757176,0.0298647761204,0.0320406961164,-3.40955352783,2.16438317299,-0.918410360813,-0.765922784805,-1.58050692081,-0.0652631744742
2017/07/09/10:07:51.204391,445587,1499566074,9191385,,0.718691938582,-0.156867388398,0.160321171967,0.87382027971,0.48538879377,-0.0248022673803,0.0148554765507,-0.0114023058644,0.012013522112,-0.0301875008671,0.0442310685224,0.0400952594946,0.00768081113256,-4.39435100555,2.69692802429,-0.971100330353,-1.04381322861,-1.97931551933,-0.0746301412582
2017/07/09/10:07:51.214154,445588,1499566074,19192047,,0.719538297002,-0.155965254046,0.160623064526,0.873534635044,0.485930888087,-0.0241693902917,0.0149751111887,0.00214121297836,0.0299716738173,-0.0252744065004,0.0371446233785,0.0357663587926,0.0475542680377,-3.30336070061,2.75280952454,-0.551941812038,-1.04303228855,-1.58379721642,-0.0913736000657
2017/07/09/10:07:51.224687,445589,1499566074,29193254,,0.718760490057,-0.156731646241,0.160312411266,0.873730986415,0.485560864448,-0.0246465226553,0.0147431073877,0.00885781494495,0.0183536048235,-0.00864127618747,0.0255289440534,-0.00203913682262,0.0232249477485,-3.64972805977,1.85962772369,-0.763656079769,-0.788998782635,-1.57658088207,-0.102113984525
2017/07/09/10:07:51.235094,445590,1499566074,39194748,,0.71867564927,-0.15679667886,0.159590242614,0.873798637226,0.48542457802,-0.024967599574,0.0146812671904,0.00503268295986,0.00538427138599,-0.0300996106722,0.0184333919617,0.00144424133129,-0.0153576307019,-2.06034374237,1.02482032776,-0.956652641296,-0.434781312943,-0.90333455801,-0.140042364597
2017/07/09/10:07:51.244104,445591,1499566074,49184428,,0.719438731038,-0.156449443348,0.159792477863,0.873666679255,0.485690978815,-0.0242183032951,0.0149759955702,0.00834606669321,-0.00520814256967,-0.0195871461089,0.000516647931704,-0.0126210978878,-0.00971777355607,-0.651880025864,0.741912126541,-0.556400775909,-0.267006516457,-0.427877873182,-0.176169663668
2017/07/09/10:07:51.254346,445592,1499566074,59195144,,0.718775078383,-0.157310675648,0.159785181547,0.873848658234,0.485298925156,-0.0252440579796,0.015369231666,0.00319723289436,-0.000719399561249,-0.0200997666134,0.0300411920525,-0.0116169599174,-0.00605452725904,-2.64201927185,1.08005583286,-0.302611410618,-0.472951978445,-1.12721681595,-0.102826140821
2017/07/09/10:07:51.264532,445593,1499566074,69192482,,0.719432914564,-0.156512101699,0.159399690888,0.87374276228,0.485560062526,-0.0242405198532,0.0147447699286,-0.00267505631993,0.00272158049705,-0.0222761036146,0.00955017504409,0.0214116853341,0.00275603051829,-2.45042490959,1.68601429462,-0.647991836071,-0.640243053436,-1.04842042923,-0.141368404031
2017/07/09/10:07:51.274296,445594,1499566074,79184462,,0.7194222327,-0.156540652608,0.159283307259,0.873663016562,0.485712443268,-0.0240983642512,0.0146841679048,0.00169093727739,0.0117914328813,-0.0267360163743,0.0269626871559,0.0174784291086,0.0238067347334,-3.47466754913,1.52017855644,-0.587644696236,-0.670226812363,-1.36098492146,-0.108901381493
2017/07/09/10:07:51.284509,445595,1499566074,89198087,,0.719899949531,-0.155787861165,0.159280833597,0.873383427727,0.486214957601,-0.0240914813881,0.0146970643781,0.0115143096484,0.00468035038897,-0.0199866754631,0.00129735013406,-0.00752895221522,0.0156787683317,-3.56848740578,2.42487096786,-0.263327181339,-0.828478753567,-1.4890062809,-0.117766097188
2017/07/09/10:07:51.294540,445596,1499566074,99188834,,0.719420870616,-0.156299092875,0.159013703004,0.873604164927,0.48580651485,-0.0243518711082,0.0146553582704,0.0076921314617,0.000208062641799,-0.0133516260346,0.000176482386862,-0.0116754170923,0.0099170354318,-3.82121658325,2.57954025269,-0.467801392078,-0.821962833405,-1.54732477665,-0.0864510014653
2017/07/09/10:07:51.304485,445597,1499566074,109185300,,0.71979943899,-0.155621025156,0.158463886846,0.873415838134,0.48615975612,-0.024231947713,0.0143623791876,-0.00259750179648,0.00181046555385,-0.0209846644122,0.0157891169327,0.0126092032057,-0.00915938900475,-2.70421695709,2.34163665771,-0.364039927721,-0.689209759235,-1.14879119396,-0.108072780073
2017/07/09/10:07:51.314305,445598,1499566074,119193114,,0.719417503628,-0.155729362188,0.15834335998,0.873383870704,0.486193345895,-0.0247605562904,0.0142674333481,0.0028264593279,0.00576426060677,-0.0130335065186,0.0078042139527,0.00310395216357,0.00336381093895,-2.63346862793,1.71482276917,-0.47127199173,-0.504513382912,-1.07859396935,-0.117430776358
2017/07/09/10:07:51.324305,445599,1499566074,129192560,,0.719338563206,-0.156794311027,0.158838838616,0.873728440105,0.485567738196,-0.02450284767,0.0149062078042,0.00808941204001,0.0156995282789,-0.0111189112512,0.0135607968295,0.00297389969298,0.00204702067431,-3.3220243454,1.35272037983,-0.400420516729,-0.486155629158,-1.27981245518,-0.0976832732558
2017/07/09/10:07:51.334382,445600,1499566074,139185080,,0.719607672242,-0.155601851037,0.158086459562,0.87348307667,0.486050551519,-0.0242452490453,0.013940733041,-0.00392646109856,-0.00794757085023,-0.00708054906977,-0.00250455993484,0.00912966999767,0.00667841847318,-2.61047554016,1.88274681568,-0.724982261658,-0.549722611904,-1.09980046749,-0.127690926194
2017/07/09/10:07:51.344679,445601,1499566074,149186771,,0.719260941364,-0.156212592692,0.158265900415,0.873732461788,0.485588913152,-0.0244241595473,0.0140873372884,-0.00103106665043,-0.00605285024877,-0.0110825007605,0.0109209988157,0.00178317384222,0.00802848016008,-2.31779956818,1.57378458977,-0.893219649792,-0.362481534481,-1.05828821659,-0.101906083524
2017/07/09/10:07:51.354262,445602,1499566074,159185366,,0.719530836881,-0.155955503284,0.158256788001,0.873490461218,0.486022717123,-0.0243416494411,0.0142764387482,-0.00200894542548,0.0102525971992,-0.00793730980771,0.021343101172,0.0144802128422,0.00792741577568,-3.19214749336,1.88493132591,-0.976437449455,-0.576890230179,-1.32919275761,-0.0836025550961
2017/07/09/10:07:51.364408,445603,1499566074,169187778,,0.719301283703,-0.156013831228,0.157865318678,0.873511670539,0.485976135811,-0.0246546912372,0.0140250866284,-0.00151584648925,8.84645241342e-05,-0.00567445765804,-0.00133102107231,0.00694300479918,-0.00158166821527,-3.83040595055,2.32421994209,-0.813901722431,-0.73741465807,-1.56924426556,-0.080604352057
2017/07/09/10:07:51.374252,445604,1499566074,179188415,,0.71962116256,-0.155892753172,0.158255956147,0.873454549639,0.486100441682,-0.0241611825982,0.0141332079636,0.0131719590443,-0.000805365085384,-0.0105055083123,0.00292341014455,-0.0243087152882,0.00646676326814,-3.72485637665,2.23260521889,-0.65186047554,-0.714938342571,-1.49915802479,-0.0703931599855
2017/07/09/10:07:51.384172,445605,1499566074,189186954,,0.719554837261,-0.156218130465,0.158542637037,0.873448544383,0.486087609544,-0.0244029492956,0.0145248830725,-0.00467925524602,-0.0025161357895,-0.00639958280278,0.00197039217535,0.0127327275146,0.00276655325622,-3.53248929977,2.30576181412,-0.676428616047,-0.668455481529,-1.51326203346,-0.0771829783916
2017/07/09/10:07:51.394208,445606,1499566074,199185347,,0.719394765402,-0.155758725301,0.158055435401,0.873430804387,0.486156990284,-0.0241007533073,0.0137537062263,-0.00860484859812,0.0111579547955,-0.0106464172758,0.0127561180786,0.0322912600114,0.00361489130783,-3.60981369019,2.24658536911,-0.569617569447,-0.707864105701,-1.48295295238,-0.0652546659112
2017/07/09/10:07:51.404251,445607,1499566074,209185434,,0.719424988118,-0.156211976677,0.157894977014,0.873605033885,0.485820220168,-0.0243808700756,0.0140901249309,0.00365345339338,0.00379493819331,0.00195176889798,0.00370430750735,-0.00533887540089,-0.00443054592369,-4.81638813019,2.35913133621,-0.579900681973,-0.795562982559,-1.9459733963,-0.0530743896961
2017/07/09/10:07:51.414307,445608,1499566074,219221438,,0.719230619953,-0.155959972426,0.157595889342,0.873509808018,0.485980710486,-0.0247300281815,0.0138488280411,0.0014300651093,-0.00272210235642,-0.00978934230216,0.0132113760679,-0.00917282848881,-0.0107570910743,-3.06730031967,2.09334516525,-0.935424625874,-0.618633151054,-1.29178345203,-0.100442133844
2017/07/09/10:07:51.424278,445609,1499566074,229193269,,0.719308332092,-0.155855692173,0.157779328926,0.873529719313,0.485962772048,-0.0244486842648,0.0137213519096,-0.0100483048709,-0.00607456165107,-0.0171228345463,-0.0122750781475,0.0328470467788,-0.00834346303881,-3.31253004074,2.29319930077,-0.64142537117,-0.728551030159,-1.35811281204,-0.0786329805851
2017/07/09/10:07:51.434139,445610,1499566074,239197344,,0.719443162483,-0.156112179571,0.158056669678,0.873618573473,0.485791547911,-0.0244215140831,0.0141686171148,-0.003010882025,0.000720164022451,-0.0113961879889,0.00839918941196,0.00982892685785,-0.00962452698881,-4.06113576889,2.17095756531,-0.514347732067,-0.713687777519,-1.59191119671,-0.0881801024079
2017/07/09/10:07:51.444162,445611,1499566074,249187761,,0.719169019357,-0.155626446646,0.156825997757,0.873165276869,0.486589418107,-0.0251324183304,0.0134721567138,0.0116011557835,0.00939311544716,0.00410657108793,0.0145036142966,-0.0257018768225,0.0084306973278,-3.37573838234,2.97131681442,-1.2989294529,-0.896622955799,-1.44273388386,-0.07168379426
2017/07/09/10:07:51.454360,445612,1499566074,259197555,,0.718998925972,-0.156087167066,0.157627880353,0.873457066486,0.486072358105,-0.0248573266142,0.0137305864835,0.001004952615,0.0128770151457,-0.0062064760478,0.0184221000501,0.013591715754,0.0281188873737,-3.75484251976,1.98164367676,-0.875642001629,-0.630084872246,-1.47833371162,-0.0846910849214
2017/07/09/10:07:51.464598,445613,1499566074,269192895,,0.719162250683,-0.156095818637,0.157604517914,0.873412632806,0.486144163264,-0.0248912168001,0.013951799361,-0.00644554719786,0.0145996685252,-0.00385349174361,0.0100855103517,0.0310761921744,0.0138424442498,-3.56185555458,1.93199813366,-0.366656243801,-0.643982350826,-1.38793361187,-0.079931139946
2017/07/09/10:07:51.474458,445614,1499566074,279184190,,0.719581764754,-0.156508183153,0.157733148948,0.873622613572,0.485781159517,-0.0243053818863,0.0144721292795,-0.00425645635386,0.000598242917649,-0.00488833530556,0.00986798265534,0.00874430232446,-0.000870568216414,-3.71924304962,1.87948596478,-0.387871235609,-0.708437502384,-1.52916991711,-0.0766058862209
2017/07/09/10:07:51.484221,445615,1499566074,289184943,,0.71914404367,-0.155597644373,0.157449128791,0.873639787927,0.485769173537,-0.0245973480881,0.0132966709801,-0.0055394267883,-0.012076764441,0.00337086554544,-0.0104865782222,0.00345920041299,-0.0197666189212,-3.6127140522,2.56950902939,-0.678193986416,-0.806487321854,-1.4912378788,-0.0699098706245
2017/07/09/10:07:51.494653,445616,1499566074,299193405,,0.719670309653,-0.155605406431,0.157468813565,0.873489077203,0.486051930815,-0.0241331244894,0.0137092983534,-0.00412939688583,-0.0132657772137,0.00413703470951,-0.019244412484,-0.000773740439323,-0.0212847225414,-3.12501716614,2.27387523651,-0.598703384399,-0.683457970619,-1.36344945431,-0.0656131953001
2017/07/09/10:07:51.504156,445617,1499566074,309187969,,0.719477997933,-0.155715426112,0.158017492591,0.873493276734,0.486029186074,-0.0243564013575,0.0138524906614,-0.00171075047797,-0.00558892548509,0.00164622093108,-0.0016682632007,-0.00590446086269,-0.0101275784755,-3.99957036972,2.62886381149,-0.359691917896,-0.806097745895,-1.68452763557,-0.0450491607189
2017/07/09/10:07:51.514351,445618,1499566074,319201192,,0.719491433241,-0.155236222432,0.157623480412,0.873324373063,0.486352584997,-0.0242360134055,0.0133535813829,0.0062980951308,0.00321538211107,-0.00304456899142,0.0158367700133,-0.0179639072546,-0.00703993916495,-3.34781503677,2.58183550835,-0.272110819817,-0.756569981575,-1.41546368599,-0.0528034567833
2017/07/09/10:07:51.524413,445619,1499566074,329210238,,0.719749470875,-0.156039350182,0.157570363524,0.873424991242,0.486139990623,-0.0243681023254,0.0142439383718,0.000949267928515,-0.00583452903492,-0.004047417782,-0.00541960461583,-0.000985279834491,0.00362457698182,-3.64587759972,2.43336653709,-0.364488571882,-0.780012607574,-1.53211379051,-0.0769639760256
2017/07/09/10:07:51.534234,445620,1499566074,339184880,,0.719199973649,-0.155879434333,0.15749578475,0.873668083603,0.485695100959,-0.0248188079153,0.0137249907813,-0.00300635023182,-0.0192562777258,0.0025117959916,-0.0384484678915,0.00408322044425,-0.0245273675201,-3.37314581871,2.80452823639,-0.471790939569,-0.903487145901,-1.39370989799,-0.0783577039838
2017/07/09/10:07:51.544361,445621,1499566074,349186948,,0.720059429807,-0.155147888464,0.15738918743,0.873314555965,0.486374138404,-0.0239735635356,0.013680353913,0.003907711283,-0.00488631335099,0.00433511141419,-0.0188162722693,-0.00765155181606,-0.00248692906498,-3.9524064064,3.14809131622,-0.673661351204,-1.02350962162,-1.64247941971,-0.0582157373428
2017/07/09/10:07:51.554294,445622,1499566074,359197745,,0.719632443918,-0.155855312981,0.158024499203,0.873544470152,0.485940131125,-0.0242240261939,0.0139801353584,0.00402918391058,0.0173159932293,-0.00750419441925,0.0211687163371,0.00732921413473,0.0218601047433,-5.09359169006,3.11170935631,-0.304174423218,-1.08501505852,-1.98853635788,-0.0272582322359
2017/07/09/10:07:51.564381,445623,1499566074,369193899,,0.719588461985,-0.156081672132,0.157748837456,0.873490402075,0.486008320528,-0.0246502458194,0.0142406194203,-0.00202090288212,-0.00144185347486,-0.00149364240205,0.013126911211,-0.00206082778157,-0.0081635930936,-4.57389307022,2.90773248672,-0.651960849762,-1.08058571815,-1.79001736641,-0.0311463102698
2017/07/09/10:07:51.574337,445624,1499566074,379194541,,0.719796544962,-0.15520432397,0.157668396489,0.873503375802,0.486021047557,-0.0242670078445,0.0136567244749,0.000418402799807,-0.00513377139173,-0.00410196275556,-0.0136215284906,0.00308288612351,0.00519503248306,-4.29692554474,3.01077389717,-0.468163609505,-1.02238214016,-1.71762049198,-0.0326460599899
2017/07/09/10:07:51.584419,445625,1499566074,389214394,,0.719013423452,-0.156188603874,0.15679530927,0.873555359336,0.485905328392,-0.0248284312141,0.0134385646239,-8.77073992753e-05,0.0147084971037,-0.00884755003672,0.0126802696451,0.0184497420789,0.0197861084545,-5.24884557724,3.04468560219,-0.787936210632,-1.13718807697,-2.04957294464,-0.000959903001785
2017/07/09/10:07:51.594345,445626,1499566074,399192667,,0.719014198891,-0.156308959406,0.157373928669,0.873595702306,0.485816271945,-0.0249562084036,0.0137944368417,-0.00354612901605,-0.0136385357261,-0.00564185748844,-0.0160791666198,-0.000789613207928,-0.0027052764527,-4.19071722031,2.547113657,-0.110337637365,-0.958684682846,-1.60649120808,-0.0544140785933
2017/07/09/10:07:51.604323,445627,1499566074,409184919,,0.719352618216,-0.155777342729,0.157233411118,0.873473657597,0.486035644965,-0.0249454183329,0.0138147534272,-0.00617674476492,-0.0016928900809,-0.000423976051423,-0.0120775375815,0.0190215385481,-0.00604103969725,-4.29545545578,3.06615400314,-0.779661297798,-1.09463715553,-1.71154785156,-0.0489569827914
2017/07/09/10:07:51.614400,445628,1499566074,419190793,,0.719434536891,-0.156071231822,0.157517054886,0.873426321647,0.486140580704,-0.0244697570974,0.0139652223548,0.00308312128031,0.0162795215894,-0.00173440423921,0.00965621535268,0.0142862290218,0.00965551925394,-3.94718813896,1.95182859898,-0.749404072762,-0.783938705921,-1.51752054691,-0.0686298981309
2017/07/09/10:07:51.624301,445629,1499566074,429213725,,0.719623036237,-0.155683152506,0.157446593942,0.873250191239,0.48645379862,-0.0245762567648,0.0138857089426,0.00561420083076,-0.0108738121741,0.0156844822682,-0.0327226118261,-0.0185621793877,0.02071590725,-4.68033409119,2.92489743233,-0.497706472874,-1.07453453541,-1.78418314457,-0.0562233328819
2017/07/09/10:07:51.634423,445630,1499566074,439188674,,0.719644343035,-0.156502218323,0.157918977014,0.873588464314,0.485817875987,-0.024636001777,0.0147395320986,0.0159767041757,-0.00324124003479,0.00193562694011,-0.0262160881417,-0.0250055212707,0.0411480301581,-4.0692448616,2.1331410408,-0.250143736601,-0.884278595448,-1.55047488213,-0.0741866007447
2017/07/09/10:07:51.644509,445631,1499566074,449189769,,0.719921570767,-0.155947986752,0.157700814143,0.873201133209,0.486521985225,-0.0245856046382,0.0145494638689,0.0180828886282,-0.00906429916809,0.0142953808362,-0.0484423187345,-0.0377731981021,-0.00582611842257,-4.41690015793,2.80304956436,-0.495320260525,-0.969125032425,-1.73680257797,-0.0559696108103
2017/07/09/10:07:51.654402,445632,1499566074,459191345,,0.719909739793,-0.155865353787,0.157353456421,0.873257399825,0.486436592245,-0.0243898256997,0.0143558969636,0.0180313936133,-0.010345954891,0.00333479569349,-0.0337971508006,-0.0409471374695,0.00913534636841,-3.92585515976,2.29510450363,-1.04447031021,-0.84416526556,-1.50722670555,-0.0658605769277
