time,.header.seq,.header.stamp.secs,.header.stamp.nsecs,.header.frame_id,.pose.position.x,.pose.position.y,.pose.position.z,.pose.orientation.x,.pose.orientation.y,.pose.orientation.z,.pose.orientation.w,.twist.linear.x,.twist.linear.y,.twist.linear.z,.twist.angular.x,.twist.angular.y,.twist.angular.z,.wrench.force.x,.wrench.force.y,.wrench.force.z,.wrench.torque.x,.wrench.torque.y,.wrench.torque.z
2017/07/09/10:05:46.764686,433143,1499565949,568905028,,0.781601327126,0.398715063658,0.166776765662,0.623032436973,0.779613734599,0.0556750112883,0.0305499659859,0.00577512544165,-0.0172671492106,0.00394193935601,-0.00772811500168,-0.0171774624178,-0.0135462438662,5.99198961258,1.61022615433,-0.671488106251,-0.757872164249,2.2240421772,-0.177016198635
2017/07/09/10:05:46.774622,433144,1499565949,578908213,,0.781394387907,0.398022224057,0.166134449369,0.623286020156,0.779455120655,0.0551923835525,0.0302993854928,0.00764606690132,-0.0183458867514,0.0133693402262,-0.00971649478216,-0.0187486373845,-0.0168531115053,6.16124248505,1.64609658718,-0.65425235033,-0.78435832262,2.29821562767,-0.139363735914
2017/07/09/10:05:46.784723,433145,1499565949,588901687,,0.781676233656,0.39730526459,0.166513869869,0.623108263368,0.779584759215,0.0551642644915,0.030669190476,0.0120185039375,-0.0338745240159,0.00869656473709,-0.0109001222831,-0.0170189716662,-0.0490246391786,6.52172088623,1.75392770767,-0.672576725483,-0.81479716301,2.44560790062,-0.152005732059
2017/07/09/10:05:46.794538,433146,1499565949,598902490,,0.781879847204,0.397141394998,0.166272155629,0.623766375066,0.779042729398,0.0554867279395,0.0304820952827,0.00665951015472,-0.0450705324232,-0.00600366105108,-0.00469783077071,0.0167381039975,-0.0742351624649,6.32718229294,1.69010567665,-0.649467408657,-0.715713202953,2.40479516983,-0.104884780943
2017/07/09/10:05:46.804535,433147,1499565949,608898685,,0.781605324605,0.396805562666,0.166101387297,0.623900258354,0.77896595746,0.0551723902353,0.0302739508549,0.00835367106215,-0.0296582147731,-0.00777068109829,-0.00144451563303,-0.000783878162919,-0.0525526256281,6.14840602875,1.78272652626,-0.535406112671,-0.790876686573,2.35254764557,-0.159985929728
2017/07/09/10:05:46.814643,433148,1499565949,618898795,,0.781798440597,0.396575651207,0.166120875168,0.624042833162,0.778836265822,0.0553264096106,0.0303908180115,0.0101421891354,-0.0436780110759,-0.00858080325666,-0.00898196952058,-0.00328580734116,-0.0466622155949,5.71463775635,1.79050517082,-0.644264698029,-0.835284471512,2.20169425011,-0.164586514235
2017/07/09/10:05:46.824562,433149,1499565949,628902391,,0.782364378446,0.396171959994,0.166710232651,0.62420827529,0.778656709845,0.0557171212847,0.0308765229281,0.0163599951305,-0.0343675815336,0.00436869165212,0.00667302742818,-0.017939629404,-0.0522245659116,5.05320835114,1.87551248074,-0.595387578011,-0.836302161217,1.96048331261,-0.175193727016
2017/07/09/10:05:46.834633,433150,1499565949,638901476,,0.782328129704,0.395280785231,0.166108712421,0.624786510459,0.778231098233,0.0553120915698,0.0306389721979,0.0319216385493,-0.0555475366881,0.02219201365,-0.00584381923406,-0.0457448807905,-0.0772555697647,4.51962804794,1.85537958145,-0.706390380859,-0.795577466488,1.74630784988,-0.183689236641
2017/07/09/10:05:46.844333,433151,1499565949,648895917,,0.781946239723,0.394905616207,0.165915771273,0.624686146594,0.778359780525,0.0546428945306,0.0306173870935,0.0151887825178,-0.0599808040599,-0.0145637320254,-0.0246701865248,-0.00170993950619,-0.074591276368,4.60721445084,2.01596832275,-0.654325127602,-0.870931625366,1.82643151283,-0.164790660143
2017/07/09/10:05:46.854244,433152,1499565949,658894115,,0.782621429138,0.394647209941,0.166663003562,0.625160390481,0.777913658396,0.0554788975281,0.0307720357353,0.00835870472412,-0.0622890803946,-0.0162724906185,-0.0313428649473,0.0116103245963,-0.0704426293842,3.78819322586,2.02433824539,-0.581054866314,-0.877238512039,1.54918467999,-0.20048636198
2017/07/09/10:05:46.864499,433153,1499565949,668894219,,0.783005941977,0.394403186687,0.166339423837,0.625225657819,0.777829199029,0.0557500170609,0.0310893798562,0.0280365120977,-0.0480858165243,0.0112669692792,0.00486133387012,-0.0449492636558,-0.0755735065147,3.90253734589,2.01430726051,-0.425400882959,-0.899864971638,1.63001453876,-0.193041115999
2017/07/09/10:05:46.874368,433154,1499565949,678898841,,0.783233896071,0.392726911886,0.166379125386,0.625856807576,0.777347024722,0.0551760256482,0.0314716659832,0.0214425323631,-0.0510531026798,-0.0114462652729,-0.00343895772345,-0.0218767946118,-0.0744536698986,3.71791434288,2.17692041397,-0.375945836306,-0.885299682617,1.60273933411,-0.198335856199
2017/07/09/10:05:46.884404,433155,1499565949,688895422,,0.783132904584,0.39235451901,0.166201927764,0.625868242473,0.777338959608,0.0550513518163,0.0316612318428,0.0241707554053,-0.0802215779077,-0.0114814343435,-0.032951364149,-0.0225732916732,-0.0835190593079,3.21780276299,1.99013948441,-0.337273895741,-0.746970295906,1.4456281662,-0.161944806576
2017/07/09/10:05:46.894479,433156,1499565949,698909778,,0.783426900183,0.391115779344,0.16552693682,0.626574582638,0.776792403647,0.054737027256,0.0316498321537,0.0187485454101,-0.0825965457941,-0.00598205662297,-0.0362550853533,-0.0110263327155,-0.0874580007921,3.23874187469,1.77013802528,-0.163684949279,-0.685352683067,1.49689304829,-0.168193906546
2017/07/09/10:05:46.904313,433157,1499565949,708907233,,0.783498698368,0.390797029596,0.165605044038,0.626633064232,0.776737754701,0.0549004113329,0.0315500882503,0.0267269548888,-0.0967925270316,-0.00625979274191,-0.0231472262453,-0.0199371543313,-0.132705953897,3.02666163445,2.01213264465,-0.103415183723,-0.726771354675,1.45057165623,-0.178402259946
2017/07/09/10:05:46.914258,433158,1499565949,718895155,,0.783557540718,0.389472792852,0.165041885537,0.627490280913,0.776080856761,0.054482090183,0.0314030727511,0.0165040261012,-0.0892197526114,-0.0149762381125,-0.0148421275811,0.003223504191,-0.113130565396,2.56784296036,1.92581629753,0.0577521622181,-0.796287834644,1.2903470993,-0.204677343369
2017/07/09/10:05:46.924565,433159,1499565949,728900531,,0.78411028444,0.388720840626,0.165422822837,0.627910977058,0.775699257767,0.0547952999211,0.0318738371835,0.0269567162285,-0.0759105303459,-0.000865293934812,0.0200644786465,-0.0178772288202,-0.127403669898,1.45720756054,1.55654788017,0.125406712294,-0.678327977657,0.83228635788,-0.20027153194
2017/07/09/10:05:46.934649,433160,1499565949,738902499,,0.784209597509,0.387804408209,0.165254590806,0.628344728712,0.775350127293,0.0547900767812,0.0318296951439,0.0275031264119,-0.100260182072,-0.00777477774892,-0.00111513974779,-0.0231038887944,-0.126722277903,-0.0678352192044,1.46245121956,0.446317434311,-0.641596674919,0.220775395632,-0.202847346663
2017/07/09/10:05:46.944623,433161,1499565949,748900988,,0.785166374255,0.387243238262,0.166052023244,0.628573284072,0.775078482713,0.0554245312032,0.0328191030805,0.0391521997153,-0.0830759787077,0.0097004649148,0.016131197827,-0.060610164191,-0.119632010817,-0.386158019304,1.30282521248,0.807155430317,-0.609304964542,0.128898188472,-0.232686877251
2017/07/09/10:05:46.954494,433162,1499565949,758899943,,0.785340407206,0.386329763249,0.165734180407,0.629218087895,0.774548509083,0.0556488874902,0.0325945741548,0.0445087738559,-0.0928108479649,0.00123981518107,0.00489484054675,-0.0730019361032,-0.133253766323,0.248505562544,1.49547183514,1.10925722122,-0.738136291504,0.424246579409,-0.243349730968
2017/07/09/10:05:46.964423,433163,1499565949,768895185,,0.786196174328,0.385820690216,0.16596844431,0.629702257404,0.774074117802,0.0565156806739,0.033019766928,0.0640285609332,-0.0980283133939,0.0061174795211,0.0172717219824,-0.115719173816,-0.150223193561,0.292291283607,1.25483012199,1.41966831684,-0.62268358469,0.529191732407,-0.19615226984
2017/07/09/10:05:46.974494,433164,1499565949,778915974,,0.786599940988,0.38367646685,0.16600981067,0.63093787764,0.773059398547,0.056418818919,0.0333688140315,0.059018081324,-0.108895067404,0.00651279868464,0.0120616386634,-0.105176249827,-0.162958577996,-0.185413628817,0.114994838834,1.35381829739,-0.0116250067949,0.348650217056,-0.0649113059044
2017/07/09/10:05:46.984371,433165,1499565949,788898744,,0.787073526929,0.382406712696,0.165918709861,0.631635019088,0.772456735647,0.0567156500349,0.0336322651113,0.043889279259,-0.12859925596,-8.4613856499e-06,0.0159003993003,-0.0589186539322,-0.192365303689,-0.763989925385,-1.15836668015,1.03507041931,0.672326207161,0.0827228948474,0.0816704630852
2017/07/09/10:05:46.994362,433166,1499565949,798901693,,0.788044865549,0.381018361129,0.166381130884,0.632167938479,0.771940996452,0.0573088610043,0.0344454642315,0.0746187417569,-0.160909065262,0.0167707951661,0.0233337248529,-0.120960603701,-0.252024483809,-0.66656678915,-1.15347659588,0.863136768341,0.550659000874,0.0516895391047,0.00878322124481
2017/07/09/10:05:47.004313,433167,1499565949,808897456,,0.78898104414,0.379153195445,0.166088637076,0.633142441983,0.771093937647,0.0576366044092,0.0349686905191,0.0724357640714,-0.154836551907,-0.00144246177481,0.0347028802173,-0.106217697066,-0.23882969616,-0.513174295425,-0.770103573799,0.800864994526,0.319871395826,0.0669494569302,-0.039290830493
2017/07/09/10:05:47.014453,433168,1499565949,818902631,,0.789411091096,0.378132995913,0.166036390847,0.633866357636,0.770460932584,0.0580322919444,0.0351517440602,0.0748525996942,-0.131019073856,0.00253794568735,0.0495602769395,-0.122679357585,-0.223793487405,0.128381967545,0.229676991701,0.764987647533,-0.191125765443,0.276227116585,-0.146961450577
2017/07/09/10:05:47.024718,433169,1499565949,828917941,,0.790221255005,0.377645995356,0.166676259553,0.634297873684,0.770017406598,0.0590192418256,0.0354419253037,0.0823509832302,-0.138220554005,0.0157890022816,0.0535023251374,-0.142697917731,-0.22402845655,0.0903277099133,0.797046303749,0.729010045528,-0.507309436798,0.244334340096,-0.241658613086
2017/07/09/10:05:47.034400,433170,1499565949,838893677,,0.790870436718,0.376129555161,0.166608510873,0.635130968081,0.769278168929,0.0594643626523,0.0358293422764,0.0925409594605,-0.153145286145,0.0229209627404,0.0355779106092,-0.169491619707,-0.22916314658,-0.0927920043468,0.937785863876,0.657476902008,-0.574414491653,0.14117872715,-0.240536779165
2017/07/09/10:05:47.044419,433171,1499565949,848902260,,0.791872363945,0.373876622399,0.166395002465,0.636371571185,0.768188959487,0.0599090401076,0.0364397149194,0.0852762668415,-0.161065059529,0.0146260493594,0.0188171280741,-0.156404920907,-0.235368100235,-0.00102802366018,0.908373773098,0.556882560253,-0.518972218037,0.163414224982,-0.244028583169
2017/07/09/10:05:47.054592,433172,1499565949,858919540,,0.792518182488,0.373274327487,0.166744383021,0.636906542849,0.76767352127,0.0604764360845,0.0370137960254,0.0780132825205,-0.153585281114,0.00617715081961,0.0345908066248,-0.143941276038,-0.231552452481,-0.00761609524488,0.381790578365,0.59977388382,-0.165023773909,0.197894185781,-0.117396652699
2017/07/09/10:05:47.064494,433173,1499565949,868895163,,0.793065945149,0.370623541649,0.166675493909,0.638240440943,0.766537676546,0.0605195639881,0.0375034979021,0.0888035497201,-0.161148489566,0.0153978494296,0.0320610066844,-0.168314086995,-0.248359529782,-0.0964362695813,0.240710809827,0.478569447994,-0.0766450017691,0.118562497199,-0.118407934904
2017/07/09/10:05:47.074611,433174,1499565949,878894840,,0.793864951997,0.369339389652,0.166842226973,0.638559653619,0.766191909921,0.0612689421919,0.0379162585679,0.0788824403206,-0.188642839164,0.0105928529824,0.0217290456155,-0.135216833026,-0.273567954605,0.741617202759,0.433316916227,0.347653061152,-0.199129670858,0.405637294054,-0.127738699317
2017/07/09/10:05:47.084520,433175,1499565949,888892117,,0.794952533396,0.367393872173,0.167187533377,0.640059933695,0.764852292398,0.0620078927997,0.0384613224134,0.0675434336151,-0.183652498979,0.0101131762543,0.0389838658857,-0.114539866487,-0.268223686652,0.939560472965,0.502133607864,0.4376719594,-0.169381469488,0.524008154869,-0.101113326848
2017/07/09/10:05:47.094628,433176,1499565949,898901638,,0.795567538709,0.365390496779,0.167352719622,0.641073806946,0.763947525297,0.0624799375672,0.0387918811287,0.0635295919354,-0.178511913138,0.0146476098008,0.0395494112556,-0.100670922033,-0.256746265605,1.37695336342,0.547364890575,0.303422868252,-0.170944273472,0.627782642841,-0.0845023989677
2017/07/09/10:05:47.104651,433177,1499565949,908901397,,0.795735779829,0.363151481529,0.167200747258,0.642131572307,0.76307790197,0.062084022746,0.0390478359296,0.0591472123233,-0.1886353748,0.0115281377117,0.0248679145359,-0.0877940861097,-0.253735308713,1.73204863071,0.800687611103,0.122626759112,-0.386003851891,0.727184057236,-0.129736453295
2017/07/09/10:05:47.114561,433178,1499565949,918902327,,0.796964689479,0.361329632318,0.167645892126,0.643189329931,0.762071673416,0.0630410144467,0.0397502319043,0.0666184333686,-0.19322963168,0.0239609712749,0.035931073124,-0.111360848961,-0.29224406764,1.45216143131,0.749601244926,0.252603620291,-0.315205484629,0.662219643593,-0.115253418684
2017/07/09/10:05:47.124422,433179,1499565949,928902763,,0.797417886543,0.359425450932,0.167788268834,0.644306837358,0.761090291163,0.0632718804528,0.0400866208959,0.0753760591013,-0.207561736722,0.0259262991409,0.00731829478412,-0.125869169944,-0.305636151066,1.53879439831,0.58781850338,0.0680760890245,-0.237829655409,0.732205986977,-0.0839357227087
2017/07/09/10:05:47.134655,433180,1499565949,938901726,,0.798098287608,0.357620459962,0.168318464383,0.64522489022,0.760261067362,0.0636271712447,0.0404911542778,0.0646070483618,-0.221033239925,0.0240109995882,-0.00224826782306,-0.096301714396,-0.288310045316,1.05371797085,0.466613203287,-0.025936447084,-0.13901822269,0.60027718544,-0.0667603090405
2017/07/09/10:05:47.144590,433181,1499565949,948910098,,0.798558823262,0.354900808735,0.168176399488,0.64661490064,0.759063456964,0.0636313734383,0.040778510096,0.0613617986882,-0.22816956788,0.0151814171975,0.00740226757923,-0.0741644774184,-0.325350678302,0.841563344002,0.372046351433,-0.174206733704,-0.10031324625,0.533485531807,-0.063886962831
2017/07/09/10:05:47.154257,433182,1499565949,958894145,,0.798805480539,0.353543866582,0.168489691003,0.647473991192,0.758326285093,0.063766322244,0.0406513494851,0.0444980060034,-0.221316969907,0.00861090474571,0.00583606633471,-0.0387221102301,-0.295857754594,0.344714790583,0.210126489401,-0.464410245419,-0.049257427454,0.333784043789,-0.073179602623
2017/07/09/10:05:47.164533,433183,1499565949,968906142,,0.799098446361,0.351560027229,0.168531982519,0.64828216086,0.757632506292,0.0636002849962,0.0409661942225,0.0431082698098,-0.234247640749,0.0140117229874,-0.000733245951425,-0.0281862140611,-0.329092593521,0.278776794672,0.280914366245,-0.458233594894,-0.0756650045514,0.334033161402,-0.0974112302065
2017/07/09/10:05:47.174463,433184,1499565949,978912818,,0.799973202819,0.348323123807,0.169103613079,0.650002068456,0.756102540043,0.0638162290955,0.041638309858,0.0381113826533,-0.233216024571,0.0154660352561,0.000835629663597,-0.0226940032805,-0.321893379107,0.663111329079,0.396353602409,-0.573686718941,-0.0841411575675,0.47898119688,-0.0487214028835
2017/07/09/10:05:47.184642,433185,1499565949,988900375,,0.800119220068,0.346882011627,0.169149867057,0.650557747645,0.755618188118,0.0640464948089,0.0413982761348,0.0429657816707,-0.236230338745,0.017816191473,0.0170646118985,-0.0358322647169,-0.334098331746,0.996906042099,0.312871396542,-0.5179464221,-0.0408194512129,0.577406167984,-0.034282207489
2017/07/09/10:05:47.194735,433186,1499565949,998907090,,0.800138090847,0.344377527551,0.16871314486,0.651681368244,0.754689614094,0.0636317401493,0.0413035386858,0.0410539935001,-0.233077163012,0.023041609241,0.0146263239648,-0.032689312769,-0.306124893562,1.35626995564,0.569736361504,-0.275122433901,-0.123816817999,0.683301329613,-0.0503413230181
2017/07/09/10:05:47.204354,433187,1499565950,8893438,,0.800415609621,0.341097636136,0.168795189809,0.653233636032,0.753370613801,0.063187853351,0.0415431126309,0.0369996465096,-0.264967718389,0.0174888980381,-0.00100614183993,-0.0050694961707,-0.364175477394,1.32837998867,0.455624401569,-0.351074814796,-0.13186223805,0.608127355576,-0.0897572934628
2017/07/09/10:05:47.214470,433188,1499565950,18899731,,0.80118441666,0.338153609529,0.168871898643,0.655002734518,0.751817037755,0.0631445728819,0.0418965682456,0.0529946804788,-0.263901798551,0.0176863733349,0.00728150630989,-0.0403576334485,-0.382279333388,1.29052627087,0.413951098919,-0.254728645086,-0.0982156097889,0.571382462978,-0.0682850331068
2017/07/09/10:05:47.224571,433189,1499565950,28910751,,0.801565383321,0.336304575987,0.169192359811,0.656010102203,0.75089386589,0.063735685502,0.0417960568673,0.0492586556015,-0.27421757379,0.0274657119753,-0.00215335141329,-0.0360506558416,-0.383353620399,0.882578015327,0.336454480886,-0.190680131316,-0.0411739014089,0.403773069382,-0.0529747083783
2017/07/09/10:05:47.234534,433190,1499565950,38907379,,0.802756639828,0.333628821927,0.169890118689,0.657641122641,0.749365896051,0.0643946750547,0.0425703355836,0.0516995472067,-0.260468568793,0.00943250148568,0.0331355788867,-0.0269992469081,-0.384496403699,0.659952819347,0.246739715338,-0.124417215586,-0.0226696431637,0.337728649378,-0.0810454487801
2017/07/09/10:05:47.244653,433191,1499565950,48897227,,0.803034114955,0.330914743628,0.169878093384,0.658928597458,0.748257803314,0.0640026695326,0.0427436723176,0.0715626941144,-0.295053714137,0.0264114323525,0.0199838897249,-0.0757005088484,-0.421757560998,0.732120275497,0.184463143349,-0.0249458551407,-0.0247483402491,0.375906437635,-0.0571161434054
2017/07/09/10:05:47.254445,433192,1499565950,58897751,,0.803585278722,0.328192212477,0.170331122449,0.660206685918,0.747088778469,0.0641611625701,0.043230014727,0.0755294915772,-0.280720192602,0.0310329814274,0.0171820953049,-0.0986518522509,-0.401359070592,0.334283769131,0.186905890703,0.227253556252,-0.025321573019,0.291281849146,-0.0669939145446
2017/07/09/10:05:47.264452,433193,1499565950,68902276,,0.804366343964,0.325981318938,0.170150294213,0.661835287996,0.745596543679,0.0648302095803,0.0430916412096,0.0674512972652,-0.284965058203,0.025191631982,0.00281320987914,-0.079938293052,-0.388640053054,-0.0928919166327,-0.468894481659,0.354379504919,0.0247232317924,0.107086978853,-0.0839533656836
2017/07/09/10:05:47.274645,433194,1499565950,78905012,,0.805605265454,0.322850112161,0.170946329228,0.663407837385,0.744100800154,0.06525781983,0.044107340174,0.0760712330992,-0.301581412097,0.0315616090875,0.00803842761415,-0.0956782268575,-0.415404100317,-0.543520987034,-0.427791118622,0.589609801769,0.0423565357924,-0.107464633882,-0.0934273600578
2017/07/09/10:05:47.284568,433195,1499565950,88899891,,0.805938827287,0.319536613273,0.171188421835,0.665047214993,0.742639933376,0.0651495085233,0.0442003701861,0.0898356004355,-0.285488364707,0.0482443940869,0.0144575045884,-0.128819057905,-0.406489114197,-0.502102017403,0.0760746747255,0.591929614544,-0.248452216387,-0.0333643183112,-0.179230615497
2017/07/09/10:05:47.294596,433196,1499565950,98930899,,0.806612713347,0.317946742685,0.171609918047,0.665940097516,0.741770673291,0.0656268469486,0.0446449518408,0.0755752081976,-0.315756277122,0.0472168297152,0.0194802308152,-0.0892091263766,-0.462023135993,-1.13558840752,0.392414689064,0.724431395531,-0.414210826159,-0.309067606926,-0.246946245432
2017/07/09/10:05:47.304596,433197,1499565950,108909147,,0.807582223882,0.314289944822,0.172140395076,0.6678619246,0.739971870454,0.0660200420272,0.0452043654577,0.0735859487339,-0.296956063505,0.042421757387,0.0294970606456,-0.0875215843387,-0.435974315056,-1.39986002445,0.445587486029,0.716186106205,-0.45719742775,-0.434402942657,-0.262278825045
2017/07/09/10:05:47.314590,433198,1499565950,118908576,,0.808438336654,0.3105773848,0.173161871034,0.66950889629,0.738419348875,0.0662459086998,0.0458931648109,0.0769073115859,-0.306447782227,0.0399637771859,0.0104168144397,-0.0981064123156,-0.432283502383,-0.948419570923,0.228897333145,0.839298963547,-0.495853692293,-0.268492728472,-0.285492271185
2017/07/09/10:05:47.324659,433199,1499565950,128907759,,0.809172588786,0.307133572078,0.172957207657,0.671149037341,0.736894076732,0.0662389290802,0.0464595913563,0.0953552940122,-0.310293039084,0.0624463036247,0.020709517394,-0.14919640796,-0.424181841854,-1.40455329418,-0.0459615886211,0.855254411697,-0.346025586128,-0.414738297462,-0.240271270275
2017/07/09/10:05:47.334468,433200,1499565950,138906732,,0.810617801434,0.304645070703,0.174139652454,0.672713830164,0.735289579717,0.0675737232183,0.0473194314978,0.0955477876932,-0.312206807551,0.0657583056569,0.0130606010383,-0.156189040783,-0.440894362824,-1.44405281544,0.190429240465,1.05976986885,-0.362866640091,-0.438148200512,-0.220472455025
2017/07/09/10:05:47.344898,433201,1499565950,148895575,,0.811341014984,0.301465670965,0.174568011127,0.674186835295,0.733905900443,0.0675889495029,0.0478118637456,0.0874643369587,-0.308652414944,0.0647993515413,0.0216575096093,-0.143271541253,-0.44060155623,-1.57943856716,0.00138041377068,1.26619112492,-0.301511019468,-0.462189108133,-0.226166784763
2017/07/09/10:05:47.354453,433202,1499565950,158893725,,0.812427853507,0.298970040352,0.175531726461,0.675988236339,0.732114133826,0.0685544941538,0.0484673159568,0.0982012032519,-0.327801864061,0.0666476164303,0.0168513441498,-0.16671263725,-0.463591774208,-2.17054748535,0.00393494963646,1.16158020496,-0.298978865147,-0.702134370804,-0.231523662806
2017/07/09/10:05:47.364542,433203,1499565950,168906974,,0.812987447852,0.295786938921,0.175556766057,0.677219437949,0.730945942931,0.0687400261323,0.0486484345497,0.0911926509316,-0.334057515599,0.0566791889442,0.0158535648246,-0.153724547945,-0.479981907937,-2.13184309006,-0.132000774145,1.23344421387,-0.290276318789,-0.636908710003,-0.240508601069
2017/07/09/10:05:47.374473,433204,1499565950,178907713,,0.813821492473,0.292431334176,0.176394408185,0.678750049198,0.729445133338,0.0689494666361,0.0495392694123,0.0867150213637,-0.328289442164,0.0613551908263,0.0236383891616,-0.147925730611,-0.462214963989,-2.22635531425,-0.125942468643,1.03915512562,-0.24410200119,-0.662587106228,-0.235426053405
2017/07/09/10:05:47.384683,433205,1499565950,188899645,,0.814806601095,0.289642429563,0.177110833735,0.680134575158,0.728038136907,0.0697620592743,0.0501067457404,0.0827384794645,-0.304738535777,0.0624094918693,0.0324501847084,-0.141289294383,-0.435048873139,-2.25476503372,-0.232685863972,1.18383705616,-0.200135499239,-0.712110042572,-0.211712285876
2017/07/09/10:05:47.394264,433206,1499565950,198892130,,0.815788469193,0.285906599353,0.17805793948,0.682175652311,0.726003849657,0.0702481234545,0.0511858459782,0.0880978516753,-0.329346059868,0.0809586774712,-0.00244738450591,-0.164152564293,-0.45106459438,-2.06121826172,-0.558772146702,0.992733836174,-0.146297752857,-0.675998628139,-0.21795552969
2017/07/09/10:05:47.404365,433207,1499565950,208893555,,0.816410942626,0.282088543256,0.178314659312,0.683614855156,0.72462569728,0.0700886739579,0.0517291642502,0.0845137581431,-0.333738940768,0.0785207489875,-0.0077559656537,-0.160421830106,-0.434282620906,-2.48016571999,-0.684966266155,0.980213046074,-0.0788297206163,-0.825375378132,-0.174151241779
2017/07/09/10:05:47.414468,433208,1499565950,218901490,,0.816846411863,0.280247360112,0.178760534286,0.684842385517,0.723405190771,0.0706028048338,0.051875629298,0.0837748813274,-0.329701402287,0.0656247449,0.0200052563728,-0.14753422555,-0.454979508522,-3.15290999413,-0.427136391401,0.959779083729,-0.124686017632,-1.09438121319,-0.221235916018
2017/07/09/10:05:47.424512,433209,1499565950,228905931,,0.817905482744,0.276227611052,0.179333338966,0.686726221066,0.721519951043,0.0710362511554,0.0526299208574,0.0814512890248,-0.331532334114,0.0680815380645,0.018353588291,-0.151970424187,-0.46801465987,-2.89597773552,-0.909450888634,0.992114067078,0.057113789022,-1.01659715176,-0.167029798031
2017/07/09/10:05:47.434319,433210,1499565950,238902132,,0.819094334928,0.273538081588,0.180910614668,0.687947787602,0.720181663515,0.0719972855124,0.0536898868409,0.0922714479171,-0.347434642732,0.088102070856,0.0100310265277,-0.183107804611,-0.490608752781,-2.98493647575,-0.819526493549,1.22647953033,0.11261267215,-1.02114927769,-0.11781488359
2017/07/09/10:05:47.444695,433211,1499565950,248904383,,0.819792536812,0.269857230457,0.181661891805,0.689728690578,0.718383660601,0.0722874655046,0.0545323014869,0.0857035561102,-0.34308230672,0.0837660658882,0.00825779253447,-0.17350917861,-0.466588569535,-2.87859249115,-0.804596722126,1.28955328465,0.0385355353355,-0.982859194279,-0.165039971471
2017/07/09/10:05:47.454492,433212,1499565950,258899189,,0.820528353381,0.267054735657,0.182282401918,0.691179330323,0.716897281334,0.0727624364518,0.0550912805389,0.0820702432849,-0.33593331701,0.0753147558093,0.0239640734226,-0.165830362708,-0.496887231364,-3.30539393425,-0.997097194195,1.21270930767,0.131824299693,-1.15883076191,-0.11290974915
2017/07/09/10:05:47.464304,433213,1499565950,268929146,,0.821215158539,0.263647129483,0.182786482833,0.692806670949,0.71525615715,0.0730967168784,0.055537521813,0.0920503298127,-0.323096667552,0.0949250333605,0.0164984576552,-0.194904537386,-0.453651917645,-3.64815354347,-1.11191964149,1.32682108879,0.150088727474,-1.26419663429,-0.129848659039
2017/07/09/10:05:47.474917,433214,1499565950,278901135,,0.821825672255,0.260189803616,0.183459791401,0.694508596605,0.7135266582,0.0733729314222,0.0561598630177,0.077998524086,-0.35719894559,0.0714836525946,0.00531439957152,-0.152011942843,-0.492837294071,-4.00635910034,-1.03798210621,1.29129993916,0.165244489908,-1.40843677521,-0.111681424081
2017/07/09/10:05:47.484212,433215,1499565950,288894472,,0.823033451813,0.257605082645,0.18447600713,0.695992559734,0.711906726706,0.0743777732472,0.0570185593629,0.0804981765292,-0.338790600059,0.0729966965017,0.00126084265329,-0.159101934239,-0.455306217912,-3.72000622749,-0.284910351038,1.44836509228,-0.19794806838,-1.32637393475,-0.243022531271
2017/07/09/10:05:47.494488,433216,1499565950,298925115,,0.823812255309,0.254009602137,0.185397664325,0.697669199472,0.710140411233,0.0748956685066,0.0578698823198,0.0800423294173,-0.351081493552,0.0633869670192,0.00850546699611,-0.153821139546,-0.488003907461,-2.62527728081,1.22771179676,1.49978137016,-1.09725344181,-0.904929935932,-0.532455086708
2017/07/09/10:05:47.504358,433217,1499565950,308895340,,0.824384036208,0.250614327403,0.185706272618,0.699402411234,0.708396898696,0.0749426643923,0.0582554558072,0.0931024791899,-0.372815910371,0.0752236987346,-0.0143495029818,-0.186956505446,-0.515739638921,-3.51460504532,2.14794230461,1.61622512341,-1.42901551723,-1.26379752159,-0.60297113657
2017/07/09/10:05:47.514449,433218,1499565950,318902048,,0.825045662914,0.24710380978,0.186196225886,0.700679967054,0.707037953351,0.0750445890386,0.0592724720892,0.078127256845,-0.337942760567,0.066375338648,-0.0157471791505,-0.156800296804,-0.467969410609,-3.2601442337,2.12583065033,1.55983686447,-1.42511796951,-1.20739233494,-0.59926211834
2017/07/09/10:05:47.524620,433219,1499565950,328932883,,0.825657950401,0.243407857788,0.186664814546,0.702308059108,0.705354419705,0.0750510871213,0.0600488720676,0.0824562009765,-0.347002903082,0.0850768900322,-0.0312004251293,-0.175589096147,-0.464038702954,-4.2089099884,1.23841238022,1.39936363697,-0.805104911327,-1.56475222111,-0.33256110549
2017/07/09/10:05:47.534488,433220,1499565950,338902089,,0.827128949224,0.2409733448,0.188285207157,0.703334633754,0.704095238737,0.076130767292,0.0614360970605,0.0803503004504,-0.370247954045,0.0740551850194,-0.057512808212,-0.166380277738,-0.48240106635,-4.14031839371,0.285721451044,1.48022377491,-0.213189870119,-1.53353428841,-0.200692147017
2017/07/09/10:05:47.544341,433221,1499565950,348897624,,0.827762222841,0.236710244911,0.188529697199,0.705094067365,0.70226285174,0.0761462213678,0.0622173304253,0.093234849765,-0.361141894907,0.0889206561897,-0.0529701781388,-0.209233828564,-0.47406092923,-3.93728470802,-0.495060801506,1.3749294281,0.0431504920125,-1.44871985912,-0.161898434162
2017/07/09/10:05:47.554476,433222,1499565950,358897039,,0.828337111942,0.233204628303,0.189527103013,0.706581339582,0.700668424357,0.0762885725426,0.0631397130457,0.077720573614,-0.354344831602,0.0645683883162,-0.053457518022,-0.16494932264,-0.449131458119,-4.24314546585,-0.915111541748,1.42711031437,0.181134819984,-1.51919698715,-0.175634935498
2017/07/09/10:05:47.564351,433223,1499565950,368902889,,0.828842430545,0.229954790133,0.189513685138,0.708467769722,0.698713826997,0.0766048824122,0.063277952078,0.0766529395352,-0.370446841027,0.0714556821866,-0.0148137409625,-0.162556804332,-0.496405350351,-5.54326486588,-0.804958939552,1.67265737057,0.158358573914,-1.94558155537,-0.170146077871
2017/07/09/10:05:47.574394,433224,1499565950,378898086,,0.830063025338,0.226351073919,0.190631039985,0.710050075534,0.696910997543,0.0774329886763,0.064405620893,0.0638231820302,-0.34851664272,0.0600152713781,0.0237099126285,-0.137443213709,-0.493695204265,-6.25372600555,-0.863013207912,1.99852097034,0.0991138443351,-2.26297879219,-0.136642619967
2017/07/09/10:05:47.584386,433225,1499565950,388901521,,0.830512237251,0.223958374052,0.190745846482,0.711177531372,0.695708839918,0.0775954058665,0.0647663641134,0.0616287630462,-0.33465857148,0.043728587684,0.0306823268152,-0.114908552842,-0.476803651546,-5.83019161224,0.116037726402,1.65483391285,-0.184148788452,-2.0971827507,-0.221653208137
2017/07/09/10:05:47.594574,433226,1499565950,398901234,,0.831022046407,0.220480976423,0.19125906291,0.712538221013,0.694237800853,0.0776715150112,0.0655003451752,0.0640378326948,-0.301652846419,0.0478088479753,0.00322243482229,-0.11557459271,-0.425513007672,-6.13701534271,0.139983564615,1.689925313,-0.284057199955,-2.22674465179,-0.237024098635
2017/07/09/10:05:47.604398,433227,1499565950,408901630,,0.831483093706,0.218353742166,0.191601608018,0.714119155973,0.692575875384,0.0780606684804,0.0654142182226,0.0472581838465,-0.319302433665,0.0381871349303,-0.00940787553954,-0.0804533450015,-0.437457848518,-6.29740524292,0.242732867599,1.87394416332,-0.205256074667,-2.32478117943,-0.191803097725
2017/07/09/10:05:47.614535,433228,1499565950,418901442,,0.832094876303,0.214504156317,0.192068072433,0.715364693606,0.691194209689,0.0779468899258,0.0665447367135,0.0604420024863,-0.323275855536,0.0595755655657,-0.00551463051921,-0.126083489041,-0.43524764139,-5.67703008652,-0.077397480607,1.78950822353,-0.100706890225,-2.1208126545,-0.181884840131
2017/07/09/10:05:47.624495,433229,1499565950,428894456,,0.832389567216,0.211508552523,0.192023794926,0.717236380989,0.689231096971,0.0781358259175,0.066537669499,0.0657309860481,-0.333416617157,0.0519735095898,-0.00905189346125,-0.13393804423,-0.453313915889,-6.38397836685,-0.251469969749,1.21202492714,0.0148673355579,-2.45339918137,-0.12252574414
2017/07/09/10:05:47.634543,433230,1499565950,438900232,,0.832964850527,0.209408680983,0.192357039811,0.717971714082,0.688406152413,0.078498562876,0.0667200324004,0.0523067739019,-0.329695411804,0.0249028378184,-0.0110738816443,-0.0941872048316,-0.450642065511,-6.58482408524,0.369896024466,1.03988277912,-0.165050923824,-2.5511469841,-0.199713751674
2017/07/09/10:05:47.644448,433231,1499565950,448902062,,0.834057352177,0.206498965171,0.192677497126,0.719205815754,0.686942051178,0.0792169611223,0.067663032592,0.0733047312226,-0.290273019648,0.0320607907845,0.00916216981704,-0.141990280258,-0.388912655125,-7.27097225189,0.203304201365,1.42202222347,-0.151996910572,-2.76259016991,-0.187198325992
2017/07/09/10:05:47.654600,433232,1499565950,458897665,,0.834642917609,0.203432320482,0.193223724265,0.72083381794,0.685123458672,0.0795952177568,0.0683304807698,0.0761163523956,-0.3144040566,0.0388296986486,-0.00438081506352,-0.161035877577,-0.41062202505,-7.42927694321,0.325176954269,1.61374437809,-0.219713822007,-2.78664541245,-0.216052085161
2017/07/09/10:05:47.664406,433233,1499565950,468901734,,0.83517574227,0.200283169711,0.193113909283,0.72193505511,0.683912027848,0.0795596315087,0.0688794555982,0.0684300145902,-0.276136387598,0.0253927004875,0.0252522929479,-0.13732935581,-0.392443645933,-7.51532840729,0.28459072113,1.51929438114,-0.259521216154,-2.81136417389,-0.23567700386
2017/07/09/10:05:47.674579,433234,1499565950,478901103,,0.836169002064,0.197932702866,0.193628367384,0.723201207102,0.682400787118,0.0803932850694,0.0696139318112,0.0617000356138,-0.314529499031,0.0305555976778,0.0174911733862,-0.127898435404,-0.444459610702,-7.81767702103,0.367488622665,1.06224513054,-0.190524429083,-2.94902324677,-0.1897662431
2017/07/09/10:05:47.684518,433235,1499565950,488895460,,0.836564078471,0.194660611952,0.193702093238,0.72465611764,0.680822369289,0.0804137613361,0.069914516593,0.0593544742746,-0.286595365466,0.0151136323912,0.0249210896199,-0.103175573497,-0.412237097152,-7.90097045898,-0.136356309056,1.20803487301,-0.0569294244051,-3.01649093628,-0.147919625044
2017/07/09/10:05:47.694589,433236,1499565950,498897906,,0.836712226967,0.192229305218,0.193265672516,0.725910215402,0.679520017135,0.0803879393155,0.0696037693009,0.0523848456267,-0.285095468398,-0.00357882058611,0.0233114780989,-0.0700296565333,-0.391404282601,-8.30215358734,-0.362003564835,0.930457055569,0.18717366457,-3.17521882057,-0.020888864994
2017/07/09/10:05:47.704690,433237,1499565950,508900284,,0.8378184365,0.189544156516,0.193723402246,0.726946641259,0.6782304289,0.0808733046524,0.0707924760919,0.0572256052034,-0.294404915446,-0.0014166280492,0.00446179492142,-0.085168568617,-0.391054571984,-7.90824222565,0.0303975045681,1.13355517387,0.0578735247254,-3.04115176201,-0.0964219421148
2017/07/09/10:05:47.714471,433238,1499565950,518902251,,0.838179343426,0.18652650708,0.193736816076,0.728295012904,0.676735862479,0.0811025815861,0.0709740648015,0.0617259018915,-0.310237324338,-0.000315369298181,-0.00817282986419,-0.0949973788743,-0.411515363399,-8.02412223816,0.216617554426,1.08228826523,-0.0776516869664,-3.05429840088,-0.146784573793
2017/07/09/10:05:47.724786,433239,1499565950,528897845,,0.838757630952,0.183497502433,0.193586677965,0.729676743212,0.675204555466,0.0810422367025,0.0714339874574,0.0659679791026,-0.281402271616,0.0052227441867,0.0166657252652,-0.0991455195127,-0.376900709267,-8.41938209534,0.0174991488457,0.768070876598,-0.00253393501043,-3.25794005394,-0.152049690485
2017/07/09/10:05:47.734446,433240,1499565950,538892644,,0.839218887018,0.180712328884,0.193382969569,0.730798273967,0.673961457037,0.0809135309075,0.0718528893712,0.0702807512186,-0.259616446519,-0.00200128411874,0.0188354871922,-0.0940189662768,-0.367738626236,-8.9366235733,-0.101026564837,0.764486193657,0.0366049781442,-3.47078442574,-0.0844529941678
2017/07/09/10:05:47.744459,433241,1499565950,548902734,,0.839838025379,0.178410730432,0.193388093787,0.731974933452,0.672616521184,0.0814897438484,0.0718271110073,0.0593819481097,-0.275184284361,-0.0231792605444,0.011007797426,-0.0674901832217,-0.375122452054,-8.81351470947,0.237107291818,0.628874599934,-0.0637472495437,-3.46942329407,-0.175250142813
2017/07/09/10:05:47.754453,433242,1499565950,558895586,,0.840933277795,0.17589100018,0.193144838615,0.733277160857,0.671084607365,0.0819184884588,0.0723838129158,0.0822576482287,-0.282289353896,-0.00618651017832,0.0133295473963,-0.11743634276,-0.374039272057,-7.98321390152,0.413595795631,0.500370025635,-0.0740069746971,-3.17307686806,-0.160819470882
2017/07/09/10:05:47.764766,433243,1499565950,568894363,,0.841649366891,0.173779481447,0.192814794891,0.734347900794,0.669837445811,0.0823317141262,0.0726116081413,0.0667576531129,-0.274474278734,-0.0337893422921,0.0379838948232,-0.0633550800411,-0.394549316294,-8.4291601181,0.389572739601,0.282114207745,-0.0241502523422,-3.42614769936,-0.138386279345
2017/07/09/10:05:47.774517,433244,1499565950,578902448,,0.842360769519,0.170905742788,0.192775195432,0.735370828174,0.668660293757,0.082243087131,0.0732067704636,0.0776586238095,-0.280463447355,-0.022989914092,0.0192435541523,-0.0817967495816,-0.398721849662,-8.54295444489,0.722154796124,0.60218924284,-0.137842357159,-3.48214912415,-0.183205857873
2017/07/09/10:05:47.784625,433245,1499565950,588919741,,0.842761950856,0.1688460248,0.19193626642,0.736532859193,0.667407110675,0.0823503759245,0.0728389424316,0.0768993273351,-0.26614924603,-0.0205672158578,0.0176431587468,-0.0798518643803,-0.358455645741,-9.07191848755,0.778215885162,0.0943031981587,-0.258413463831,-3.70316433907,-0.219536691904
2017/07/09/10:05:47.794536,433246,1499565950,598897885,,0.843499381644,0.164894188985,0.19212298243,0.738202897016,0.66548731017,0.0822645003467,0.0735912686587,0.0665286695177,-0.277409678903,-0.0348551719781,0.014592799254,-0.0474025587644,-0.371667141846,-9.08025360107,0.271802127361,0.374581485987,-0.185796007514,-3.79590463638,-0.191807061434
2017/07/09/10:05:47.804434,433247,1499565950,608896705,,0.844673978809,0.162507285246,0.191891610911,0.739353553298,0.664073574545,0.0830069944837,0.0739760074891,0.0827280462304,-0.280909997557,-0.0274326554863,0.0334413720092,-0.0788010441208,-0.385408830975,-7.72284603119,0.144159793854,0.0427106805146,-0.163265094161,-3.38449597359,-0.187431290746
2017/07/09/10:05:47.814220,433248,1499565950,618897913,,0.8454701297,0.159896768929,0.191283089446,0.740453093191,0.662813275174,0.0830294718116,0.0742555442136,0.0830958266306,-0.277640064053,-0.0344560353236,0.0353127079739,-0.0682066677307,-0.401558342717,-7.09252643585,0.116217702627,-0.548722684383,0.0108653232455,-3.31447815895,-0.109712004662
2017/07/09/10:05:47.824317,433249,1499565950,628931033,,0.846444020252,0.15722700042,0.190937001921,0.741303366759,0.661804186664,0.0830392290672,0.0747597711408,0.0757471517756,-0.300649798919,-0.0537575077852,-0.00785340170172,-0.0352732669369,-0.409118021691,-6.47293663025,0.152419820428,-0.869788944721,0.102130785584,-3.09398245811,-0.0745714530349
2017/07/09/10:05:47.834518,433250,1499565950,638901101,,0.847045882809,0.154639723305,0.190797831872,0.742878405034,0.660036799882,0.0830146349933,0.0747774599182,0.0848397189247,-0.279858650711,-0.0430135323967,-0.0145001029151,-0.047081329748,-0.369020494254,-6.5892033577,0.373133957386,-0.49252808094,0.0358848124743,-3.07965064049,-0.0961286574602
2017/07/09/10:05:47.844399,433251,1499565950,648895606,,0.847880156912,0.151765980982,0.189630365237,0.743866914379,0.658930079022,0.0827726431374,0.0749790250665,0.110356811217,-0.274461802412,-0.0210344660132,-0.00182371411811,-0.106671302678,-0.373907667125,-7.16404008865,0.572362422943,-0.569108664989,-0.0863126143813,-3.21452856064,-0.152884244919
2017/07/09/10:05:47.854481,433252,1499565950,658894353,,0.848922522758,0.148820107083,0.189814742365,0.745341289693,0.657175444114,0.0827830312027,0.0757216433887,0.109895973754,-0.270006093133,-0.0210996875992,-0.0110918962854,-0.0999748316467,-0.350780504845,-6.58436584473,0.770575761795,-0.533649921417,-0.248394012451,-2.89929580688,-0.186088085175
2017/07/09/10:05:47.864460,433253,1499565950,668893808,,0.850141329233,0.14630220621,0.190029706898,0.746076407927,0.656220661552,0.0829950412526,0.0765262047536,0.096273381478,-0.290742111161,-0.0324280131242,-0.0288107061565,-0.0545860168207,-0.380020751802,-7.1340713501,0.361772865057,0.180019184947,-0.31041187048,-3.03717088699,-0.238276779652
2017/07/09/10:05:47.874647,433254,1499565950,678898997,,0.850526205899,0.143317179329,0.189333539303,0.74720446084,0.655001090931,0.0823537726629,0.07666107688,0.0773321777996,-0.301068346575,-0.0342420841386,-0.0495807215341,-0.00748333150648,-0.372736361288,-5.59628534317,0.38936573267,-0.388130128384,-0.292570531368,-2.42449784279,-0.22600749135
2017/07/09/10:05:47.884471,433255,1499565950,688904210,,0.851554552966,0.141055357364,0.189359551157,0.747992182089,0.654091555107,0.0820999650805,0.0770164190627,0.0752085530007,-0.311609497646,-0.0352269675154,-0.0555308472882,0.0123595305986,-0.370873224731,-4.85055971146,0.464126259089,-0.237482637167,-0.230511397123,-2.1875500679,-0.194295138121
2017/07/09/10:05:47.894718,433256,1499565950,698903734,,0.851533121556,0.137737019124,0.187998881258,0.749397560613,0.652653522983,0.0810312700651,0.0766851247463,0.0715676025394,-0.302931731915,-0.0225467130275,-0.0860388516706,0.0217648257227,-0.354683760866,-5.38224887848,0.424808979034,-0.680364847183,-0.204315394163,-2.39219522476,-0.178788393736
2017/07/09/10:05:47.904485,433257,1499565950,708937123,,0.852848466771,0.134871982261,0.18844923208,0.750308742803,0.651474156895,0.0811036213185,0.0777201131059,0.0682203764956,-0.303593780798,-0.0512638172162,-0.101998905285,0.0472388355443,-0.337364140135,-4.77874898911,0.589863061905,-0.341980874538,-0.242939472198,-2.19539952278,-0.205546289682
2017/07/09/10:05:47.914572,433258,1499565950,718908264,,0.853603896576,0.131151973147,0.188481190464,0.751781915863,0.64978362544,0.0804616695191,0.0783014101365,0.0697343490799,-0.311088115453,-0.0252728523118,-0.125479301929,0.0318842926029,-0.334424349682,-5.81322097778,0.278502732515,0.0272327587008,-0.188268110156,-2.56413340569,-0.171562343836
2017/07/09/10:05:47.924499,433259,1499565950,728902837,,0.854305700222,0.128590365147,0.188477575772,0.752145410616,0.649366246606,0.079734372246,0.0790138528382,0.0659775032973,-0.32135779665,-0.0121657557845,-0.139890882702,0.0334164763268,-0.335346733149,-4.91070365906,0.657263576984,0.106901057065,-0.213644772768,-2.16096591949,-0.17677924037
2017/07/09/10:05:47.934294,433260,1499565950,738897738,,0.854537305589,0.125279055423,0.187795433454,0.75361277806,0.647786712419,0.078622341994,0.0791118404318,0.0671561672711,-0.336406868337,-0.0195910235369,-0.146583410963,0.0387271674583,-0.357538734172,-5.09880447388,0.212075084448,-0.274130046368,-0.121439367533,-2.16848444939,-0.14047396183
2017/07/09/10:05:47.944725,433261,1499565950,748902033,,0.854927914009,0.121993623606,0.186819337572,0.754579795911,0.646793681137,0.0773088727349,0.0793133270008,0.0603654314701,-0.332156323224,-0.0397620832522,-0.149850727154,0.0751167770301,-0.338056205135,-4.4171128273,0.125841662288,-0.267919331789,-0.106662683189,-1.98366129398,-0.0992122814059
2017/07/09/10:05:47.954601,433262,1499565950,758901395,,0.855380808288,0.118528634106,0.186727574031,0.755703757743,0.645525457222,0.0762453302963,0.0799710211187,0.0537998052254,-0.338827434085,-0.0345973719336,-0.174111524,0.0883860611226,-0.340856815572,-4.18868684769,0.280271559954,-0.730073451996,-0.148498505354,-1.89818692207,-0.147879317403
2017/07/09/10:05:47.964359,433263,1499565950,768901252,,0.856534614694,0.116191076066,0.187198533937,0.756283174186,0.644797423546,0.0758045325212,0.0807819031809,0.0670493303689,-0.342409816154,-0.0205696012235,-0.201840579404,0.0591006495217,-0.343014863041,-3.59649038315,1.30067634583,-0.307098448277,-0.441917836666,-1.72250151634,-0.260053008795
2017/07/09/10:05:47.974524,433264,1499565950,778898654,,0.857187498378,0.111584780483,0.186722405676,0.757774629739,0.643042621793,0.0746797026392,0.0818336061531,0.066531039649,-0.330498039543,-0.0197086758566,-0.170895782456,0.0641796927133,-0.340920246721,-3.7898311615,0.0455611795187,-0.485234439373,-0.181489080191,-1.78189790249,-0.159854546189
2017/07/09/10:05:47.984515,433265,1499565950,788907572,,0.857381888087,0.109354981513,0.186250744077,0.758530444754,0.642308620631,0.0736285601815,0.0815477490194,0.0602381928265,-0.327580679591,-0.0290353282659,-0.176694450274,0.0860381298123,-0.347155537008,-4.08699464798,0.274968802929,-0.625424921513,-0.19769449532,-1.87539029121,-0.165233537555
2017/07/09/10:05:47.994510,433266,1499565950,798901814,,0.857942413691,0.105241759309,0.186484838323,0.759736674323,0.640889811683,0.072511403429,0.0824774596018,0.056596567952,-0.362836301822,-0.00754659671419,-0.207203352909,0.0709662258195,-0.367409990673,-2.59588646889,0.440740585327,-0.118599310517,-0.321029692888,-1.24690854549,-0.212195962667
2017/07/09/10:05:48.004457,433267,1499565950,808893259,,0.858398296391,0.101596749765,0.186001522517,0.761128027792,0.639288875474,0.0714981600404,0.0829570498262,0.0624005987581,-0.342328920982,-0.00866963458976,-0.191257621489,0.0676827920273,-0.354717671709,-2.35152316093,-0.133885204792,-0.351793050766,-0.228928744793,-1.12239086628,-0.203317120671
2017/07/09/10:05:48.014399,433268,1499565950,818900592,,0.859152617591,0.0995204217522,0.186242922279,0.761461841282,0.638936484619,0.0706441495375,0.0833392886301,0.0495131140925,-0.338925073791,-0.0233274061251,-0.185407056512,0.100102764662,-0.337536830604,-2.14107203484,0.640522360802,-0.293496966362,-0.244125291705,-1.07746362686,-0.173982992768
2017/07/09/10:05:48.024425,433269,1499565950,828897277,,0.859181361839,0.0965359192823,0.185859204206,0.762511052343,0.637836487064,0.0690766225805,0.0834861128416,0.0354636102123,-0.340535547387,-0.0310138229802,-0.20230670623,0.138100547352,-0.335189625172,-0.618019163609,0.997811079025,-0.699572265148,-0.353088200092,-0.534441709518,-0.216859489679
2017/07/09/10:05:48.034435,433270,1499565950,838902336,,0.859443823915,0.0933283997315,0.185051183249,0.763338551043,0.636982129999,0.0673272028316,0.0838753260069,0.0191847635809,-0.340215059535,-0.0287608467815,-0.205310596258,0.176541638523,-0.3256661465,-0.253646761179,0.738219380379,-0.770904242992,-0.324087172747,-0.430995106697,-0.266807973385
2017/07/09/10:05:48.044463,433271,1499565950,848894998,,0.85967806546,0.0901925821237,0.184402242264,0.764549333875,0.635642355618,0.0664154135809,0.0837383105543,0.0235988089619,-0.345853024998,-0.0169909161758,-0.212143079345,0.16108572213,-0.346828030872,-0.649666309357,0.349757373333,-0.922831118107,-0.290227800608,-0.582932651043,-0.223243117332
2017/07/09/10:05:48.054418,433272,1499565950,858900958,,0.85966272272,0.0860496826946,0.184561812769,0.765696819713,0.634343090069,0.0647082755212,0.0844397029959,0.0051580519736,-0.356804868114,-0.0284362149311,-0.220078153368,0.197126423991,-0.353953070974,-0.835996747017,-0.0284734368324,-0.363990724087,-0.214746460319,-0.543132305145,-0.226908773184
2017/07/09/10:05:48.064530,433273,1499565950,868900215,,0.859985288364,0.082701896098,0.184566299974,0.76696755547,0.632855981127,0.0637256710181,0.0848122329719,0.021343243423,-0.33454482842,-0.0114858927249,-0.194739523626,0.157245156237,-0.351076477046,-0.518130004406,0.156910657883,-0.00185752660036,-0.304932802916,-0.415955841541,-0.229043617845
2017/07/09/10:05:48.074694,433274,1499565950,878902282,,0.860343783388,0.0799093127852,0.18511819893,0.767569388686,0.632154424872,0.0622700016794,0.0856765052846,0.0253615573736,-0.360893182544,0.0123724734654,-0.228608150076,0.122427005917,-0.368765417446,-0.0340834856033,0.463954925537,0.633875310421,-0.332450628281,-0.129807621241,-0.261246919632
2017/07/09/10:05:48.084769,433275,1499565950,888897489,,0.860724463544,0.0774278166778,0.184564168538,0.768523488203,0.631115845937,0.0613888742819,0.0854157081699,0.0249778365043,-0.316486440162,0.00433628464023,-0.184462607363,0.133559858947,-0.335546694493,1.67465734482,0.638618290424,-0.0411025211215,-0.293511390686,0.517388105392,-0.251184791327
2017/07/09/10:05:48.094600,433276,1499565950,898901380,,0.860639810158,0.0738502549386,0.184365258278,0.769643107341,0.62984896694,0.0598502123843,0.085777142904,0.0228434608648,-0.327840667795,-0.00352008216883,-0.174515019312,0.132661941761,-0.362523124368,1.71238350868,0.0341978669167,-0.0858221724629,-0.201478525996,0.562421023846,-0.252732753754
2017/07/09/10:05:48.104402,433277,1499565950,908898284,,0.860981982365,0.0709447733562,0.18435450488,0.770672707928,0.628629124692,0.0587449894706,0.086243997218,0.0137089697186,-0.332374271533,-0.00449421817741,-0.183867620388,0.150062261151,-0.368349216581,2.11293101311,-0.000529676675797,-0.367807418108,-0.207178369164,0.756974637508,-0.270707964897
2017/07/09/10:05:48.114452,433278,1499565950,918909234,,0.86061213302,0.0666432203332,0.18437345588,0.771859236119,0.627262014748,0.0568537650859,0.0868523682317,0.00674126390521,-0.333829252293,-0.00888550263852,-0.207869198739,0.17095248923,-0.342084580176,2.76939725876,-0.929516255856,0.573158800602,0.0238642022014,1.13592195511,-0.262383878231
2017/07/09/10:05:48.124722,433279,1499565950,928935519,,0.86169060841,0.0647574637799,0.185296594646,0.772723655788,0.626127890578,0.0567497949151,0.0874155432576,-0.00237887416104,-0.357273882472,-0.0039044339183,-0.219644183718,0.173258543854,-0.383452764917,3.72701597214,0.274096190929,0.915564894676,-0.132346734405,1.4463108778,-0.329185247421
2017/07/09/10:05:48.134484,433280,1499565950,938901414,,0.86108232409,0.0605926847701,0.184935621551,0.773866570784,0.624852875485,0.0547445946872,0.0877065788482,0.00640074240957,-0.326565789374,0.0126616041518,-0.191500682427,0.146511262385,-0.360272320717,2.97329711914,-0.128368347883,0.729583799839,-0.125172168016,1.14236497879,-0.294890344143
2017/07/09/10:05:48.144686,433281,1499565950,948898443,,0.860912460695,0.0571169698379,0.184887447895,0.775281868224,0.623169583593,0.05321612399,0.0881234306809,0.00177564847824,-0.366131233319,0.0165050294762,-0.216598636202,0.132276439448,-0.398308892043,3.31895399094,-0.299823820591,0.708787679672,-0.166416496038,1.26082122326,-0.351326882839
2017/07/09/10:05:48.154514,433282,1499565950,958901948,,0.861336192584,0.0546113546044,0.18534967964,0.775972120419,0.622308943129,0.0523923906823,0.0886221475338,0.0104772731621,-0.346531324101,0.03061493552,-0.204069023646,0.0966864451635,-0.390170133205,4.15841341019,-0.0782354176044,0.590704798698,-0.157032698393,1.61279702187,-0.358819633722
2017/07/09/10:05:48.164146,433283,1499565950,968900197,,0.86165227077,0.0510789558083,0.185239839397,0.776971755237,0.621028872875,0.0514655078236,0.0893830639612,0.0166733880346,-0.330616835579,0.0277881793227,-0.204206188743,0.0832332827331,-0.373276583918,5.93640327454,-0.176152259111,0.305994391441,-0.141633436084,2.28701663017,-0.418926596642
2017/07/09/10:05:48.174704,433284,1499565950,978901257,,0.861578887411,0.0475675318138,0.185323030893,0.778371035564,0.619301819333,0.050278239745,0.0898659344463,0.0266535128688,-0.333705696432,0.0326946593403,-0.207078659128,0.0459269621982,-0.363733964499,5.76033782959,-0.968387842178,0.180449038744,0.0727651640773,2.32935833931,-0.370833337307
2017/07/09/10:05:48.184506,433285,1499565950,988898561,,0.862379557333,0.044576996286,0.186360324211,0.779170894924,0.618143811428,0.0498880489673,0.0911160110298,0.0241370209978,-0.333951128734,0.0352559530666,-0.189031257527,0.036728868756,-0.39156743463,5.40389347076,-0.613306164742,0.500658810139,0.0843925178051,2.1111638546,-0.317822724581
2017/07/09/10:05:48.194442,433286,1499565950,998898922,,0.861951320496,0.0416001592619,0.185825605765,0.780200007895,0.616985975912,0.0488245944982,0.0907326412124,0.0112733703832,-0.333951534871,0.0246247980515,-0.180452768512,0.065559150278,-0.374395837283,6.31549358368,1.42549645901,0.384426981211,-0.268734633923,2.47524881363,-0.454833865166
2017/07/09/10:05:48.204525,433287,1499565951,8900145,,0.8625895634,0.0376361112789,0.186829996732,0.781588542108,0.615033027709,0.0481843533069,0.0923687921825,0.0199536803037,-0.327080655455,0.0370871161281,-0.157077400646,0.024811632466,-0.394109973121,6.5371928215,1.0497854948,0.472551107407,-0.167172163725,2.49885010719,-0.419836103916
2017/07/09/10:05:48.214308,433288,1499565951,18900075,,0.862323153814,0.0350350562075,0.187021556662,0.782702838302,0.613681645195,0.0473287624316,0.0923639188837,0.00751238403549,-0.340142862978,0.0364139216237,-0.173651465985,0.0392565871159,-0.413359798884,7.13420963287,-0.186568915844,0.84534239769,0.196769982576,2.71594309807,-0.417535543442
2017/07/09/10:05:48.224500,433289,1499565951,28893050,,0.862662284925,0.0312414438482,0.187275420903,0.783829828797,0.61212278145,0.0466982613806,0.0934653534848,0.0156165651854,-0.327179886794,0.0289381504637,-0.146902474171,0.012824005732,-0.421333689541,8.85799598694,-0.742198348045,1.54962146282,0.175336420536,3.492654562,-0.580035686493
2017/07/09/10:05:48.234416,433290,1499565951,38898735,,0.863161507151,0.0287701027378,0.188093570182,0.784794304603,0.610798583066,0.0462270832104,0.0942658324377,0.0355419192818,-0.348055776349,0.061963730687,-0.181245728863,-0.0583850160888,-0.402669880359,8.43600273132,-0.511230349541,1.61594057083,-0.090738132596,3.39651870728,-0.645663261414
2017/07/09/10:05:48.244565,433291,1499565951,48899598,,0.863656819401,0.0253291232592,0.188789556646,0.785963703653,0.60913309052,0.0463118742015,0.0952530570753,0.0369933997908,-0.329350456724,0.0651600496726,-0.175182501437,-0.0694783187071,-0.391412344587,6.82155132294,-0.207699537277,1.38534808159,-0.0568170920014,2.79174804688,-0.555791079998
2017/07/09/10:05:48.254393,433292,1499565951,58901660,,0.863596071231,0.0224223541577,0.188910320599,0.786960708459,0.607794268069,0.0456654225011,0.0958834721503,0.036844131912,-0.311310851312,0.0542347347304,-0.122611124636,-0.0804732410069,-0.402890881264,7.12776660919,-0.352078825235,1.27927851677,0.127942591906,2.92128968239,-0.46628382802
2017/07/09/10:05:48.264102,433293,1499565951,68903617,,0.863701355899,0.0204146109214,0.18859306695,0.787717894068,0.606852095887,0.0450263223353,0.0959358294909,0.0188974293484,-0.324112062856,0.019823364228,-0.133430439636,-0.0379754938015,-0.405556352014,6.47246932983,-0.833887338638,0.960316538811,0.506646215916,2.60696315765,-0.324899792671
2017/07/09/10:05:48.274787,433294,1499565951,78899814,,0.863986520354,0.0157776044962,0.189513019001,0.789127317132,0.604795753816,0.0448764974789,0.0973975025162,0.0123984376135,-0.337062607494,0.0229317870364,-0.159181886161,-0.0293210755787,-0.405784759785,5.26332044601,-1.8377352953,0.707094490528,1.1089900732,2.09319376945,-0.139891475439
2017/07/09/10:05:48.284767,433295,1499565951,88909283,,0.864210878252,0.0129589036451,0.189581269763,0.790257889813,0.603240287528,0.0445498532733,0.0980251685315,0.00662404685356,-0.359565712434,0.0399324922292,-0.147279210923,-0.0602867447464,-0.427871911141,4.6548409462,-2.62146139145,0.53036403656,1.46900367737,1.78090560436,-0.0627057999372
2017/07/09/10:05:48.294395,433296,1499565951,98930498,,0.86427156127,0.0107452792756,0.1893527901,0.791256622834,0.60193865443,0.0445053947068,0.0979902187283,0.000564093550172,-0.33748666522,0.0376633216852,-0.100607223927,-0.0547645104487,-0.42824150642,3.97248911858,-2.65932822227,0.564220547676,1.34580075741,1.46451747417,-0.0453305691481
2017/07/09/10:05:48.304473,433297,1499565951,108914537,,0.864194235294,0.00783185244111,0.189722995329,0.792515483925,0.600247854713,0.0446015897884,0.0981448869808,0.0131213070958,-0.286377972815,0.0308500888487,-0.00311349198904,-0.08253172518,-0.403092993432,5.21863746643,-2.00106549263,0.918290019035,0.933717727661,1.93207001686,-0.186631038785
2017/07/09/10:05:48.314351,433298,1499565951,118898198,,0.863970990945,0.00539464636953,0.189825868292,0.793699413241,0.598705381977,0.0446155434023,0.0979926543162,0.00271831899465,-0.233849648423,0.00721586542938,0.0830978508218,-0.044046722012,-0.375987851518,7.00200271606,-1.4943113327,1.26844239235,0.614744007587,2.61539125443,-0.394848287106
2017/07/09/10:05:48.324758,433299,1499565951,128915203,,0.86430224576,0.00323019583042,0.190194726035,0.79466150896,0.597345869089,0.0450168823098,0.0983080829194,0.00485787230929,-0.267183975748,0.0296614786827,0.063184182438,-0.0833927156672,-0.417692156757,7.82510566711,-1.01358294487,1.42860913277,0.259950429201,2.97387290001,-0.499982118607
2017/07/09/10:05:48.334507,433300,1499565951,138901636,,0.864530223562,0.000236376093262,0.190967515546,0.796083591837,0.595328019696,0.0458568593315,0.0986540025796,0.00616373006519,-0.277410027363,0.0346378357407,0.0544342007053,-0.102949768112,-0.431399130673,7.65905809402,-0.835461854935,1.34832787514,0.278112590313,2.92718172073,-0.500816345215
2017/07/09/10:05:48.344940,433301,1499565951,148897388,,0.864737240642,-0.00240059387084,0.191063648953,0.797510975273,0.593341927519,0.0464378438269,0.0988186623463,-0.00315526046887,-0.295462147566,0.0238759064346,0.0333955592872,-0.0921430145688,-0.427723833007,8.56156539917,-0.865803003311,1.36520540714,0.248834565282,3.3401055336,-0.556722283363
2017/07/09/10:05:48.354239,433302,1499565951,158895557,,0.864324006961,-0.00574525315316,0.191419980189,0.798348886969,0.59215329496,0.0461315912789,0.099324751341,-0.00277020172567,-0.27217032101,0.0210417249444,0.0509406644566,-0.087304068548,-0.395673232902,8.95998382568,-1.44868183136,1.2352836132,0.587970495224,3.54884529114,-0.52575802803
2017/07/09/10:05:48.364293,433303,1499565951,168898445,,0.86437460269,-0.00760062226772,0.191595930526,0.79950198477,0.590598561048,0.0467125324427,0.0990346169261,-0.0096124939579,-0.258233391872,0.0212137268901,0.0640258921879,-0.0744141475445,-0.385347953205,8.4057302475,-1.54837274551,1.3030860424,0.667461514473,3.36303400993,-0.484555631876
2017/07/09/10:05:48.374634,433304,1499565951,178901094,,0.863877025012,-0.0108378166394,0.191677843777,0.800870225945,0.588727301637,0.0466563948384,0.0991474978145,-0.0191318665818,-0.273974784716,0.0319533657786,0.0618075400324,-0.0818554688375,-0.409200223473,8.26049041748,-1.92469727993,1.37140119076,0.845068156719,3.32508516312,-0.440677404404
2017/07/09/10:05:48.384609,433305,1499565951,188893996,,0.863502902349,-0.0122588879896,0.191567689951,0.801598673756,0.58784341252,0.0468186313871,0.0984261364878,-0.0440975747321,-0.28039109239,0.0148052410827,0.0708188330513,-0.0273576337488,-0.409262694807,7.0990152359,-1.52108383179,1.07037091255,0.654618144035,2.79656219482,-0.46152484417
2017/07/09/10:05:48.394338,433306,1499565951,198893486,,0.863047677021,-0.0155271191941,0.191941408704,0.802943572376,0.585955009206,0.046851178406,0.0987082258361,-0.0358460178552,-0.261601065228,0.0269910365057,0.0541777813901,-0.0415035371253,-0.350724865842,6.66076660156,-1.38739585876,1.02197778225,0.556869029999,2.60013985634,-0.446024596691
2017/07/09/10:05:48.404408,433307,1499565951,208897531,,0.862956815225,-0.0182907292717,0.192515763733,0.80395468836,0.584465126869,0.0474978463096,0.0990016622772,-0.0296641160665,-0.249939573423,0.0220896096841,0.0939153243787,-0.0644150261168,-0.359664204836,6.96436548233,-1.35902178288,1.03044033051,0.561705708504,2.69545555115,-0.444458067417
2017/07/09/10:05:48.414404,433308,1499565951,218900040,,0.862632378483,-0.0200927922349,0.191994598509,0.804807599652,0.583371910367,0.0478215254056,0.0983617987045,-0.0313303081138,-0.254276905457,0.00469825837941,0.103018184151,-0.0663723025823,-0.343231468289,7.48792552948,-1.4761030674,1.06886422634,0.50388610363,2.89162349701,-0.455660700798
2017/07/09/10:05:48.424443,433309,1499565951,228894679,,0.862568844046,-0.0222734750608,0.192009748628,0.805417791298,0.582464700997,0.0486302505075,0.0983471010712,-0.0304406828356,-0.24766144109,0.0044340448866,0.113985362741,-0.0744447305991,-0.314367796267,7.46282148361,-1.24845433235,1.14998471737,0.475595057011,2.92203998566,-0.497790575027
2017/07/09/10:05:48.434738,433310,1499565951,238901366,,0.862154032419,-0.0241392900396,0.192149834157,0.805931406009,0.581785395114,0.0486746994982,0.0981381499224,-0.0347868794994,-0.225181308291,-0.00605643863225,0.121010540284,-0.051316094374,-0.251466603442,7.31764030457,-1.45463049412,1.16694200039,0.636781334877,2.85281848907,-0.398876845837
2017/07/09/10:05:48.444541,433311,1499565951,248901915,,0.861631706777,-0.0269112090423,0.191978271484,0.806499097273,0.581003152104,0.0491714757158,0.0978606627735,-0.0398740009663,-0.239276483773,-0.0036276351523,0.0811885501941,-0.0411692783967,-0.2168987887,6.88150119781,-1.31673669815,1.15709877014,0.542692065239,2.72109723091,-0.417408615351
2017/07/09/10:05:48.454552,433312,1499565951,258900274,,0.861092746796,-0.0289729638773,0.191456941387,0.807053935302,0.580278884172,0.0490091154021,0.0976650843722,-0.0454126076657,-0.234097086952,-0.0134345300679,0.064885372272,-0.0249512350868,-0.175390084654,7.23235940933,-1.81175947189,1.43801093102,0.734216451645,2.91931557655,-0.400620222092
2017/07/09/10:05:48.464261,433313,1499565951,268903230,,0.860489091912,-0.0311542829212,0.191456320895,0.807445993662,0.579750941737,0.0488641948911,0.0976324911739,-0.0568290673082,-0.249965271821,-0.0161345733981,0.0416488789316,-0.00807473472358,-0.1656349878,7.21312236786,-1.92816090584,1.34135019779,0.815784811974,2.87339138985,-0.297014445066
2017/07/09/10:05:48.474505,433314,1499565951,278937004,,0.859553775372,-0.0338312755357,0.191041925172,0.807609885488,0.579604999178,0.0484227210053,0.0973630211095,-0.0514783270209,-0.239691983655,-0.00495280554375,0.0166756855685,-0.0167772120195,-0.098451968692,7.65208244324,-2.18733310699,1.31382501125,0.879644095898,3.04437422752,-0.306499391794
2017/07/09/10:05:48.484210,433315,1499565951,288894215,,0.859344506669,-0.0365735041385,0.191336231365,0.808008591462,0.578928156119,0.0488453264568,0.0978695062765,-0.0724810865734,-0.248323591496,-0.0192812614944,0.0244517029578,0.0280046096058,-0.104218561537,7.07018089294,-1.78327178955,0.941207170486,0.691157639027,2.75978970528,-0.306879341602
2017/07/09/10:05:48.494711,433316,1499565951,298900352,,0.858604403059,-0.0387324045638,0.191268061575,0.808297594102,0.578568071748,0.0488152311983,0.097627142364,-0.0668499529918,-0.247931508937,-0.0197919394062,0.00526164867681,0.0151450643399,-0.0899932537444,7.25894069672,-1.85407602787,0.861644327641,0.655672490597,2.83287858963,-0.314376115799
2017/07/09/10:05:48.504362,433317,1499565951,308896677,,0.857749501867,-0.0412503854776,0.190690026572,0.808647774262,0.57813712252,0.0486787824056,0.0973479372598,-0.0778069590906,-0.253847205212,-0.0347412856872,0.0130004516756,0.0324717525296,-0.103925054347,7.5521774292,-2.10140514374,0.770173847675,0.75006622076,2.89767980576,-0.243893295527
2017/07/09/10:05:48.514675,433318,1499565951,318895504,,0.856585382348,-0.0441048360161,0.190652890056,0.809115219178,0.577512405726,0.0480452104973,0.0974866199809,-0.0977360886142,-0.262051950242,-0.0262581105046,0.00945303740636,0.0592513988439,-0.105118365445,5.03824043274,-3.92405390739,0.587284684181,0.981960535049,2.0519554615,-0.089998409152
2017/07/09/10:05:48.524678,433319,1499565951,328895877,,0.855399541036,-0.0459172343811,0.189993505373,0.809786062329,0.57675365754,0.0474059033827,0.0967183131365,-0.104193590386,-0.25779932893,-0.0349379548073,0.00993593890834,0.0783015533127,-0.185781037694,4.24989128113,-3.48349142075,0.187226071954,0.82720965147,1.67440128326,-0.116283223033
2017/07/09/10:05:48.534448,433320,1499565951,338901476,,0.85514687423,-0.0471089964614,0.189365004652,0.809767519048,0.576790963925,0.0476154686375,0.0965479993357,-0.101779556789,-0.235023263113,-0.0379599077786,0.0474074651176,0.0711582560379,-0.185526289128,5.44842147827,-2.1633617878,0.101485997438,0.569076895714,1.95995044708,-0.160254597664
2017/07/09/10:05:48.544355,433321,1499565951,348912807,,0.853763385867,-0.0500140405091,0.189205135805,0.810706459686,0.575582372446,0.0472292107894,0.0960696122681,-0.0992619641161,-0.216423084882,-0.0382962024257,0.0383141236579,0.0738741070795,-0.173308392074,4.50168228149,-2.84713554382,-0.014512848109,0.788987934589,1.67387270927,-0.0611633956432
2017/07/09/10:05:48.554402,433322,1499565951,358900136,,0.852756128957,-0.0524541941896,0.188962373499,0.810968330037,0.575232601792,0.0467559151418,0.0961857885175,-0.12183110089,-0.228807226247,-0.0586950019668,0.0373846962433,0.118665194691,-0.187764917582,3.87788677216,-2.86065006256,0.399995565414,0.800722658634,1.48557567596,-0.0256145820022
2017/07/09/10:05:48.564731,433323,1499565951,368897333,,0.851356180749,-0.0536107250448,0.18800575506,0.810697238445,0.57586098588,0.0461620060782,0.0949904295961,-0.121057374094,-0.237136065798,-0.0412977890845,0.0137228606528,0.10416274612,-0.0884367673889,3.15361213684,-1.92796087265,-0.268544316292,0.530931890011,1.31057560444,-0.0742714479566
2017/07/09/10:05:48.574584,433324,1499565951,378900377,,0.850106021558,-0.0564583933316,0.188013494501,0.810748493688,0.575839855373,0.0461126337316,0.0947046247857,-0.116524226802,-0.203922618687,-0.0435234199941,0.0107192710998,0.124298429079,0.0871717863915,2.92086720467,-1.94118618965,0.372580230236,0.404398053885,1.2873686552,-0.13490280509
2017/07/09/10:05:48.584282,433325,1499565951,388894526,,0.848805470161,-0.0584765193871,0.187030810645,0.809875367234,0.577201543953,0.0450631610111,0.0943905648128,-0.115841580549,-0.194205418216,-0.0556850755119,-0.00200494033063,0.144331933691,0.209926613058,3.73151779175,-2.19883394241,0.61807256937,0.346658706665,1.73533451557,-0.220969408751
2017/07/09/10:05:48.594506,433326,1499565951,398893011,,0.847477594209,-0.0591482981176,0.186018950223,0.809205608371,0.578423859975,0.0443782431912,0.0929660858806,-0.133108456669,-0.176101191405,-0.0629547276238,0.025478541326,0.193284815544,0.246204206157,6.33962535858,-0.855574548244,0.62865793705,-0.279529839754,2.76278924942,-0.561571657658
2017/07/09/10:05:48.604610,433327,1499565951,408899435,,0.846365973625,-0.0616564718936,0.186148939109,0.809295498155,0.578302359659,0.0442028989459,0.093023014378,-0.130855144507,-0.166214485684,-0.0662591580808,0.0476806525929,0.186977700115,0.155252355559,8.37207317352,-0.871672987938,2.0558385849,-0.417954027653,3.56943559647,-0.677483320236
2017/07/09/10:05:48.614546,433328,1499565951,418898661,,0.844894851942,-0.0638533127801,0.185213466574,0.809713249113,0.577884172006,0.0435034780076,0.0923135166539,-0.128271431209,-0.203855551888,-0.0493457713179,0.0159461172633,0.14146081669,0.0202566246494,7.8096075058,-0.666702508926,1.70432722569,-0.403277367353,3.37371134758,-0.626803636551
2017/07/09/10:05:48.624562,433329,1499565951,428894337,,0.844031180747,-0.0661617017086,0.184935823519,0.809636142727,0.577978244824,0.0428624918545,0.0926999012517,-0.124724474674,-0.203266973333,-0.0581949255702,-0.0178047763419,0.148724187412,-0.00504815954446,6.76918983459,-1.69421577454,1.78732407093,-0.0042753778398,2.95995736122,-0.472710609436
2017/07/09/10:05:48.634540,433330,1499565951,438901007,,0.842976640124,-0.0671518139069,0.184262698938,0.809611534733,0.578177612643,0.042199678092,0.0919728124801,-0.127150557421,-0.20761150976,-0.0564068747548,-0.0408483178141,0.15999063168,0.0100486120394,4.6873755455,-1.15747880936,1.26839327812,0.0628300383687,2.0481004715,-0.363208651543
2017/07/09/10:05:48.644428,433331,1499565951,448901523,,0.841448808883,-0.0698816843321,0.183820558798,0.809776371301,0.578035644181,0.0415807392358,0.0916954996909,-0.13085722171,-0.216977047867,-0.0578784121015,-0.0424888968549,0.156913684711,-0.015917934812,3.84406757355,-2.29336094856,1.52169656754,0.425807625055,1.69042980671,-0.281611770391
2017/07/09/10:05:48.654454,433332,1499565951,458905976,,0.840923645157,-0.0711145683425,0.183961747743,0.809478649785,0.578453301439,0.0413803943867,0.0917810250353,-0.128859795637,-0.234632274191,-0.0463453654528,-0.0323572867358,0.1236759727,-0.0307940133626,4.43519830704,-2.06331729889,1.85276579857,0.526361703873,1.84281790257,-0.256450802088
2017/07/09/10:05:48.664146,433333,1499565951,468939345,,0.839697812405,-0.0726508121658,0.182889890904,0.809415879309,0.578702966329,0.0407019160163,0.0910613261322,-0.100833969982,-0.195526634668,-0.029751549,-0.0103881717161,0.0748538878481,0.0360022051696,4.07829332352,-1.26703500748,0.910876870155,0.238856196404,1.72276437283,-0.290287494659
2017/07/09/10:05:48.674747,433334,1499565951,478900980,,0.838707518444,-0.0735661119315,0.182390583631,0.80920412337,0.579146843104,0.0406573409324,0.090136571219,-0.0910768065199,-0.139644339509,-0.0611220351109,0.0493559622182,0.101352083725,0.069694674941,5.74127435684,-1.64214146137,1.41074693203,0.369555026293,2.39644217491,-0.342113494873
2017/07/09/10:05:48.684577,433335,1499565951,488923835,,0.838058227835,-0.0759298641492,0.182321139459,0.809436880229,0.578765759571,0.0408288271793,0.0904164771751,-0.0838021461562,-0.14012291333,-0.04363083146,0.0657347432246,0.0633736423133,0.0658681936717,4.63218021393,-2.02646231651,1.39365744591,0.293929636478,2.00380897522,-0.315680027008
2017/07/09/10:05:48.694558,433336,1499565951,498901721,,0.837330843214,-0.0766878214354,0.181789439449,0.809076374565,0.579394530954,0.0408003669201,0.0896254856652,-0.0966603314543,-0.158167451498,-0.0368312537777,0.041874490879,0.0797850019689,0.0300452103211,3.49486923218,-1.05741548538,1.16464328766,0.0716395676136,1.43018269539,-0.235347703099
2017/07/09/10:05:48.704382,433337,1499565951,508899766,,0.836081947085,-0.0785294559328,0.181507117294,0.809146155928,0.579381614293,0.0403825883976,0.0892675188436,-0.0969182768013,-0.155629953139,-0.0335373139411,0.0410286291365,0.0835130895249,0.0103947380616,4.26055192947,-1.75891530514,1.26382517815,0.142975971103,1.77567744255,-0.265941679478
2017/07/09/10:05:48.714177,433338,1499565951,518899974,,0.835221291464,-0.080048569314,0.180964660638,0.808950784278,0.579720603362,0.0396108955881,0.0891831127791,-0.0977678678967,-0.146157456771,-0.0391052661554,0.0192569968538,0.105947766348,0.0784249045947,1.30800139904,-0.81500440836,0.931863188744,-0.192452698946,0.53293299675,-0.198677152395
2017/07/09/10:05:48.724785,433339,1499565951,528907366,,0.834157889707,-0.0809987287259,0.180115036345,0.80857030535,0.580411334408,0.039470264723,0.0881977460078,-0.0892759160902,-0.134823604617,-0.0422283449526,-0.00235876100373,0.11081459077,0.112297185561,2.26644349098,-0.405819386244,1.14174747467,-0.306157499552,0.879222035408,-0.282074153423
2017/07/09/10:05:48.734795,433340,1499565951,538899351,,0.833658476721,-0.0825498694624,0.180296137393,0.807783395467,0.581462740882,0.0390108333154,0.0886860860385,-0.0899603832352,-0.123413868968,-0.0357988556433,0.0042900846105,0.113066916637,0.111490065145,3.14900565147,-0.968415141106,1.2144370079,-0.128707289696,1.17574095726,-0.285945892334
2017/07/09/10:05:48.744577,433341,1499565951,548896358,,0.83295357353,-0.0840103010941,0.179972718588,0.808064622047,0.58111951324,0.0389692727763,0.0883915929612,-0.101139494084,-0.153130741461,-0.0399030401031,0.00822339854774,0.109322544484,0.072312365247,4.4915266037,-1.65147030354,1.1168409586,0.187555491924,1.64617729187,-0.277912646532
2017/07/09/10:05:48.754439,433342,1499565951,558895821,,0.832187490175,-0.0857043037717,0.179945657918,0.808236988101,0.58087967436,0.0386708561827,0.0885231035554,-0.0816282606888,-0.147152785634,-0.041830172892,-0.0159133712624,0.0835845127031,0.0747993638673,5.67556095123,-2.12968444824,1.35956192017,0.449923574924,2.16921448708,-0.301177978516
2017/07/09/10:05:48.764448,433343,1499565951,568893911,,0.831549039609,-0.0866979241665,0.179494045838,0.807534724078,0.581926002912,0.0384191039315,0.0881689797831,-0.0649548088103,-0.1359979876,-0.0264785374131,-0.0389436911927,0.0582890466745,0.112313100156,4.14290189743,-1.62803423405,0.984671413898,0.161266446114,1.7503657341,-0.327737182379
2017/07/09/10:05:48.774721,433344,1499565951,578901770,,0.830335021338,-0.0878434547667,0.178890972461,0.807300939017,0.582394543115,0.0378462014985,0.0874611630645,-0.0606822509165,-0.127301974725,-0.0203572720501,-0.0201365211261,0.0433978767208,0.131982948619,2.3143620491,-0.9946205616,0.548837482929,-0.00628203898668,1.16536045074,-0.277641057968
2017/07/09/10:05:48.784621,433345,1499565951,588893991,,0.830285792796,-0.088425235099,0.178923636782,0.80635883792,0.583676741508,0.0379159795027,0.0875743365832,-0.0720568328843,-0.131012109917,-0.0317518458812,-0.0256853413389,0.077536111176,0.163195551058,1.69130039215,0.102802813053,0.676222801208,-0.239322334528,0.848835527897,-0.273253560066
2017/07/09/10:05:48.794281,433346,1499565951,598903672,,0.829391531084,-0.0902127557338,0.178609147194,0.806422979189,0.58361295774,0.0373728635678,0.0876422458806,-0.0691593852414,-0.0994416486033,-0.0335043052303,0.00509616457794,0.0899591788732,0.15503235378,0.195030227304,-0.239935040474,0.729703128338,-0.343390226364,0.398299813271,-0.243935972452
2017/07/09/10:05:48.804431,433347,1499565951,608894527,,0.828412626686,-0.0904966678204,0.177950273141,0.805804894525,0.584632830385,0.0364563447251,0.0869129479705,-0.0867798423043,-0.107954569406,-0.0303103384948,-0.0235470453268,0.132843078017,0.166505497814,0.77344673872,-0.263708055019,0.482496023178,-0.173725068569,0.522807180882,-0.203194215894
2017/07/09/10:05:48.814299,433348,1499565951,618901647,,0.828004787953,-0.0912849348358,0.178073744575,0.805428433457,0.585171056643,0.0367210805717,0.086668536898,-0.0750537701833,-0.0649432287317,-0.0433536344684,0.00737344924649,0.135111750641,0.191354601899,1.43361699581,-1.10092437267,1.58610510826,0.0981509238482,0.778916358948,-0.124872237444
2017/07/09/10:05:48.824738,433349,1499565951,628893733,,0.827633186969,-0.09158643398,0.177623264626,0.804963428111,0.585863699958,0.036293291572,0.0864893141504,-0.0828480606034,-0.0891788242246,-0.0347321322932,0.00624174713504,0.124451196211,0.0946024392848,2.2674446106,-1.18271815777,1.15598320961,0.14507098496,0.946364462376,-0.185113459826
2017/07/09/10:05:48.834697,433350,1499565951,638900413,,0.826992884949,-0.0921039429064,0.17731135509,0.804837100406,0.5861266687,0.0360397320904,0.0859878349551,-0.0792374630427,-0.0918140354035,-0.042667733453,0.0115917777615,0.115390123695,0.0552115051925,2.65444922447,-0.994925022125,0.802237510681,0.180397778749,0.968288183212,-0.16124778986
2017/07/09/10:05:48.844523,433351,1499565951,648897698,,0.826184360717,-0.0926948528762,0.176494710218,0.805287649323,0.585638586105,0.0358076237993,0.0851883935145,-0.0623016605791,-0.0778079150339,-0.033199044174,0.0109225694614,0.0863130036348,0.0280697566834,2.87457275391,-0.486402750015,0.574763774872,0.055538892746,0.979582548141,-0.168904721737
2017/07/09/10:05:48.854170,433352,1499565951,658895831,,0.826178304002,-0.0936669216361,0.176608299965,0.805449688486,0.585340379579,0.0356903782696,0.0857533454226,-0.0397284026152,-0.0407133839951,-0.0287576757378,0.0298191410172,0.0618196186372,-0.00831579770568,1.89336884022,-0.77039372921,0.609984755516,-0.0803462788463,0.636685073376,-0.191497370601
2017/07/09/10:05:48.864167,433353,1499565951,668895494,,0.8256857727,-0.094654339583,0.176048053609,0.80581209993,0.584878143676,0.0357352966972,0.0854833622739,-0.0245336000856,-0.0564052365661,-0.0141990287561,0.0350818916219,-0.00633161155161,-0.0941147810808,1.75251126289,-0.9097687006,0.519361615181,-0.0642636939883,0.597481667995,-0.146147608757
2017/07/09/10:05:48.874854,433354,1499565951,678902100,,0.825572325981,-0.0945355408068,0.176048707688,0.805667034335,0.585113083378,0.0358854334746,0.0851794876111,-0.0448705649701,-0.0997643160348,-0.0286423661106,0.0221492375706,0.00877833718143,-0.116831387177,2.64574885368,-0.747319996357,0.360011428595,-0.064567476511,0.966730415821,-0.141997873783
2017/07/09/10:05:48.884369,433355,1499565951,688895698,,0.824723157018,-0.0954760535843,0.175432272619,0.80553180978,0.585385640109,0.0354715449287,0.0847580396644,-0.0338648502374,-0.0674084548268,-0.0308617511669,0.0269767040164,0.0157342031014,0.0154248985747,2.31197309494,-1.05915272236,0.10207888484,0.0375603735447,0.933512806892,-0.137912780046
2017/07/09/10:05:48.894256,433356,1499565951,698897472,,0.824848760523,-0.0967470777342,0.175721130675,0.805172644306,0.585764818704,0.0358873407019,0.0853738180441,-0.0333005395214,-0.0467539601725,-0.0388864822951,0.00953566893783,0.0534097130182,0.130578965788,2.1125190258,-0.965038061142,0.723839104176,-0.00805358961225,0.780046582222,-0.118833139539
2017/07/09/10:05:48.904537,433357,1499565951,708895650,,0.824395767745,-0.0966382795827,0.175465856946,0.804697932267,0.586510490383,0.0354998519004,0.084890770937,-0.0247830419951,-0.0424802811949,-0.024445695052,-0.0186588291817,0.0423219454365,0.166610341002,0.161311298609,-0.584709823132,0.715032994747,-0.103857599199,0.0574994646013,-0.0240994133055
2017/07/09/10:05:48.914577,433358,1499565951,718902331,,0.824472741624,-0.0972718100905,0.175706467777,0.804601999175,0.586565821769,0.0353492511382,0.0854785943958,-0.0335114881812,-0.0599327692791,-0.017076356979,-0.0276063750957,0.0432279106975,0.108826604645,0.247556805611,-0.0572133474052,1.07255852222,-0.211198508739,0.040425144136,-0.0597159974277
2017/07/09/10:05:48.924802,433359,1499565951,728900572,,0.824097654458,-0.0970021174829,0.174793802158,0.804255889904,0.587156682395,0.034964137506,0.0848351516932,-0.0214188423712,-0.0376191792131,-0.0208493795928,-0.0234078383671,0.0334734420509,0.0808641429603,1.14916574955,-0.141421571374,0.575723111629,-0.0679929107428,0.355210721493,-0.0711302086711
2017/07/09/10:05:48.934532,433360,1499565951,738900287,,0.82395207916,-0.0975094282919,0.174567781237,0.803955165491,0.58756238621,0.0348973275996,0.0849041266264,-0.0385068277132,-0.0258622772937,-0.0451464438974,0.00429455708714,0.0910325610865,0.0633559438794,1.79965007305,-1.22058069706,0.83850222826,0.306087076664,0.54439240694,0.0175637491047
2017/07/09/10:05:48.944488,433361,1499565951,748900663,,0.823289746819,-0.0981247265867,0.174545036689,0.804344708427,0.587101568032,0.0345252732628,0.0845537955751,-0.0411841201088,-0.0407702798067,-0.0392432548343,-0.00134196699481,0.0767745228041,0.0314185072406,1.88066828251,-1.95919835567,1.02706646919,0.474398851395,0.639938771725,-0.00823009386659
2017/07/09/10:05:48.954502,433362,1499565951,758897785,,0.822877548196,-0.0983679127296,0.173874519114,0.804206505031,0.58736499976,0.0342082539944,0.0841667967863,-0.0376328719282,-0.0409497758355,-0.0191228492243,0.0208822436149,0.0549451726539,-0.016496241975,2.08624100685,-1.63643479347,0.162647306919,0.404868245125,0.701835095882,0.0165389906615
2017/07/09/10:05:48.964440,433363,1499565951,768899614,,0.822885429309,-0.0984521136582,0.173570770444,0.804616946536,0.586809662153,0.034303301088,0.0840789705324,-0.0362700178606,-0.0354726561196,-0.0339758526585,0.0152554356226,0.062295009272,-0.0124594304451,3.42028355598,-1.06709551811,0.526026844978,0.284343719482,1.12484323978,-0.0794943869114
2017/07/09/10:05:48.974736,433364,1499565951,778918419,,0.822703325005,-0.0986277208885,0.17330719574,0.804582518377,0.586891754423,0.034479508832,0.0837627792283,0.0110749308436,0.0115183818753,-0.0197708537453,0.0309111358399,-0.00924718741096,0.00973383146464,3.52316212654,-1.55471754074,0.275132834911,0.39768654108,1.23365020752,-0.0654933080077
2017/07/09/10:05:48.984444,433365,1499565951,788900361,,0.823115218889,-0.0980956289114,0.173331559396,0.804228996538,0.587347399449,0.0346017276427,0.0839134907642,0.00958108188508,0.013186357915,-0.0238611072717,0.0244419834199,-0.00471741649049,0.00302477998334,2.41841745377,-0.980826437473,0.768195211887,0.221582517028,0.786758124828,-0.0456629768014
2017/07/09/10:05:48.994376,433366,1499565951,798901584,,0.822745480254,-0.0981358631208,0.172551559712,0.8044128796,0.587182570772,0.034231548266,0.0834550706567,0.00497286713479,-0.0145515262853,-0.00357742143579,-0.00606394252513,-0.0217585601117,-0.0315548605623,0.511404514313,-0.692551732063,0.00820063054562,0.161712691188,0.0721737593412,0.0119628421962
2017/07/09/10:05:49.004455,433367,1499565951,808901361,,0.822627103294,-0.0987324958382,0.172333678224,0.804631608142,0.586879652791,0.0342511103201,0.0834692144479,0.00763042208264,0.00617966308875,-0.0154792129468,0.0149660766843,-0.00639153957041,0.0132412830663,1.4878320694,-1.79145073891,-0.0803434103727,0.53328371048,0.490373283625,0.0488137900829
2017/07/09/10:05:49.014229,433368,1499565951,818900600,,0.822602326844,-0.0991426797015,0.172333111896,0.804551973532,0.58695449087,0.0340334077183,0.0837990136714,-0.0159745288742,-0.0251166500921,-0.0376223725669,-0.000731407042513,0.0374726768517,-0.015628113921,2.19438242912,-1.77677321434,0.0359102636576,0.639220237732,0.756897568703,0.0472287833691
2017/07/09/10:05:49.024770,433369,1499565951,828908183,,0.822861006055,-0.0993231405925,0.173081116688,0.804542192351,0.586881061848,0.034269282058,0.0843095266171,-0.00509646912946,-0.01645171002,-0.0202578816761,-0.00695127359277,0.0128121099914,-0.00344186970229,2.01936650276,-1.38017082214,0.686757266521,0.412942558527,0.721226096153,-0.0219042301178
2017/07/09/10:05:49.034554,433370,1499565951,838899826,,0.822790283405,-0.0983718583068,0.172299489538,0.804467923762,0.587104579487,0.0341319843521,0.0835139510904,0.00316539059342,-0.00796653947053,-0.0143103803485,0.00437641069179,-0.00653265654381,-0.0227792115694,0.768951892853,-0.533419430256,0.300631999969,0.198155194521,0.246446847916,0.00649048574269
2017/07/09/10:05:49.044479,433371,1499565951,848900776,,0.823073801282,-0.0992202584475,0.172340712759,0.804700399421,0.586684957709,0.0343133447957,0.0841464315293,0.00693760232867,0.00298986339269,-0.0140613502955,-0.00481248084799,-0.0019503684775,0.00486301095376,1.25043880939,-0.773788034916,0.629856944084,0.256670892239,0.43478423357,-0.0222054794431
2017/07/09/10:05:49.054488,433372,1499565951,858901385,,0.823056285603,-0.0990251059553,0.172151803079,0.804570201268,0.586872031353,0.0344521219746,0.0840301216198,0.00483905095973,-0.00297759192739,-0.0229195581145,-0.0176552526719,0.00852056390275,0.0153629583262,1.74963247776,-1.0421462059,1.294485569,0.426281571388,0.6579246521,-0.00160390324891
2017/07/09/10:05:49.064359,433373,1499565951,868895147,,0.823268467129,-0.0981214657699,0.171873910885,0.803950761872,0.587766478809,0.0341242308172,0.0838407761502,0.00127163015291,0.0110764685942,-0.0314313621908,-0.00708513734769,0.02958049106,0.0358834681614,1.5838470459,-0.63616335392,0.855329155922,0.348206013441,0.615815341473,-0.0364044904709
2017/07/09/10:05:49.074820,433374,1499565951,878943498,,0.82297371451,-0.0979492212993,0.171116113838,0.804098426782,0.587662476417,0.0341897043575,0.0831239915694,0.000338781525702,0.00958149829891,-0.0243419856281,-0.00197034364738,0.0220151447939,0.0285126313167,1.73494768143,-0.65040063858,0.580402970314,0.389398366213,0.698447167873,-0.0166540294886
2017/07/09/10:05:49.084570,433375,1499565951,888893496,,0.823316910667,-0.098508515102,0.171772141101,0.804081558538,0.587560344559,0.0342451471395,0.0839818945786,-0.0119267881155,0.0158768296967,-0.0253199524935,0.0270277764741,0.0470576652838,0.00511591627032,2.20476770401,-1.15029299259,1.49133896828,0.463054835796,0.856456279755,-0.0451259501278
2017/07/09/10:05:49.094846,433376,1499565951,898906167,,0.822760781898,-0.0986800540746,0.171529889104,0.804142196746,0.587556794312,0.0336239175119,0.0836765979343,0.00753960610073,0.0137039193223,-0.00465955250391,0.00465219296293,0.000708991707738,0.0153437242675,1.37000048161,-1.1810041666,0.927360236645,0.391638785601,0.622415721416,-0.0424476116896
2017/07/09/10:05:49.104423,433377,1499565951,908921296,,0.823301692591,-0.0973883352419,0.171089073373,0.804228967638,0.587487228421,0.0341541171597,0.0831145013515,0.00154162153288,0.0171192112672,-0.0142966395963,0.0100228241054,0.020740003327,0.00134286267554,1.78944051266,-0.711184203625,0.632580280304,0.34016007185,0.669820725918,-0.020050495863
2017/07/09/10:05:49.114417,433378,1499565951,918901371,,0.823043593034,-0.0980040479007,0.171238313834,0.80423868995,0.587462980214,0.0337970528103,0.0833374806805,-0.0109357317852,0.0139064970085,-0.0258644427316,0.013571577284,0.0500765040795,0.011841781575,2.54674625397,-2.11187791824,0.888035416603,0.666337788105,0.998001754284,-0.00528503581882
2017/07/09/10:05:49.124837,433379,1499565951,928901818,,0.823495054685,-0.0972066328652,0.171002535072,0.803838068803,0.588011492074,0.0340006388228,0.0832514317717,-0.00911466355204,-0.0116793118276,-0.00660985657434,0.00580551391523,0.0174452959485,-0.019520217159,2.5094397068,-0.613457083702,0.617378532887,0.35429340601,0.839021384716,-0.0317709110677
2017/07/09/10:05:49.134325,433380,1499565951,938900099,,0.82259864711,-0.0980660873003,0.170620954045,0.804326491773,0.587426717751,0.0335160126724,0.0828578469408,0.00765044529561,0.0107577145161,-0.0174083345613,0.00587886271328,0.00307157677133,0.0278413094415,2.04093670845,-1.36333847046,0.422826558352,0.501472234726,0.791686177254,-0.0246136784554
2017/07/09/10:05:49.145561,433381,1499565951,948894710,,0.822434167348,-0.0978584339683,0.170193738907,0.804385304791,0.587407999652,0.0336421986903,0.0823670191809,-0.00157040508999,-0.00171407063246,-0.00818589565597,0.0159490880755,-7.41206309716e-05,-0.015721162775,1.33121168613,-0.984138011932,0.300718218088,0.38349416852,0.527837574482,-0.00490258447826
2017/07/09/10:05:49.154356,433382,1499565951,958900483,,0.822732838109,-0.097615143233,0.170578664714,0.80420593056,0.587589450566,0.0333919860532,0.082924267278,-0.00770153054688,0.000925151639185,-0.0120101703729,0.0046562666429,0.0218042416742,-0.000540283213354,2.61872434616,-1.19498813152,0.840151667595,0.475995957851,1.02641427517,-0.0739930719137
2017/07/09/10:05:49.164407,433383,1499565951,968927747,,0.822892571476,-0.0977813111219,0.170508721811,0.804162907467,0.587621234456,0.0336475518453,0.0830129226434,-0.00231756126723,-0.00285219534182,-0.0150361832208,-0.0114856358606,0.0175117146134,-0.00297538627439,2.58398342133,-1.23694109917,1.18435502052,0.472466468811,1.02549433708,-0.0524953603745
2017/07/09/10:05:49.174706,433384,1499565951,978899401,,0.822933451123,-0.0977451087107,0.170683790259,0.804011425643,0.587823213504,0.0336146779497,0.0830635330795,-0.00576693583621,-0.0106075104292,-0.00708730422939,0.00876448126627,0.00627165324428,-0.0197588326131,2.08755707741,-1.03136479855,1.15794610977,0.452610194683,0.805780410767,-0.0169756952673
2017/07/09/10:05:49.184475,433385,1499565951,988893918,,0.823167272452,-0.098228107295,0.170478550879,0.804273307558,0.587411082064,0.0338882494403,0.0833321904722,0.0143142590898,0.00902529423818,0.00406522977033,0.00633449399622,-0.0274624584891,0.0110722484505,1.25891017914,-1.4381633997,1.14852952957,0.521235764027,0.540566802025,0.00620616227388
2017/07/09/10:05:49.194826,433386,1499565951,998893368,,0.822824937322,-0.0982367123956,0.170284850229,0.80428223973,0.587460761257,0.0338098759763,0.082926624949,0.00400935126492,-0.0030676979144,-0.0030541609556,0.00206269320352,-0.0130766723217,-0.0091707014764,1.33495616913,-1.12342953682,0.853088676929,0.398079872131,0.619550406933,-0.0221171863377
2017/07/09/10:05:49.204369,433387,1499565952,8901284,,0.822945273584,-0.0975721281729,0.170109910418,0.804400925368,0.587337462572,0.0340755222625,0.0825391731758,-0.00563505205737,0.0102696445158,-0.0235360478041,0.0235158782465,0.0272519228019,0.0184380435376,1.74405097961,-0.974583685398,0.904473662376,0.435381740332,0.753266513348,-0.0474995039403
2017/07/09/10:05:49.214526,433388,1499565952,18894366,,0.822921420631,-0.0973921244212,0.169994890075,0.804056195416,0.587818683958,0.0336520547025,0.0826460441743,0.00154778623718,0.0173098078877,-0.00985060272357,0.01387296065,0.0126374306961,0.00739546108815,1.97403967381,-0.971891760826,0.963391065598,0.4442448318,0.809286475182,-0.0116408159956
2017/07/09/10:05:49.224815,433389,1499565952,28897015,,0.82301794609,-0.0979568991424,0.170367739806,0.804367870594,0.587320147985,0.0338080430801,0.0830926516046,0.0112065262548,-0.00567911749264,0.00166347158647,-0.0191573531013,-0.0262869164563,0.00240469733514,1.99088120461,-1.64616703987,1.23534965515,0.623731315136,0.896595716476,-0.0063713490963
2017/07/09/10:05:49.234668,433390,1499565952,38898217,,0.823092157598,-0.0976825584118,0.170179190144,0.804185784696,0.587591415189,0.0340005513441,0.0828584032961,0.00299579115778,0.00211218932617,-0.00931199145435,0.00580461385935,-0.00380317640199,0.00884117872667,3.22093200684,-1.9567399025,1.03144800663,0.745989978313,1.40244603157,-0.0326268449426
2017/07/09/10:05:49.244509,433391,1499565952,48898124,,0.823035193042,-0.097851054633,0.170019865837,0.80384768334,0.588041322293,0.0335259252043,0.0831403488354,0.00791245390463,-0.0103618244307,-0.00555100999739,-0.025417466191,-0.0154415175654,-0.000176782874139,2.75719547272,-1.76177442074,1.22365868092,0.651249110699,1.23365211487,-0.0463328994811
2017/07/09/10:05:49.254546,433392,1499565952,58901818,,0.823512253041,-0.0978020157041,0.170360956546,0.803897113486,0.587902176707,0.0341463092242,0.0833935915944,0.00877657341682,-0.00181895597772,0.00601471301642,-0.0128976661281,-0.0164100084586,0.0112421146366,2.69324159622,-1.38403320312,0.904848635197,0.556478798389,1.18450200558,-0.0813495963812
2017/07/09/10:05:49.264437,433393,1499565952,68897639,,0.823029472127,-0.0981792495814,0.170452552313,0.80417638427,0.587572332504,0.0337651144713,0.0831806113402,0.000913085670373,0.0140208102835,-0.0055560273203,0.01802998809,0.00867460183981,0.00769948879977,2.40700316429,-1.76333510876,1.52244198322,0.606204748154,1.13591635227,-0.0350534394383
2017/07/09/10:05:49.274820,433394,1499565952,78912823,,0.823331663701,-0.0976163455764,0.170357112733,0.803828687943,0.588034650173,0.0336387080306,0.0833254340419,0.0104888742906,-0.00898334227284,0.0150974364864,-0.00580109370834,-0.0389089713308,-0.00423123665895,1.29520392418,-0.58369833231,0.531952559948,0.338588893414,0.660379230976,-0.0457912683487
2017/07/09/10:05:49.284557,433395,1499565952,88897394,,0.823627592753,-0.0969860454308,0.170035279115,0.803940191082,0.587907105198,0.0341913257755,0.0829238087815,0.00872326005331,0.0106921007085,-0.00594918650115,0.0132671917807,-0.01064543907,0.00973131715266,2.94015526772,-0.85374891758,0.951542973518,0.51040995121,1.235435009,-0.0759481117129
2017/07/09/10:05:49.294464,433396,1499565952,98900910,,0.82333737691,-0.0970829596717,0.170271044096,0.804082588857,0.587745979573,0.0341887382276,0.0826860566906,0.0106675773818,0.0141877160943,-0.0100609773569,0.00953142457836,-0.00831179858126,0.00368382585363,2.46021389961,-1.29250323772,0.814195692539,0.530698478222,1.17846775055,-0.0750830471516
2017/07/09/10:05:49.304219,433397,1499565952,108894622,,0.823246519032,-0.0982158803083,0.169971417269,0.804140196045,0.587591333474,0.0340635047904,0.0832745313615,0.00127708375839,-0.00399242381548,-0.00063043148221,-0.0037519779652,-0.00206577906676,-0.00562296004471,1.97691142559,-1.54911077023,0.804888784885,0.557859182358,0.966566503048,-0.04992172122
2017/07/09/10:05:49.314531,433398,1499565952,118895801,,0.823321074069,-0.097436060181,0.169470736825,0.804109452303,0.587702409088,0.0341094694485,0.0827672106741,0.000482667555727,0.00541750694205,-0.00731433936879,0.0149747884631,0.000994621492081,-0.00378593472313,1.36325252056,-1.32214784622,0.701305866241,0.481363981962,0.754333972931,-0.01799922809
2017/07/09/10:05:49.324715,433399,1499565952,128897543,,0.823560544428,-0.0978497601872,0.170170932489,0.803927755785,0.587856830783,0.033763297285,0.0835736186676,-0.00357491827097,-0.00916728485946,-0.00169998203459,-0.0124432783183,0.00621716430716,-0.0213480372632,2.30255818367,-1.38441383839,0.85530090332,0.563485860825,1.04749321938,-0.0336091183126
2017/07/09/10:05:49.334426,433400,1499565952,138898134,,0.823679882574,-0.097690494351,0.170307820834,0.804008465581,0.587738882833,0.0341918667202,0.0834524363293,-0.00460545539825,-0.0121680186852,0.0054488976158,-0.0266435643433,0.0063249715477,0.00617777139601,2.29431343079,-0.951783001423,1.16675519943,0.508161127567,0.998042166233,-0.0342159718275
2017/07/09/10:05:49.344477,433401,1499565952,148896633,,0.823252336444,-0.0978495017341,0.170048226026,0.804365039578,0.587313701207,0.0338756338091,0.0831380834079,0.00594783839486,-0.00252161464383,0.0124145300517,-0.0187884495511,-0.0171885254994,0.00241193766859,2.17662096024,-1.24273014069,0.892964482307,0.566605746746,1.03903663158,-0.0524796135724
2017/07/09/10:05:49.354371,433402,1499565952,158894868,,0.823020342684,-0.0988449589463,0.169783153627,0.804283352461,0.587391760201,0.0336333037228,0.0834746062145,-0.00607667102079,-0.0054013371251,-0.0116799076302,-0.00426611045381,0.0180849441035,0.00125151477623,1.90571904182,-1.94160795212,0.408550798893,0.659764528275,0.965528905392,-0.0300007984042
2017/07/09/10:05:49.364636,433403,1499565952,168897116,,0.823241215761,-0.0977253183454,0.169793980697,0.804080065562,0.587726610508,0.0337669331789,0.0830209232009,-0.00548829487809,0.0139600643301,-0.0111776932178,0.00953615083419,0.0285063699113,0.0298852403201,1.98559737206,-1.34541237354,0.719716250896,0.489562362432,0.935968458652,-0.0605165325105
2017/07/09/10:05:49.374598,433404,1499565952,178900786,,0.823011637457,-0.0977433608723,0.170006723112,0.803919876816,0.587967827109,0.0333120722488,0.083048008929,0.00610119901823,-0.00483451484756,0.0169115047938,-0.0300837406955,-0.0140920932111,0.0107174648432,1.7422516346,-1.33209121227,0.557782709599,0.512249946594,0.838525772095,-0.0470530204475
2017/07/09/10:05:49.384404,433405,1499565952,188895356,,0.823154933436,-0.0975361545567,0.169701549738,0.804105289074,0.587721302585,0.0334054933528,0.0829603976893,-0.00578946981919,-0.0135866266238,-0.00294062708093,-0.0419496254254,0.0220660498272,0.00392288500392,2.3164536953,-1.43908989429,0.452662348747,0.533397316933,1.05849897861,-0.0524018742144
2017/07/09/10:05:49.394516,433406,1499565952,198892593,,0.822548532427,-0.0985266858102,0.169580307759,0.804236768205,0.587562058366,0.0332058689547,0.0828940197113,-0.00712082787995,-0.0214771913516,-0.00129811377215,-0.0299281206099,0.0110864304439,-0.0267214616072,1.83762657642,-1.82884967327,0.482627004385,0.629755795002,0.876839756966,-0.0223573967814
2017/07/09/10:05:49.404298,433407,1499565952,208901223,,0.822746914706,-0.098386053073,0.17005233122,0.804170932527,0.58761176068,0.0331308105532,0.0832098514746,-0.000374513095699,-0.00736720675464,0.0125573836516,-0.0284175455971,-0.00192726790621,-0.00078399532547,1.93050050735,-1.29093515873,0.521932959557,0.480342745781,0.928242325783,-0.0408562719822
2017/07/09/10:05:49.414362,433408,1499565952,218899702,,0.822952909051,-0.0987787155526,0.169778407453,0.80413419703,0.587599880143,0.0329396420764,0.0837230792664,-0.00104589019505,0.00493641218005,-0.00425367298266,-0.00394419642792,0.0120655877013,0.00166943562954,2.15890336037,-1.76584124565,0.366435110569,0.634786248207,0.983652353287,-0.028576977551
2017/07/09/10:05:49.424516,433409,1499565952,228896026,,0.822892599311,-0.0988581194137,0.169740443235,0.804095600567,0.587659089692,0.0329314193239,0.0836814260907,-0.00490062412504,-0.00991283212744,-0.0192695739977,-0.0105530046637,0.0181840835589,-0.00773587112814,2.95884513855,-1.45349979401,0.439239174128,0.511136710644,1.28714239597,-0.114245772362
2017/07/09/10:05:49.434474,433410,1499565952,238893804,,0.822834249163,-0.0986866171986,0.169615325715,0.804114466693,0.587654323013,0.0328414573267,0.0835688924183,-0.00355125341584,-0.00962696460497,-0.00636491872593,-0.0265267049036,0.0127185512758,0.00715507222598,1.31728816032,-1.55741286278,0.760420084,0.578523993492,0.688438594341,-0.00372695550323
2017/07/09/10:05:49.444425,433411,1499565952,248912921,,0.822638685466,-0.0988055457338,0.169491260318,0.804020525286,0.587803757354,0.0327039314382,0.0834756888388,0.00746669656664,0.0057329926583,-0.00378958193268,-0.0198595092267,-0.000206379197704,0.0125602659088,2.13377451897,-1.78027915955,0.723812639713,0.701450288296,1.00319516659,-0.0191468819976
2017/07/09/10:05:49.454436,433412,1499565952,258922183,,0.823242280318,-0.0982317213114,0.169984736055,0.804034775241,0.587730553232,0.0331049976633,0.0836954964787,-0.00405207786148,0.00239367681728,-0.0099222133219,-0.00928335407546,0.0225115040928,0.019332709563,2.62813162804,-1.11683273315,0.437600791454,0.473101913929,1.1802842617,-0.0947752594948
2017/07/09/10:05:49.464406,433413,1499565952,268923901,,0.823031712033,-0.0983166669556,0.169652389198,0.803814912281,0.588057687014,0.0328331769846,0.0836165415923,-0.000496360727003,0.0112516066576,-0.011839609879,0.00219784207931,0.0192135210094,0.0229259561692,1.90685200691,-1.08980727196,0.959875226021,0.451490610838,0.856582522392,-0.0677830129862
2017/07/09/10:05:49.474729,433414,1499565952,278899548,,0.822744839835,-0.0980951460672,0.169346556077,0.803899264436,0.588021822174,0.0325578980734,0.0831642504889,-0.00593407186198,0.00668112116967,-0.00272075761217,-0.00253187057013,0.0272082177459,0.017376432317,1.22693550587,-0.538175404072,0.468595802784,0.306079894304,0.629811108112,-0.0408605709672
2017/07/09/10:05:49.484183,433415,1499565952,288894067,,0.822651206358,-0.0990286624921,0.169516181567,0.803937940914,0.587900380016,0.0322645041265,0.0837611611049,-0.00431521917122,-0.00371835912132,-0.00650985099556,-0.0350706410068,0.0266436103674,0.0227511865298,2.3951690197,-1.66130912304,0.873188078403,0.527327120304,1.11371064186,-0.0812641605735
2017/07/09/10:05:49.494456,433416,1499565952,298900942,,0.823045503291,-0.0977831165664,0.169338338152,0.803493362574,0.588548243845,0.032513677326,0.0833801040602,-0.0110981809871,-0.0316442133162,-0.00408934532919,-0.0451427497835,0.016649587226,-0.0155800724829,2.14088559151,-0.60116058588,0.500951111317,0.401414185762,0.925367712975,-0.0731981098652
2017/07/09/10:05:49.504271,433417,1499565952,308894058,,0.822871658367,-0.0984271667613,0.169539392602,0.803694444167,0.588230492296,0.0324105239023,0.0837238692928,-0.00420752576668,-0.0158676560477,0.00639210013066,-0.0287177905454,0.00209514533538,-0.0145473368934,2.10373139381,-1.72940969467,0.807133615017,0.624649226665,0.997450947762,-0.0261556562036
2017/07/09/10:05:49.514337,433418,1499565952,318901176,,0.822232296754,-0.0992490630901,0.169301644889,0.804094165398,0.587735640747,0.0317661678472,0.0836080160516,-0.00332399944022,-0.010826689443,0.00278279379833,-0.0408959029738,0.0149120150305,0.00560052111555,2.19041395187,-1.4157320261,0.705901563168,0.601578831673,1.01421248913,-0.0481583923101
2017/07/09/10:05:49.524845,433419,1499565952,328901223,,0.82281610494,-0.0978017127066,0.169552023775,0.803558565752,0.588480351477,0.0320906844221,0.0833948158234,-0.00400432208548,-0.000992925460638,-0.00757784019061,-0.0102753691024,0.0138819314652,-0.00152082217614,3.01539993286,-0.914072692394,1.00394952297,0.537066400051,1.26085019112,-0.0749745368958
2017/07/09/10:05:49.534516,433420,1499565952,338898292,,0.822859593916,-0.0987212122301,0.169538094259,0.803433686757,0.588563093825,0.0316617845724,0.0841743842862,0.00416007898169,-0.000694304871948,0.000589921980269,-0.0333107793227,0.00479852569908,0.0255160982317,2.26780867577,-1.22408509254,0.930417537689,0.565557897091,0.993890404701,-0.0619760937989
2017/07/09/10:05:49.544428,433421,1499565952,348893056,,0.822661816722,-0.098272070961,0.168951880121,0.803459647617,0.588611468971,0.0315632262185,0.0836235373423,0.000350655295709,-0.00262484514284,-0.00161747171818,-0.0477765589077,0.0199943770142,0.0163381864117,1.82919681072,-0.966980755329,0.583071947098,0.466790467501,0.848167419434,-0.0562505684793
2017/07/09/10:05:49.554495,433422,1499565952,358902216,,0.822859593916,-0.0987212122301,0.169538094259,0.803659338791,0.588254937593,0.0316940627155,0.0841622359545,-0.00574943755073,-0.0111112032823,0.00167805364266,-0.0235219128011,0.0113986372183,-0.0138859085364,2.67373418808,-1.54604423046,0.798437356949,0.597561955452,1.22484827042,-0.0788159295917
2017/07/09/10:05:49.564372,433423,1499565952,368894907,,0.82307428106,-0.0985585476821,0.169524937038,0.803604799566,0.588307594192,0.031824761735,0.0842655639682,0.00733754366444,0.0107003667857,0.00832612352432,-0.00684876344592,-0.00445288218299,0.0146261723296,1.73621022701,-1.08163785934,0.709405004978,0.504602789879,0.778269171715,-0.0271262004972
2017/07/09/10:05:49.574646,433424,1499565952,378901630,,0.822698010161,-0.0994215571217,0.16953952935,0.803916262041,0.587868164554,0.0314929098681,0.0844858648433,0.00545642176288,-0.00349255206686,0.00596756650631,-0.018096355795,-0.00796784446697,0.000590654736834,2.47631311417,-1.81933522224,0.889001131058,0.667726159096,1.14520001411,-0.0303165465593
2017/07/09/10:05:49.584574,433425,1499565952,388897564,,0.822692007845,-0.0991100598429,0.16934942596,0.803605283007,0.588313407243,0.0311009826804,0.0844903122142,0.00334532349273,-0.00212487394333,-0.00115509981389,-0.0292928986194,0.00339733587697,0.00549669928297,2.69738292694,-1.5980796814,0.384424507618,0.644762635231,1.1747699976,-0.077348664403
2017/07/09/10:05:49.594605,433426,1499565952,398901571,,0.822864290531,-0.0987620860676,0.17009686813,0.803646985515,0.588241772624,0.0317247370919,0.0843604212236,0.00316448633682,0.0146882830709,0.000528156230613,-0.00526871954044,0.0107211764946,0.0367049829229,2.61387038231,-1.88744211197,1.186642766,0.737764060497,1.18091583252,-0.017544709146
2017/07/09/10:05:49.604268,433427,1499565952,408900448,,0.823037873318,-0.0983947769476,0.169712395802,0.803395491717,0.588609881783,0.0316767853493,0.0842061293821,0.0134047548685,0.0283448713744,0.0163859125589,0.00716503375057,-0.0135623209244,0.0377127420289,3.20513391495,-1.98851108551,0.624684333801,0.761905133724,1.40318000317,-0.0602998547256
2017/07/09/10:05:49.614453,433428,1499565952,418901318,,0.82277892718,-0.098431788143,0.16956914324,0.803370533316,0.588675112858,0.0318200056896,0.0839338128435,0.0017510090838,0.00801555368226,-0.00338346712508,-0.00689509248588,0.00644819724782,0.0272986501787,2.899725914,-1.81599485874,0.499615073204,0.708858013153,1.29744589329,-0.0454551614821
2017/07/09/10:05:49.624748,433429,1499565952,428901449,,0.823320693616,-0.0980533541628,0.169741375147,0.803169698701,0.588873150203,0.0314951788302,0.0845866524278,-0.0104011884758,-0.00182824309638,-0.00919959647767,0.00579404798918,0.0207542302985,0.00187700959594,3.59068393707,-1.74418735504,0.977174699306,0.726898908615,1.44861698151,-0.080963678658
2017/07/09/10:05:49.634332,433430,1499565952,438901461,,0.823101358996,-0.0978987199408,0.169378616849,0.803287449239,0.588783421525,0.0314844885874,0.0840956800937,0.010537662911,0.0211821852398,0.0050940506806,0.0129484753752,-0.0118338148388,0.0223376457254,2.8784301281,-1.60193300247,0.367298841476,0.618160307407,1.16013264656,-0.0359366834164
2017/07/09/10:05:49.644765,433431,1499565952,448901677,,0.82294850894,-0.0980445380797,0.169639684164,0.803302611148,0.588768606294,0.0315726437712,0.0840214932666,8.92876854857e-05,-0.00508039637397,0.0119620093864,-0.00944079957351,-0.00819743799033,-0.0252946144604,3.69700980186,-1.70300006866,0.355959534645,0.654898107052,1.51734316349,-0.117742329836
2017/07/09/10:05:49.654537,433432,1499565952,458894840,,0.822785754485,-0.0980671370716,0.169587611146,0.803366049985,0.588703242868,0.0311881271154,0.0840165596449,-0.00923702943994,0.00666889531354,-0.00783482888957,0.00442329232384,0.0358258807337,0.0192527049774,4.19647455215,-1.8764333725,0.548831403255,0.834639370441,1.6251180172,-0.0731121748686
2017/07/09/10:05:49.664348,433433,1499565952,468899483,,0.823319485334,-0.0974378052956,0.169897359109,0.80312366842,0.588983477169,0.0315543039071,0.0842327890476,0.00346764027803,0.0157092356971,-0.00228480098073,-0.00667250433452,0.0127770805616,0.0236729774825,4.13137102127,-1.88956844807,0.548422515392,0.799586772919,1.63154780865,-0.0583095103502
2017/07/09/10:05:49.674653,433434,1499565952,478901051,,0.823223427646,-0.0978023202281,0.169664567133,0.803173822826,0.588916044408,0.0316956983165,0.0841729509599,0.00362304653987,0.00413833818205,-0.00573310421911,0.00401204301431,-0.00411662430709,-0.0015654037963,4.34450674057,-2.0509493351,0.394563525915,0.80809623003,1.71889936924,-0.0917360559106
2017/07/09/10:05:49.684480,433435,1499565952,488901548,,0.823100168595,-0.0975598037012,0.169351892525,0.803303361227,0.588790056555,0.0314087436397,0.0839253833231,0.010439435515,0.0291955404594,-0.00602332650194,0.0145394786781,0.00534190791997,0.0369024370339,3.82827186584,-2.15774106979,0.512031555176,0.866605937481,1.61424875259,-0.0601238980889
2017/07/09/10:05:49.694653,433436,1499565952,498920847,,0.823374125165,-0.0972069053331,0.169844881868,0.803203479131,0.588898841711,0.0317698756045,0.0839821430276,0.00489763633507,0.00149474179945,-0.006265245434,0.000395355427525,-0.00563963084907,-0.00799741662566,3.70460438728,-1.38427090645,0.66013109684,0.726021409035,1.50943124294,-0.0621255859733
2017/07/09/10:05:49.704520,433437,1499565952,508900721,,0.823207126814,-0.09683982554,0.169316457785,0.803023237164,0.589197483071,0.0313123365418,0.0837827195605,0.0139157710911,0.0257601362231,-0.0104419174326,0.0174145478181,-0.00420941227867,0.0264296701327,3.73708939552,-1.76134121418,0.464723557234,0.808201909065,1.5310921669,-0.0319380536675
2017/07/09/10:05:49.714465,433438,1499565952,518906672,,0.823267211434,-0.0973498189802,0.169467935247,0.803101794966,0.589041392013,0.031494242811,0.084058658614,-0.00268809192152,-7.02332246001e-05,-0.00725646592958,-0.0133216449488,0.0128259175455,0.000736470566471,4.60314226151,-1.92710912228,0.708778262138,0.853369176388,1.83788383007,-0.0688735246658
2017/07/09/10:05:49.724867,433439,1499565952,528893880,,0.823214227608,-0.0967444953899,0.1690258006,0.803007791975,0.589257139106,0.0314053089326,0.0834758444716,0.00486651185085,-0.00019803297429,-0.00164923389261,-0.00484639985709,-0.00879311060676,0.000684749833921,3.83016061783,-1.63304591179,0.751932263374,0.718698143959,1.54224991798,-0.0695491880178
2017/07/09/10:05:49.734225,433440,1499565952,538897580,,0.823285858189,-0.0967891596079,0.169317942092,0.803106758047,0.589093306849,0.0314905612555,0.083647806646,0.00813552959907,0.0112787953409,0.00481629146657,0.0170362029455,-0.0157695043158,0.00471011949742,4.19102668762,-1.87491762638,0.498312234879,0.78005695343,1.70327496529,-0.0825317278504
2017/07/09/10:05:49.744673,433441,1499565952,548900692,,0.822985914782,-0.0972121690727,0.168857839281,0.803258627654,0.588913731186,0.0312643846806,0.0835388087627,-0.00103390848376,0.0211643009296,-0.0102750075252,0.0195379229981,0.0231122240716,0.0197210604764,4.16510295868,-2.31608867645,0.511859178543,0.843092024326,1.73340654373,-0.0859984010458
2017/07/09/10:05:49.754447,433442,1499565952,558900973,,0.823155450469,-0.0971627944028,0.169014337048,0.803066255994,0.589155684254,0.0314889067904,0.0835979481997,-0.00116894819587,0.0139083778342,-0.00555896441992,-0.0153342423441,0.030814902167,0.0337342002601,4.18312692642,-2.29819965363,0.908705890179,0.91843611002,1.70205283165,-0.0403719320893
2017/07/09/10:05:49.764445,433443,1499565952,568900567,,0.823545915142,-0.0967408151362,0.169629601659,0.802977214012,0.589219348914,0.0318094627846,0.0838827200303,0.00750082458403,0.0131808855961,-0.00932714010504,0.00275602931222,-0.00256370932938,0.0180572991148,4.43527698517,-2.30246114731,1.33231961727,0.892959833145,1.83913850784,-0.0894922316074
2017/07/09/10:05:49.774765,433444,1499565952,578895913,,0.8229339441,-0.0970145138273,0.16883765531,0.8029221139,0.589393778835,0.0309821697929,0.0834934586432,0.0112128738302,0.0135427603465,0.00180661193316,-0.00406182326797,-0.012079449193,0.0178615067094,3.72464323044,-2.01313018799,0.61696523428,0.795582175255,1.53820490837,-0.0746184587479
2017/07/09/10:05:49.784451,433445,1499565952,588908205,,0.82377072812,-0.0960915086247,0.168684083655,0.802653842215,0.589704581332,0.0315839465359,0.0836526787082,0.00437809487421,-0.00467543720512,-0.00258811456155,0.00983498405582,-0.0161913542893,-0.0182837245667,3.99400091171,-1.63691532612,0.642694890499,0.757462620735,1.63518476486,-0.0659242868423
