time,.header.seq,.header.stamp.secs,.header.stamp.nsecs,.header.frame_id,.quat,.acc
2017/07/09/10:02:30.008399,8387,1499565750,8234977,0,"(-10037, -6754, 6977, 8567)","(116, 1949, 578)"
2017/07/09/10:02:30.031357,8388,1499565750,31091928,0,"(-10043, -6770, 6929, 8586)","(168, 1886, 688)"
2017/07/09/10:02:30.046012,8389,1499565750,45893907,0,"(-10048, -6796, 6876, 8602)","(140, 1953, 659)"
2017/07/09/10:02:30.068840,8390,1499565750,68573951,0,"(-10056, -6830, 6815, 8616)","(115, 2042, 671)"
2017/07/09/10:02:30.099100,8391,1499565750,98937034,0,"(-10066, -6861, 6739, 8639)","(78, 2106, 616)"
2017/07/09/10:02:30.107591,8392,1499565750,107352972,0,"(-10034, -6928, 6672, 8674)","(-92, 1963, 555)"
2017/07/09/10:02:30.129000,8393,1499565750,128633975,0,"(-10007, -7001, 6616, 8690)","(-4, 1944, 701)"
2017/07/09/10:02:30.151008,8394,1499565750,150768995,0,"(-9975, -7090, 6560, 8697)","(4, 2113, 661)"
2017/07/09/10:02:30.166294,8395,1499565750,166105031,0,"(-9957, -7163, 6471, 8724)","(-132, 2151, 618)"
2017/07/09/10:02:30.190226,8396,1499565750,188460111,0,"(-9945, -7215, 6365, 8773)","(-161, 1926, 645)"
2017/07/09/10:02:30.211409,8397,1499565750,211196899,0,"(-9917, -7285, 6264, 8820)","(-161, 1803, 659)"
2017/07/09/10:02:30.226267,8398,1499565750,226078987,0,"(-9870, -7375, 6178, 8858)","(-152, 1926, 652)"
2017/07/09/10:02:30.248493,8399,1499565750,248337030,0,"(-9830, -7456, 6084, 8899)","(-165, 2003, 652)"
2017/07/09/10:02:30.279417,8400,1499565750,279098987,0,"(-9804, -7512, 5969, 8959)","(-253, 1949, 622)"
2017/07/09/10:02:30.286556,8401,1499565750,286230087,0,"(-9780, -7559, 5853, 9021)","(-267, 1712, 668)"
2017/07/09/10:02:30.308634,8402,1499565750,308410882,0,"(-9731, -7623, 5764, 9078)","(-249, 1694, 657)"
2017/07/09/10:02:30.331264,8403,1499565750,330945968,0,"(-9672, -7700, 5694, 9120)","(-198, 1848, 644)"
2017/07/09/10:02:30.353638,8404,1499565750,353389024,0,"(-9648, -7741, 5599, 9170)","(-192, 1962, 683)"
2017/07/09/10:02:30.368968,8405,1499565750,368755102,0,"(-9646, -7753, 5468, 9241)","(-348, 1827, 670)"
2017/07/09/10:02:30.391296,8406,1499565750,391079902,0,"(-9633, -7761, 5334, 9325)","(-393, 1618, 705)"
2017/07/09/10:02:30.413543,8407,1499565750,413326025,0,"(-9590, -7787, 5222, 9411)","(-374, 1716, 684)"
2017/07/09/10:02:30.428431,8408,1499565750,428282022,0,"(-9538, -7820, 5125, 9489)","(-309, 1895, 692)"
2017/07/09/10:02:30.451130,8409,1499565750,450844049,0,"(-9512, -7829, 5019, 9564)","(-387, 1902, 753)"
2017/07/09/10:02:30.473664,8410,1499565750,473438024,0,"(-9501, -7826, 4910, 9635)","(-426, 1767, 759)"
2017/07/09/10:02:30.488489,8411,1499565750,488331079,0,"(-9480, -7827, 4804, 9707)","(-512, 1731, 736)"
2017/07/09/10:02:30.511063,8412,1499565750,510941028,0,"(-9442, -7834, 4721, 9778)","(-515, 1760, 747)"
2017/07/09/10:02:30.533482,8413,1499565750,533272027,0,"(-9420, -7827, 4649, 9840)","(-412, 1760, 826)"
2017/07/09/10:02:30.556461,8414,1499565750,556217908,0,"(-9417, -7812, 4569, 9893)","(-418, 1737, 806)"
2017/07/09/10:02:30.571223,8415,1499565750,570939064,0,"(-9413, -7793, 4478, 9952)","(-521, 1739, 777)"
2017/07/09/10:02:30.598287,8416,1499565750,593914985,0,"(-9405, -7774, 4389, 10014)","(-546, 1661, 779)"
2017/07/09/10:02:30.608936,8417,1499565750,608503103,0,"(-9401, -7749, 4310, 10071)","(-500, 1609, 859)"
2017/07/09/10:02:30.631069,8418,1499565750,630788087,0,"(-9403, -7727, 4239, 10117)","(-496, 1638, 854)"
2017/07/09/10:02:30.653760,8419,1499565750,653561115,0,"(-9406, -7707, 4165, 10160)","(-573, 1657, 835)"
2017/07/09/10:02:30.670467,8420,1499565750,670258998,0,"(-9423, -7664, 4063, 10217)","(-593, 1645, 844)"
2017/07/09/10:02:30.700813,8421,1499565750,700670003,0,"(-9432, -7614, 3946, 10293)","(-650, 1542, 873)"
2017/07/09/10:02:30.713637,8422,1499565750,713279962,0,"(-9438, -7565, 3854, 10357)","(-557, 1573, 944)"
2017/07/09/10:02:30.728375,8423,1499565750,728250980,0,"(-9446, -7530, 3772, 10406)","(-573, 1656, 918)"
2017/07/09/10:02:30.751295,8424,1499565750,751116991,0,"(-9458, -7487, 3686, 10456)","(-677, 1597, 908)"
2017/07/09/10:02:30.773893,8425,1499565750,773575067,0,"(-9466, -7438, 3609, 10511)","(-640, 1506, 908)"
2017/07/09/10:02:30.788485,8426,1499565750,788312911,0,"(-9484, -7376, 3519, 10569)","(-570, 1492, 1017)"
2017/07/09/10:02:30.811142,8427,1499565750,810828924,0,"(-9493, -7325, 3427, 10626)","(-705, 1408, 991)"
2017/07/09/10:02:30.833974,8428,1499565750,833515882,0,"(-9490, -7281, 3354, 10682)","(-648, 1552, 1011)"
2017/07/09/10:02:30.848639,8429,1499565750,848427057,0,"(-9490, -7225, 3283, 10742)","(-731, 1575, 971)"
2017/07/09/10:02:30.871464,8430,1499565750,871189117,0,"(-9497, -7150, 3211, 10808)","(-612, 1474, 1067)"
2017/07/09/10:02:30.893688,8431,1499565750,893524885,0,"(-9507, -7076, 3131, 10871)","(-630, 1340, 1116)"
2017/07/09/10:02:30.908348,8432,1499565750,908227920,0,"(-9507, -7014, 3063, 10931)","(-700, 1458, 1051)"
2017/07/09/10:02:30.931116,8433,1499565750,930855989,0,"(-9520, -6924, 2974, 11001)","(-655, 1500, 1140)"
2017/07/09/10:02:30.958549,8434,1499565750,955661058,0,"(-9532, -6819, 2861, 11086)","(-724, 1309, 1169)"
2017/07/09/10:02:30.969152,8435,1499565750,968873023,0,"(-9528, -6728, 2777, 11166)","(-697, 1281, 1163)"
2017/07/09/10:02:30.999477,8436,1499565750,999234914,0,"(-9522, -6638, 2714, 11240)","(-675, 1486, 1190)"
2017/07/09/10:02:31.013793,8437,1499565751,13510942,0,"(-9536, -6533, 2640, 11308)","(-705, 1420, 1204)"
2017/07/09/10:02:31.028376,8438,1499565751,28254985,0,"(-9558, -6412, 2546, 11379)","(-621, 1286, 1243)"
2017/07/09/10:02:31.051008,8439,1499565751,50860881,0,"(-9567, -6290, 2427, 11465)","(-722, 1097, 1303)"
2017/07/09/10:02:31.073661,8440,1499565751,73415040,0,"(-9553, -6176, 2333, 11558)","(-726, 1256, 1375)"
2017/07/09/10:02:31.090458,8441,1499565751,90076923,0,"(-9561, -6062, 2251, 11628)","(-594, 1375, 1357)"
2017/07/09/10:02:31.112674,8442,1499565751,112543106,0,"(-9587, -5932, 2133, 11695)","(-650, 1205, 1368)"
2017/07/09/10:02:31.133587,8443,1499565751,133306026,0,"(-9591, -5817, 2023, 11769)","(-737, 992, 1448)"
2017/07/09/10:02:31.148721,8444,1499565751,148554086,0,"(-9576, -5730, 1953, 11836)","(-728, 1114, 1504)"
2017/07/09/10:02:31.171249,8445,1499565751,171058893,0,"(-9589, -5630, 1877, 11885)","(-651, 1195, 1497)"
2017/07/09/10:02:31.193647,8446,1499565751,193306922,0,"(-9612, -5509, 1745, 11944)","(-719, 1040, 1537)"
2017/07/09/10:02:31.208387,8447,1499565751,208244085,0,"(-9614, -5404, 1622, 12007)","(-772, 869, 1537)"
2017/07/09/10:02:31.230894,8448,1499565751,230746030,0,"(-9599, -5332, 1556, 12060)","(-729, 1100, 1510)"
2017/07/09/10:02:31.253527,8449,1499565751,253412008,0,"(-9606, -5257, 1496, 12095)","(-674, 1078, 1540)"
2017/07/09/10:02:31.276640,8450,1499565751,276422023,0,"(-9622, -5183, 1411, 12125)","(-737, 920, 1614)"
2017/07/09/10:02:31.291867,8451,1499565751,291469097,0,"(-9625, -5118, 1327, 12159)","(-802, 888, 1642)"
2017/07/09/10:02:31.313393,8452,1499565751,313302040,0,"(-9622, -5045, 1252, 12200)","(-799, 944, 1615)"
2017/07/09/10:02:31.336575,8453,1499565751,336323976,0,"(-9627, -4965, 1178, 12235)","(-731, 960, 1678)"
2017/07/09/10:02:31.352513,8454,1499565751,352430105,0,"(-9631, -4897, 1102, 12267)","(-759, 894, 1704)"
2017/07/09/10:02:31.374167,8455,1499565751,373871088,0,"(-9626, -4845, 1036, 12297)","(-785, 902, 1659)"
2017/07/09/10:02:31.396172,8456,1499565751,395935058,0,"(-9626, -4779, 962, 12329)","(-699, 864, 1687)"
2017/07/09/10:02:31.410907,8457,1499565751,410777091,0,"(-9619, -4723, 889, 12361)","(-799, 745, 1636)"
2017/07/09/10:02:31.434018,8458,1499565751,433706045,0,"(-9608, -4676, 847, 12391)","(-609, 831, 1682)"
2017/07/09/10:02:31.455995,8459,1499565751,455905914,0,"(-9604, -4626, 779, 12417)","(-682, 792, 1715)"
2017/07/09/10:02:31.471295,8460,1499565751,471077919,0,"(-9600, -4583, 706, 12441)","(-790, 728, 1698)"
2017/07/09/10:02:31.501783,8461,1499565751,501509904,0,"(-9596, -4542, 651, 12462)","(-776, 745, 1675)"
2017/07/09/10:02:31.516669,8462,1499565751,516350984,0,"(-9595, -4492, 601, 12484)","(-693, 605, 1767)"
2017/07/09/10:02:31.531439,8463,1499565751,531193017,0,"(-9585, -4475, 581, 12498)","(-784, 613, 1748)"
2017/07/09/10:02:31.553488,8464,1499565751,553303956,0,"(-9594, -4448, 568, 12501)","(-595, 706, 1684)"
2017/07/09/10:02:31.576328,8465,1499565751,576083898,0,"(-9616, -4403, 512, 12503)","(-673, 576, 1614)"
2017/07/09/10:02:31.590911,8466,1499565751,590730905,0,"(-9628, -4372, 464, 12506)","(-730, 481, 1700)"
2017/07/09/10:02:31.613884,8467,1499565751,613586902,0,"(-9633, -4367, 451, 12505)","(-761, 668, 1691)"
2017/07/09/10:02:31.636089,8468,1499565751,635909080,0,"(-9657, -4345, 422, 12495)","(-635, 734, 1708)"
2017/07/09/10:02:31.650949,8469,1499565751,650804996,0,"(-9685, -4314, 348, 12486)","(-710, 595, 1633)"
2017/07/09/10:02:31.673904,8470,1499565751,673652887,0,"(-9694, -4299, 284, 12486)","(-819, 498, 1666)"
2017/07/09/10:02:31.704619,8471,1499565751,704375982,0,"(-9695, -4301, 278, 12485)","(-745, 712, 1709)"
2017/07/09/10:02:31.711500,8472,1499565751,711201906,0,"(-9719, -4292, 265, 12470)","(-613, 714, 1681)"
2017/07/09/10:02:31.733648,8473,1499565751,733491897,0,"(-9748, -4277, 214, 12453)","(-687, 598, 1621)"
2017/07/09/10:02:31.756362,8474,1499565751,756105899,0,"(-9761, -4270, 175, 12446)","(-768, 541, 1680)"
2017/07/09/10:02:31.771094,8475,1499565751,770839929,0,"(-9772, -4271, 161, 12437)","(-692, 633, 1766)"
2017/07/09/10:02:31.793270,8476,1499565751,793190002,0,"(-9796, -4273, 127, 12418)","(-668, 696, 1698)"
2017/07/09/10:02:31.816046,8477,1499565751,815859079,0,"(-9819, -4267, 63, 12402)","(-687, 489, 1668)"
2017/07/09/10:02:31.838684,8478,1499565751,838455915,0,"(-9828, -4268, 13, 12395)","(-763, 525, 1764)"
2017/07/09/10:02:31.853774,8479,1499565751,853538990,0,"(-9840, -4275, -29, 12383)","(-800, 553, 1762)"
2017/07/09/10:02:31.876000,8480,1499565751,875902891,0,"(-9861, -4288, -72, 12362)","(-765, 563, 1763)"
2017/07/09/10:02:31.891249,8481,1499565751,890954971,0,"(-9884, -4303, -131, 12338)","(-848, 513, 1696)"
2017/07/09/10:02:31.913633,8482,1499565751,913427114,0,"(-9901, -4306, -192, 12322)","(-904, 501, 1730)"
2017/07/09/10:02:31.944621,8483,1499565751,944365024,0,"(-9916, -4302, -243, 12311)","(-890, 528, 1808)"
2017/07/09/10:02:31.951401,8484,1499565751,951049089,0,"(-9933, -4306, -286, 12294)","(-876, 528, 1783)"
2017/07/09/10:02:31.973402,8485,1499565751,973228931,0,"(-9951, -4311, -333, 12277)","(-873, 610, 1744)"
2017/07/09/10:02:31.996327,8486,1499565751,996149063,0,"(-9969, -4307, -393, 12262)","(-989, 527, 1685)"
2017/07/09/10:02:32.011140,8487,1499565752,10967969,0,"(-9987, -4297, -433, 12249)","(-934, 465, 1683)"
2017/07/09/10:02:32.034208,8488,1499565752,33849000,0,"(-10003, -4302, -435, 12235)","(-894, 582, 1646)"
2017/07/09/10:02:32.056344,8489,1499565752,56231975,0,"(-10023, -4310, -424, 12216)","(-834, 569, 1721)"
2017/07/09/10:02:32.070922,8490,1499565752,70760965,0,"(-10038, -4323, -415, 12199)","(-976, 596, 1610)"
2017/07/09/10:02:32.095314,8491,1499565752,95170021,0,"(-10045, -4330, -398, 12191)","(-884, 728, 1658)"
2017/07/09/10:02:32.115977,8492,1499565752,115839004,0,"(-10054, -4315, -402, 12189)","(-819, 680, 1694)"
2017/07/09/10:02:32.132938,8493,1499565752,131196022,0,"(-10060, -4302, -411, 12189)","(-798, 561, 1764)"
2017/07/09/10:02:32.153313,8494,1499565752,153179883,0,"(-10061, -4302, -419, 12187)","(-857, 579, 1731)"
2017/07/09/10:02:32.176362,8495,1499565752,176172971,0,"(-10065, -4300, -430, 12185)","(-951, 544, 1708)"
2017/07/09/10:02:32.191048,8496,1499565752,190908908,0,"(-10063, -4285, -430, 12192)","(-866, 492, 1723)"
2017/07/09/10:02:32.213693,8497,1499565752,213607072,0,"(-10061, -4278, -423, 12196)","(-804, 520, 1739)"
2017/07/09/10:02:32.236221,8498,1499565752,235927104,0,"(-10065, -4271, -428, 12195)","(-848, 502, 1717)"
2017/07/09/10:02:32.250942,8499,1499565752,250732898,0,"(-10067, -4271, -429, 12193)","(-921, 485, 1694)"
2017/07/09/10:02:32.273628,8500,1499565752,273390054,0,"(-10064, -4275, -413, 12195)","(-885, 521, 1717)"
2017/07/09/10:02:32.296286,8501,1499565752,296004056,0,"(-10064, -4271, -409, 12197)","(-853, 612, 1737)"
2017/07/09/10:02:32.311413,8502,1499565752,311115026,0,"(-10067, -4260, -425, 12197)","(-851, 557, 1727)"
2017/07/09/10:02:32.334769,8503,1499565752,334665060,0,"(-10067, -4261, -426, 12197)","(-884, 522, 1729)"
2017/07/09/10:02:32.355957,8504,1499565752,355762004,0,"(-10062, -4266, -415, 12200)","(-903, 538, 1763)"
2017/07/09/10:02:32.370967,8505,1499565752,370867967,0,"(-10059, -4270, -398, 12201)","(-849, 498, 1719)"
2017/07/09/10:02:32.393752,8506,1499565752,393573999,0,"(-10057, -4272, -383, 12202)","(-797, 629, 1674)"
2017/07/09/10:02:32.424250,8507,1499565752,424076080,0,"(-10057, -4274, -390, 12201)","(-841, 599, 1707)"
2017/07/09/10:02:32.430986,8508,1499565752,430814027,0,"(-10054, -4275, -407, 12203)","(-890, 523, 1729)"
2017/07/09/10:02:32.453646,8509,1499565752,453357934,0,"(-10053, -4274, -409, 12204)","(-884, 462, 1770)"
2017/07/09/10:02:32.476500,8510,1499565752,476217985,0,"(-10051, -4269, -413, 12207)","(-813, 453, 1722)"
2017/07/09/10:02:32.491179,8511,1499565752,491067886,0,"(-10049, -4274, -414, 12207)","(-842, 555, 1690)"
2017/07/09/10:02:32.514068,8512,1499565752,513670921,0,"(-10050, -4282, -418, 12203)","(-868, 526, 1726)"
2017/07/09/10:02:32.536021,8513,1499565752,535921096,0,"(-10051, -4288, -418, 12200)","(-844, 532, 1726)"
2017/07/09/10:02:32.559186,8514,1499565752,558870077,0,"(-10051, -4293, -414, 12199)","(-790, 588, 1711)"
2017/07/09/10:02:32.573879,8515,1499565752,573524951,0,"(-10052, -4294, -421, 12197)","(-838, 589, 1720)"
2017/07/09/10:02:32.599746,8516,1499565752,596398115,0,"(-10052, -4290, -433, 12198)","(-899, 517, 1747)"
2017/07/09/10:02:32.618603,8517,1499565752,618467092,0,"(-10049, -4290, -439, 12201)","(-938, 477, 1726)"
2017/07/09/10:02:32.633555,8518,1499565752,633320093,0,"(-10045, -4287, -427, 12206)","(-826, 524, 1682)"
2017/07/09/10:02:32.656320,8519,1499565752,656193017,0,"(-10039, -4284, -413, 12211)","(-832, 575, 1717)"
2017/07/09/10:02:32.678620,8520,1499565752,678435087,0,"(-10042, -4271, -412, 12214)","(-805, 531, 1738)"
2017/07/09/10:02:32.696854,8521,1499565752,696643114,0,"(-10042, -4271, -413, 12214)","(-868, 507, 1733)"
2017/07/09/10:02:32.716015,8522,1499565752,715904951,0,"(-10038, -4275, -402, 12216)","(-792, 569, 1707)"
2017/07/09/10:02:32.738569,8523,1499565752,738306999,0,"(-10033, -4282, -399, 12218)","(-842, 598, 1698)"
2017/07/09/10:02:32.754062,8524,1499565752,753864049,0,"(-10030, -4282, -402, 12221)","(-886, 538, 1701)"
2017/07/09/10:02:32.775875,8525,1499565752,775789976,0,"(-10030, -4276, -405, 12223)","(-853, 481, 1733)"
2017/07/09/10:02:32.798726,8526,1499565752,798557043,0,"(-10030, -4274, -398, 12223)","(-822, 499, 1718)"
2017/07/09/10:02:32.814876,8527,1499565752,814779043,0,"(-10026, -4274, -391, 12227)","(-813, 565, 1738)"
2017/07/09/10:02:32.836402,8528,1499565752,836139917,0,"(-10025, -4269, -395, 12229)","(-888, 518, 1694)"
2017/07/09/10:02:32.858774,8529,1499565752,858459949,0,"(-10024, -4264, -394, 12232)","(-815, 518, 1701)"
2017/07/09/10:02:32.873392,8530,1499565752,873207092,0,"(-10026, -4262, -398, 12231)","(-806, 544, 1730)"
