time,.header.seq,.header.stamp.secs,.header.stamp.nsecs,.header.frame_id,.ch0,.ch1,.ch2,.ch3,.ch4,.ch5,.ch6,.ch7
2017/07/09/09:58:24.893890,145569,1499565504,893520116,0,430,532,290,147,201,133,382,221
2017/07/09/09:58:24.915689,145570,1499565504,915585041,0,448,426,199,147,239,163,549,286
2017/07/09/09:58:24.935908,145571,1499565504,935785055,0,455,417,200,132,241,157,545,325
2017/07/09/09:58:24.952990,145572,1499565504,952713966,0,447,387,176,126,248,136,519,335
2017/07/09/09:58:24.975756,145573,1499565504,975496053,0,429,469,181,136,256,177,568,322
2017/07/09/09:58:24.992321,145574,1499565504,991816043,0,421,479,206,147,215,182,609,339
2017/07/09/09:58:25.013238,145575,1499565505,12939929,0,411,471,205,130,176,177,548,380
2017/07/09/09:58:25.035392,145576,1499565505,35125017,0,390,461,205,149,225,221,574,356
2017/07/09/09:58:25.051773,145577,1499565505,51620006,0,303,527,226,147,234,229,573,342
2017/07/09/09:58:25.073628,145578,1499565505,73112964,0,333,503,232,139,241,203,533,342
2017/07/09/09:58:25.095736,145579,1499565505,95326900,0,367,490,207,125,256,209,512,325
2017/07/09/09:58:25.112370,145580,1499565505,112121105,0,366,491,213,131,267,209,427,202
2017/07/09/09:58:25.133080,145581,1499565505,132762908,0,367,528,220,119,255,179,393,216
2017/07/09/09:58:25.155668,145582,1499565505,155394077,0,368,476,216,118,248,174,399,219
2017/07/09/09:58:25.171932,145583,1499565505,171737909,0,350,479,229,128,253,193,407,249
2017/07/09/09:58:25.193150,145584,1499565505,192869901,0,419,500,227,123,267,201,423,259
2017/07/09/09:58:25.215632,145585,1499565505,215361118,0,450,662,333,131,256,187,453,300
2017/07/09/09:58:25.231890,145586,1499565505,231750965,0,495,748,357,160,228,199,511,373
2017/07/09/09:58:25.252988,145587,1499565505,252738952,0,529,729,348,163,236,216,571,393
2017/07/09/09:58:25.275505,145588,1499565505,275326967,0,523,694,336,159,243,197,564,420
2017/07/09/09:58:25.291854,145589,1499565505,291683912,0,452,724,356,164,203,175,565,439
2017/07/09/09:58:25.313094,145590,1499565505,312874078,0,414,590,264,162,209,182,597,459
2017/07/09/09:58:25.336692,145591,1499565505,336607933,0,382,453,216,126,200,150,535,397
2017/07/09/09:58:25.358155,145592,1499565505,357896089,0,310,446,218,129,180,137,509,393
2017/07/09/09:58:25.373017,145593,1499565505,372709035,0,310,496,246,160,202,176,540,396
2017/07/09/09:58:25.398145,145594,1499565505,397864103,0,315,571,292,171,210,191,545,418
2017/07/09/09:58:25.417706,145595,1499565505,417520046,0,326,583,301,167,201,184,504,422
2017/07/09/09:58:25.433014,145596,1499565505,432653903,0,335,632,335,165,201,194,526,431
2017/07/09/09:58:25.455395,145597,1499565505,455221891,0,347,634,340,183,214,194,486,461
2017/07/09/09:58:25.471888,145598,1499565505,471710920,0,375,615,321,153,173,166,447,441
2017/07/09/09:58:25.492999,145599,1499565505,492670059,0,357,522,256,135,274,158,453,426
2017/07/09/09:58:25.515209,145600,1499565505,515029907,0,348,506,249,143,300,180,475,473
2017/07/09/09:58:25.531768,145601,1499565505,531594991,0,308,438,222,147,310,188,589,540
2017/07/09/09:58:25.560667,145602,1499565505,560435056,0,319,487,231,125,307,184,581,523
2017/07/09/09:58:25.575655,145603,1499565505,575352907,0,316,509,263,130,307,198,646,528
2017/07/09/09:58:25.591827,145604,1499565505,591555118,0,335,482,275,144,236,262,743,594
2017/07/09/09:58:25.612789,145605,1499565505,612569093,0,364,470,273,174,229,286,741,589
2017/07/09/09:58:25.635520,145606,1499565505,635157108,0,361,440,268,180,228,279,653,537
2017/07/09/09:58:25.651961,145607,1499565505,651717901,0,348,404,257,174,223,275,645,522
2017/07/09/09:58:25.675113,145608,1499565505,674855947,0,306,340,216,174,231,268,601,523
2017/07/09/09:58:25.695297,145609,1499565505,695147037,0,298,472,226,176,221,213,483,530
2017/07/09/09:58:25.714355,145610,1499565505,712059020,0,248,602,325,158,212,191,456,462
2017/07/09/09:58:25.734972,145611,1499565505,734580039,0,246,603,311,155,194,189,473,512
2017/07/09/09:58:25.755347,145612,1499565505,755150079,0,232,599,306,155,189,213,495,518
2017/07/09/09:58:25.779203,145613,1499565505,779043912,0,247,647,315,152,160,206,471,525
2017/07/09/09:58:25.794401,145614,1499565505,794241905,0,242,591,309,139,136,188,455,437
2017/07/09/09:58:25.815815,145615,1499565505,815471887,0,251,459,191,112,102,166,437,449
2017/07/09/09:58:25.832464,145616,1499565505,832072019,0,255,504,202,106,98,190,398,403
2017/07/09/09:58:25.855381,145617,1499565505,854305982,0,248,494,212,107,99,196,427,419
2017/07/09/09:58:25.875335,145618,1499565505,875143051,0,281,467,221,113,98,197,405,425
2017/07/09/09:58:25.899396,145619,1499565505,899229049,0,278,443,215,124,109,211,357,416
2017/07/09/09:58:25.914956,145620,1499565505,914870023,0,281,432,213,149,121,232,420,433
2017/07/09/09:58:25.936128,145621,1499565505,935853958,0,291,464,286,177,148,234,447,459
2017/07/09/09:58:25.958094,145622,1499565505,957881927,0,303,479,290,182,147,215,387,434
2017/07/09/09:58:25.974507,145623,1499565505,974232912,0,303,463,280,181,151,215,398,395
2017/07/09/09:58:25.995419,145624,1499565505,995269060,0,304,431,265,198,163,219,443,390
2017/07/09/09:58:26.018003,145625,1499565506,17697095,0,290,513,308,176,161,227,380,385
2017/07/09/09:58:26.034746,145626,1499565506,34537076,0,313,451,234,168,161,221,339,330
2017/07/09/09:58:26.055896,145627,1499565506,55489063,0,330,478,229,202,202,252,385,393
2017/07/09/09:58:26.079376,145628,1499565506,79138040,0,330,501,230,211,220,266,383,455
2017/07/09/09:58:26.094761,145629,1499565506,94330072,0,340,530,242,194,207,253,348,492
2017/07/09/09:58:26.115326,145630,1499565506,115190029,0,343,473,192,201,202,219,340,476
2017/07/09/09:58:26.138237,145631,1499565506,137995004,0,319,466,193,196,196,213,354,503
2017/07/09/09:58:26.154313,145632,1499565506,154201984,0,286,427,197,155,160,202,374,477
2017/07/09/09:58:26.175411,145633,1499565506,175189971,0,253,409,201,154,146,181,354,432
2017/07/09/09:58:26.197790,145634,1499565506,197658061,0,380,489,196,166,168,214,348,395
2017/07/09/09:58:26.214696,145635,1499565506,214459896,0,456,534,205,188,182,217,350,394
2017/07/09/09:58:26.251146,145636,1499565506,250976085,0,465,550,212,186,185,269,362,358
2017/07/09/09:58:26.257739,145637,1499565506,257467985,0,481,552,196,194,182,250,285,335
2017/07/09/09:58:26.274744,145638,1499565506,274581909,0,485,548,216,181,185,252,304,377
2017/07/09/09:58:26.295386,145639,1499565506,295227050,0,391,440,212,169,167,226,282,400
2017/07/09/09:58:26.318114,145640,1499565506,317914009,0,315,371,201,149,162,224,249,397
2017/07/09/09:58:26.334160,145641,1499565506,333992958,0,303,338,191,135,143,196,222,401
2017/07/09/09:58:26.355254,145642,1499565506,355077981,0,319,329,195,133,148,202,224,437
2017/07/09/09:58:26.378154,145643,1499565506,377907037,0,388,375,206,152,148,201,213,411
2017/07/09/09:58:26.394449,145644,1499565506,394316911,0,392,369,207,157,164,242,226,417
2017/07/09/09:58:26.415554,145645,1499565506,415326118,0,382,475,273,172,174,257,261,415
2017/07/09/09:58:26.437911,145646,1499565506,437683105,0,370,484,269,180,177,236,270,457
2017/07/09/09:58:26.454895,145647,1499565506,454437971,0,356,477,270,185,180,240,278,448
2017/07/09/09:58:26.475570,145648,1499565506,475342988,0,294,527,279,177,165,239,283,456
2017/07/09/09:58:26.499239,145649,1499565506,499099969,0,313,557,291,194,175,210,318,462
2017/07/09/09:58:26.514507,145650,1499565506,514344930,0,316,464,230,178,167,216,358,473
2017/07/09/09:58:26.535603,145651,1499565506,535207033,0,356,504,252,188,177,207,345,447
2017/07/09/09:58:26.559607,145652,1499565506,559501886,0,367,652,283,180,166,198,336,421
2017/07/09/09:58:26.574428,145653,1499565506,574263095,0,358,568,243,192,197,261,353,418
2017/07/09/09:58:26.595827,145654,1499565506,595506906,0,331,554,220,164,170,251,305,389
2017/07/09/09:58:26.617822,145655,1499565506,617580890,0,330,552,218,156,158,231,247,365
2017/07/09/09:58:26.634829,145656,1499565506,634571075,0,358,534,220,135,150,243,273,347
2017/07/09/09:58:26.655566,145657,1499565506,655307054,0,384,344,176,144,160,251,289,347
2017/07/09/09:58:26.678509,145658,1499565506,678236961,0,386,379,180,117,119,195,269,324
2017/07/09/09:58:26.694304,145659,1499565506,694088935,0,388,382,186,120,130,210,257,329
2017/07/09/09:58:26.717599,145660,1499565506,717387914,0,387,379,186,128,141,219,253,339
2017/07/09/09:58:26.738161,145661,1499565506,737938880,0,318,354,158,117,125,189,230,333
2017/07/09/09:58:26.754596,145662,1499565506,754401922,0,286,399,176,94,105,165,201,331
2017/07/09/09:58:26.775541,145663,1499565506,775295972,0,264,365,168,91,104,176,193,312
2017/07/09/09:58:26.798000,145664,1499565506,797631025,0,247,329,162,82,100,216,246,282
2017/07/09/09:58:26.814855,145665,1499565506,814518928,0,263,332,159,63,79,206,239,254
2017/07/09/09:58:26.835476,145666,1499565506,835267066,0,286,342,153,64,82,210,216,221
2017/07/09/09:58:26.858251,145667,1499565506,857948064,0,253,279,119,63,85,212,277,219
2017/07/09/09:58:26.874231,145668,1499565506,874079942,0,258,258,115,67,82,190,280,247
2017/07/09/09:58:26.895408,145669,1499565506,895237922,0,267,258,114,75,80,158,255,283
2017/07/09/09:58:26.918065,145670,1499565506,917715072,0,317,333,159,76,78,149,247,309
2017/07/09/09:58:26.934175,145671,1499565506,934012889,0,296,316,169,93,91,148,259,329
2017/07/09/09:58:26.955856,145672,1499565506,955543994,0,291,327,172,94,94,153,223,331
2017/07/09/09:58:26.979170,145673,1499565506,979012012,0,294,330,169,96,100,177,215,329
2017/07/09/09:58:26.995933,145674,1499565506,995692968,0,334,361,184,103,101,145,207,325
2017/07/09/09:58:27.022843,145675,1499565507,22658109,0,270,271,137,102,102,147,204,298
2017/07/09/09:58:27.045461,145676,1499565507,45231103,0,274,259,121,89,95,156,210,280
2017/07/09/09:58:27.054274,145677,1499565507,54080963,0,273,246,124,92,91,153,179,271
2017/07/09/09:58:27.075396,145678,1499565507,75227022,0,272,279,160,84,87,119,171,273
2017/07/09/09:58:27.098111,145679,1499565507,97852945,0,305,275,161,66,79,113,166,261
2017/07/09/09:58:27.114549,145680,1499565507,114376068,0,303,271,163,69,87,172,199,279
2017/07/09/09:58:27.135361,145681,1499565507,135145902,0,293,254,159,67,83,197,211,300
2017/07/09/09:58:27.157845,145682,1499565507,157628059,0,309,300,194,73,88,198,225,300
2017/07/09/09:58:27.188576,145683,1499565507,188425064,0,339,353,198,82,92,198,221,297
2017/07/09/09:58:27.195299,145684,1499565507,195082902,0,253,322,187,85,87,196,211,267
2017/07/09/09:58:27.217993,145685,1499565507,217757940,0,251,331,192,85,80,169,194,251
2017/07/09/09:58:27.241684,145686,1499565507,241554975,0,254,343,195,85,78,127,171,229
2017/07/09/09:58:27.255618,145687,1499565507,255266904,0,234,334,189,79,72,117,156,218
2017/07/09/09:58:27.285650,145688,1499565507,285392045,0,184,257,160,75,62,114,178,190
2017/07/09/09:58:27.300658,145689,1499565507,300472974,0,188,258,150,70,62,129,197,207
2017/07/09/09:58:27.318356,145690,1499565507,316703081,0,264,267,147,67,63,111,211,212
2017/07/09/09:58:27.341075,145691,1499565507,337630987,0,265,258,151,65,64,110,206,210
