time,.header.seq,.header.stamp.secs,.header.stamp.nsecs,.header.frame_id,.pose.position.x,.pose.position.y,.pose.position.z,.pose.orientation.x,.pose.orientation.y,.pose.orientation.z,.pose.orientation.w,.twist.linear.x,.twist.linear.y,.twist.linear.z,.twist.angular.x,.twist.angular.y,.twist.angular.z,.wrench.force.x,.wrench.force.y,.wrench.force.z,.wrench.torque.x,.wrench.torque.y,.wrench.torque.z
2017/07/09/10:24:46.801634,547147,1499567089,608925659,,0.78060894903,0.396496200305,0.163530011089,0.623836954794,0.779133282319,0.0536091605642,0.0300805605004,-0.00106851557236,-0.0118330932775,-0.00247543547658,-0.00938708260605,0.0147205575355,-0.000103534558465,5.50416231155,1.59599268436,-0.00306625664234,-0.712172746658,2.10078430176,-0.131578832865
2017/07/09/10:24:46.811432,547148,1499567089,618922883,,0.780849421877,0.396914359915,0.163724867651,0.623968072534,0.779011972274,0.0538978991801,0.0299867966909,-0.0025862359688,-0.0245750735995,-0.0145022214739,-0.0210844273684,0.0143638340056,-0.00831589918768,5.3907585144,1.4063116312,-0.05136077106,-0.585685789585,2.03822207451,-0.0685309544206
2017/07/09/10:24:46.821473,547149,1499567089,628920430,,0.781441939255,0.396452111729,0.164249345484,0.623839298456,0.779059115907,0.0542277258886,0.0308346780138,-0.00428828226031,-0.0136312481775,-0.00324825275269,-0.00350471642461,0.0145094099716,-0.0197167840812,5.53168344498,1.55833411217,0.0432521551847,-0.660983681679,2.11761379242,-0.109140373766
2017/07/09/10:24:46.831744,547150,1499567089,638924883,,0.780799678431,0.396235206987,0.163534414384,0.624019329276,0.778990226637,0.0535443032591,0.0301182848546,-0.0161027062848,-0.00209128655842,-0.00982155959555,0.00297587453856,0.0348870115349,-0.0169599812884,5.55775022507,1.86447632313,0.0155851654708,-0.776795983315,2.12571191788,-0.101677492261
2017/07/09/10:24:46.841803,547151,1499567089,648918060,,0.780837347167,0.39567045614,0.163625108034,0.623892887676,0.779094371239,0.0532942832686,0.0304851567569,0.000340920384852,-0.00753272423192,-0.00922229015118,0.00950294105413,0.0118445679607,-0.0271056379036,5.89117670059,1.9209433794,0.217559456825,-0.808930397034,2.27819514275,-0.105574257672
2017/07/09/10:24:46.851635,547152,1499567089,658980728,,0.781026249871,0.396071173247,0.164060881205,0.623830605047,0.779111291396,0.0537479362829,0.0305308232993,0.0142487909241,-0.0224184089339,0.0114752056552,-0.010013657262,-0.0268843034948,-0.0359750778762,4.88630962372,1.80019009113,0.145416110754,-0.665641903877,1.89487624168,-0.0886678546667
2017/07/09/10:24:46.861830,547153,1499567089,668979606,,0.781078898947,0.396001654286,0.163798146062,0.624150871846,0.778855974958,0.0538096214062,0.0303905263322,0.0127549505183,-0.0340056561502,-0.00125391737915,-0.0225624713235,-0.0178448027194,-0.0305111440011,5.00077152252,1.98013007641,0.0496664084494,-0.738872528076,1.9325773716,-0.0750706195831
2017/07/09/10:24:46.871509,547154,1499567089,678983161,,0.781480280923,0.394965377259,0.163578698046,0.624635983584,0.778468467774,0.0537706796027,0.0304211556145,0.0128428751533,-0.0297443063301,-0.00808786565554,-0.020060437737,-0.00949168862527,-0.0110808081492,5.07393360138,2.09692454338,0.232201844454,-0.750268280506,1.98881661892,-0.0940099060535
2017/07/09/10:24:46.881667,547155,1499567089,688984747,,0.780716851815,0.395669971795,0.163383824203,0.623996960227,0.779022692677,0.0533726482772,0.0300466027535,0.00960483297838,-0.0507925746505,-0.00111915375474,-0.0367457264298,-0.000777138279961,-0.0609775011696,4.39521312714,1.88978517056,0.189701646566,-0.594897150993,1.73604607582,-0.0469379872084
2017/07/09/10:24:46.891672,547156,1499567089,698999754,,0.781741101413,0.394409363748,0.163917942433,0.624680816797,0.778424544304,0.0535776293263,0.0309603550676,-0.0120995181567,-0.0274848989739,-0.0219629583298,-0.0233293529093,0.0341525164781,-0.034199974175,4.87896108627,1.97254264355,0.326052129269,-0.584796726704,1.96166503429,-0.045466452837
2017/07/09/10:24:46.901313,547157,1499567089,708981625,,0.781244867643,0.394772738616,0.163555718765,0.624861761527,0.778300326728,0.0535820373852,0.030419494841,0.00743996032847,-0.0445191983302,0.00464343549136,-0.0172262340755,-0.00645115050314,-0.0510847820888,5.25720500946,2.15712976456,0.476556956768,-0.652477920055,2.10397553444,-0.0476671159267
2017/07/09/10:24:46.911479,547158,1499567089,718985928,,0.781193141479,0.393697515315,0.163181342794,0.625388239703,0.777916745938,0.0530272300088,0.0303841884688,0.00522877892978,-0.0634937666107,-0.00745271153997,-0.0334232465034,0.015254719493,-0.0678363399414,4.74967861176,2.24275946617,0.41035759449,-0.648754537106,1.88519835472,-0.0590759590268
2017/07/09/10:24:46.921589,547159,1499567089,728983239,,0.781658685739,0.393274254661,0.16386119865,0.625222074064,0.778005428106,0.0533681464908,0.030931422205,0.00775177949794,-0.058011664682,-0.00236190574659,-0.0201772503973,0.00871086615267,-0.0712408099681,4.83689308167,2.29249024391,0.298342615366,-0.715369164944,1.8781414032,-0.097039654851
2017/07/09/10:24:46.931420,547160,1499567089,738987389,,0.781248207321,0.392972087469,0.163312576217,0.625337719246,0.777955563641,0.0529534373084,0.0305583272667,0.00301349099488,-0.0419012135927,-0.00284281584323,0.00252155895637,0.0139002805199,-0.0663853750141,4.92425966263,2.1868481636,0.431216031313,-0.593815207481,1.92193508148,-0.032568603754
2017/07/09/10:24:46.941350,547161,1499567089,749031672,,0.781137837113,0.39220265295,0.16297856282,0.625825462331,0.777603098028,0.0525438104408,0.0302499689286,0.00191884714736,-0.0438667485238,-0.00988637449822,-0.0172589567694,0.0134436342227,-0.0575325033537,4.90437269211,2.12862491608,0.573944926262,-0.546333193779,1.91385304928,-0.0291001647711
2017/07/09/10:24:46.951488,547162,1499567089,758989517,,0.781274191258,0.391571248847,0.162955385338,0.626007977184,0.777442595863,0.0525635959011,0.0305629027498,0.00570279685535,-0.0820511338641,-0.0088661200961,-0.0346006195353,0.0157221192902,-0.0922248848537,5.45404338837,2.12099504471,0.589434802532,-0.517240405083,2.13565993309,0.00698920339346
2017/07/09/10:24:46.961524,547163,1499567089,768978855,,0.781791435706,0.390799288975,0.163224196529,0.626619308422,0.776924124125,0.0527632125731,0.0308737925056,0.000147219741638,-0.0711817970967,-0.0121082822048,-0.00623894831172,0.031556238065,-0.0860489494789,5.44606351852,2.27146053314,0.630872547626,-0.597282290459,2.11072468758,-0.0310806334019
2017/07/09/10:24:46.971578,547164,1499567089,778980414,,0.781739857091,0.389657654542,0.163263819998,0.6270103324,0.77662784317,0.0524501452991,0.0309227834419,0.00668488275176,-0.0721375333031,-0.0135300363139,0.00158926579889,0.026792937802,-0.0959051749894,5.18916654587,2.19428420067,0.723645508289,-0.595554113388,2.0171122551,-0.0589787885547
2017/07/09/10:24:46.981610,547165,1499567089,788985892,,0.781813955641,0.389181283118,0.163229710808,0.627211286963,0.776473376514,0.0523979805709,0.0308147481413,0.00801434895603,-0.0844272662936,-0.0112354918872,-0.0124307424966,0.0186216552036,-0.105658949182,5.10313844681,2.20292806625,0.713673532009,-0.549392700195,2.00644659996,-0.0230112224817
2017/07/09/10:24:46.991566,547166,1499567089,798985524,,0.781837046208,0.388762970768,0.163235538766,0.627796870157,0.77599726225,0.052684530601,0.0303920884096,0.0179727660924,-0.090771021618,0.00211936890515,-0.00830182567596,-0.0011498608299,-0.114857940232,4.84412097931,2.05502414703,0.640740871429,-0.510161817074,1.84448182583,-0.0222339779139
2017/07/09/10:24:47.001358,547167,1499567089,808983179,,0.782016479978,0.387312453672,0.162818824529,0.62805645021,0.775806377331,0.052165348868,0.0307950745997,0.0150102291278,-0.093942507342,0.000481893417673,0.00492939595191,0.00681114404415,-0.12721523381,4.59281587601,2.05209732056,0.657222390175,-0.521767914295,1.77712380886,-0.0033174008131
2017/07/09/10:24:47.011672,547168,1499567089,818981782,,0.782207340377,0.386340559401,0.162919295646,0.628697390759,0.775289956307,0.0521462925138,0.0307544903835,0.01201309526,-0.0883777890882,2.17067951179e-05,0.00878425378663,0.00628682651504,-0.135649188451,5.30504703522,2.82893705368,0.610810160637,-0.954708039761,2.00126695633,-0.138714894652
2017/07/09/10:24:47.021522,547169,1499567089,828980859,,0.782208968007,0.386094579091,0.162785979481,0.628816977039,0.775192541434,0.0521510735421,0.0307570905624,0.015530743218,-0.0966329463486,0.00663045677339,-0.0257153861074,-0.00583826032141,-0.147349791709,4.9240732193,4.32944869995,0.901638805866,-1.7623218298,1.80828917027,-0.319266289473
2017/07/09/10:24:47.031562,547170,1499567089,838987129,,0.782486994821,0.384188165743,0.162605416829,0.630134955873,0.774142236977,0.0518277357125,0.0307834391451,0.0161518020893,-0.0980311190361,0.00151361485937,-0.026490270717,0.00491869651331,-0.120076034931,4.96338558197,5.2154750824,0.897251665592,-2.15902137756,1.80269420147,-0.376529842615
2017/07/09/10:24:47.041639,547171,1499567089,848987810,,0.782475818511,0.383992931292,0.162930152249,0.630325387792,0.773991478911,0.0517770590355,0.0307608880933,0.0164452763095,-0.121923954732,-0.00215385026168,-0.0281216664279,0.0210006539102,-0.175150521902,3.87189078331,4.1615729332,0.494851201773,-1.57852160931,1.32529902458,-0.248892277479
2017/07/09/10:24:47.051301,547172,1499567089,858980217,,0.782864947362,0.381546770469,0.163100295355,0.631317375147,0.773173931586,0.0515235101734,0.0313969943211,0.0188319369614,-0.135657853196,-0.000212596710339,-0.0640391520299,-0.00424338544907,-0.167780979701,2.72353863716,1.60421991348,0.115973517299,-0.331888616085,0.94324028492,-0.00292787700891
2017/07/09/10:24:47.061628,547173,1499567089,868987670,,0.78310196994,0.380310854729,0.16340022566,0.631550206726,0.772975735832,0.0511850081539,0.0321394327894,0.0159985912906,-0.150459912864,0.00435464717929,-0.0965508476886,-0.0180743402464,-0.15989327647,3.35438585281,1.70225572586,0.174000829458,-0.479910552502,1.20470273495,-0.0985716730356
2017/07/09/10:24:47.071724,547174,1499567089,878979901,,0.783286831897,0.379296075779,0.163103650584,0.632328958174,0.772343039792,0.0512329029424,0.0319610261866,0.0065342186627,-0.156206443177,-0.0119663159999,-0.0982371758391,0.00984668625941,-0.16628556438,4.84418439865,1.94972801208,0.312497019768,-0.594673991203,1.80568540096,-0.0668114498258
2017/07/09/10:24:47.081425,547175,1499567089,888981594,,0.78228569165,0.377506780014,0.16206749404,0.63288999661,0.77199942271,0.0498334307371,0.0313651511722,0.00177968525199,-0.145440032768,-0.0105264299099,-0.0531744609635,0.0331003370639,-0.176159730497,5.71901893616,2.04210877419,0.378623694181,-0.645214080811,2.10105395317,-0.0780651122332
2017/07/09/10:24:47.091285,547176,1499567089,899005116,,0.782771301305,0.375697418561,0.162659448957,0.633950807955,0.771104321673,0.0500170154051,0.031666960063,0.00451752193007,-0.135488879984,-0.00413277092973,-0.0144848038195,0.0411663650848,-0.189793663944,6.18187570572,2.22365283966,0.0553712546825,-0.644075214863,2.17658138275,-0.0422275625169
2017/07/09/10:24:47.101532,547177,1499567089,908988245,,0.783104828927,0.374692203557,0.162839462087,0.634826441412,0.770382857476,0.0501201376229,0.0315216432935,-0.00517718719712,-0.132580167617,0.00287942307591,-0.0216530441552,0.0611057797819,-0.188889820739,5.51952838898,2.0799601078,0.0492308586836,-0.460047364235,1.89859616756,0.0145876780152
2017/07/09/10:24:47.111737,547178,1499567089,918984028,,0.783154403405,0.372707131045,0.162771156364,0.635457138554,0.769895873937,0.0494706058792,0.0317368478251,-0.00309372101062,-0.169161706764,0.00355503371416,-0.0494771531902,0.0586390331033,-0.209598943518,4.76989364624,0.668471813202,0.0265853945166,0.355531692505,1.62124848366,0.183324038982
2017/07/09/10:24:47.121400,547179,1499567089,928980751,,0.783201593741,0.371117784168,0.162588275177,0.636371517377,0.769162143321,0.0492544311352,0.0315418795738,0.00690466973843,-0.211149434809,0.000362643806973,-0.0647438760204,0.0519585025297,-0.251485306907,4.14438724518,-0.838859856129,0.105177015066,1.12723314762,1.46211957932,0.364366233349
2017/07/09/10:24:47.131481,547180,1499567089,938980759,,0.783261413959,0.369537850668,0.162913537322,0.637118402572,0.768544787106,0.0492300075409,0.0315508743766,0.0134294956284,-0.175625020161,-0.00375907423365,-0.0183856026964,0.0375997920698,-0.237183053146,4.12249565125,-1.21526765823,0.0208654999733,1.19892609119,1.42028951645,0.364180415869
2017/07/09/10:24:47.141578,547181,1499567089,948978690,,0.783151379088,0.368089638903,0.162786581217,0.638162826587,0.767703074796,0.0489968645595,0.0312970122399,0.000577326780632,-0.175699244668,-0.0158641488819,0.00621719139851,0.0708196793752,-0.270541419617,5.07993030548,-0.411435186863,0.115797244012,0.70244461298,1.77258574963,0.25429263711
2017/07/09/10:24:47.151473,547182,1499567089,959009422,,0.782908820111,0.367052546293,0.162512429097,0.638968163138,0.767074417347,0.0486593749467,0.0308024346018,0.0116207112129,-0.165725008716,0.000991654058513,0.0226240168441,0.0299022268873,-0.258091828708,5.25616264343,0.528032243252,0.159477904439,0.123492762446,1.79409444332,0.109481886029
2017/07/09/10:24:47.161551,547183,1499567089,968980173,,0.783084815242,0.364832261673,0.162464885228,0.639974939232,0.766251851005,0.0483631690234,0.0308412365018,0.00961837803171,-0.146358526841,0.00601076971316,0.021035636218,0.0375383934889,-0.233689328663,5.84829330444,1.53472232819,0.193094983697,-0.454455345869,1.96195054054,-0.00439540669322
2017/07/09/10:24:47.171512,547184,1499567089,978988151,,0.782908796822,0.363139866153,0.162058308963,0.641144229491,0.765314823002,0.0479288900462,0.0304978717664,-0.00690219013029,-0.154837540885,-0.0116994615537,0.0136801440735,0.0822825605836,-0.240316684794,6.00738620758,1.85955476761,0.135658532381,-0.586247622967,1.96390140057,-0.0279233977199
2017/07/09/10:24:47.181648,547185,1499567089,988987304,,0.782974738459,0.360989665444,0.162127116038,0.64228515406,0.764389545088,0.0473790295705,0.0305553888993,-0.00366149756511,-0.197852754853,-0.00667740891567,-0.0280732499778,0.0795796310396,-0.291788226245,5.86165237427,1.89240109921,0.144438013434,-0.556805729866,1.86731290817,-0.0435528233647
2017/07/09/10:24:47.191588,547186,1499567089,998985731,,0.783363555727,0.359441083057,0.162209893598,0.643501018331,0.763362953001,0.0473822431549,0.0306327345357,0.00843992313692,-0.192371129355,-0.0123591215403,-0.0446879634766,0.044467439623,-0.311051535254,6.25204992294,1.61720848083,0.144247502089,-0.382918089628,2.05269360542,-0.00288077257574
2017/07/09/10:24:47.201736,547187,1499567090,8980718,,0.783719593974,0.357802802251,0.162568318694,0.64564471091,0.761523838376,0.0476290608781,0.0309163940094,0.016974760426,-0.188584012691,-0.00570496747615,-0.0210735318394,0.0275449698654,-0.410995795948,5.73340749741,1.24809205532,0.224419385195,-0.123094826937,1.93066692352,0.0406166911125
2017/07/09/10:24:47.211627,547188,1499567090,18983878,,0.783902267025,0.354623389159,0.162578808076,0.64828716876,0.759296630822,0.0471386238612,0.0311500141775,0.00685126787684,-0.218338856717,-0.00354651243916,-0.0224574576464,0.0563194152362,-0.541887743751,6.06388998032,1.22624921799,0.443593144417,-0.108181595802,2.15099549294,0.0609124004841
2017/07/09/10:24:47.221698,547189,1499567090,28984868,,0.784079053025,0.352681579045,0.162378495912,0.650506625644,0.757405876315,0.0471275054636,0.0309267965601,0.0181539109736,-0.256258519051,-0.000847154166044,-0.0240820860455,0.047765336486,-0.676445435855,5.63825368881,1.13538944721,0.56353610754,-0.1082553491,2.03873753548,0.0822938680649
2017/07/09/10:24:47.231509,547190,1499567090,38987398,,0.784113295783,0.350926154846,0.162184032545,0.65139999733,0.756676189829,0.0465921966757,0.03079536382,0.0234669958935,-0.243594374207,0.00994714745736,-0.0164759424167,0.0226180028905,-0.552693257498,5.37966585159,1.0440735817,0.551394879818,-0.0955839157104,1.92587947845,0.111398018897
2017/07/09/10:24:47.241544,547191,1499567090,48982410,,0.783722747923,0.348729216106,0.162228857812,0.652325930225,0.75591836089,0.0459998541662,0.0306973262947,0.0092698046426,-0.20708426899,-0.000922794159844,0.00847076354507,0.0521918215374,-0.352112007301,5.19761514664,1.17981958389,0.384135127068,-0.19677130878,1.80298256874,0.113632708788
2017/07/09/10:24:47.251420,547192,1499567090,58998401,,0.783936286038,0.346267031129,0.162378729303,0.65368735684,0.754769183227,0.0455612245163,0.0306674807925,0.00554626346659,-0.244508097248,0.00692175758493,-0.0405851675457,0.0524486292267,-0.321469113022,4.23009490967,0.992659270763,0.336341619492,-0.185878753662,1.3946557045,0.0560710690916
2017/07/09/10:24:47.261533,547193,1499567090,68986725,,0.783759005089,0.34324242252,0.161898519208,0.654660163047,0.753969049676,0.0447574861929,0.0307816581697,-0.00192658373842,-0.249396388725,-0.0158339297349,-0.0692188252717,0.074074737768,-0.28256073306,4.82145261765,0.881180167198,0.498427093029,-0.0882889702916,1.66503536701,0.102213598788
2017/07/09/10:24:47.271499,547194,1499567090,78986698,,0.784025335544,0.341154262502,0.161941606995,0.655510356351,0.753226945887,0.0446971015208,0.0309436556031,0.00528602218752,-0.256419830415,-0.0152685859806,-0.0754944821671,0.0543482405101,-0.284089298041,4.3635597229,0.67441534996,0.586380600929,0.0245979875326,1.52025151253,0.0890579223633
2017/07/09/10:24:47.281565,547195,1499567090,88987440,,0.784517711135,0.337600384207,0.161974793447,0.657006753691,0.751930176532,0.0439427582718,0.0318146070083,0.00723610740152,-0.27641299123,-0.0117586195345,-0.0931296365615,0.0470205731626,-0.29073691217,4.60930490494,0.753122210503,0.62795573473,0.0113949803635,1.65427076817,0.11046873033
2017/07/09/10:24:47.291687,547196,1499567090,98985470,,0.784091104574,0.335138905296,0.16157749681,0.658150713312,0.750993348204,0.0431601915049,0.0313660228427,0.0103313830211,-0.293891704326,-0.00626011669767,-0.105930222945,0.0415326830113,-0.320066295605,4.42593955994,0.660387575626,0.77023345232,-0.00406059250236,1.60982036591,0.0858216956258
2017/07/09/10:24:47.301429,547197,1499567090,108996504,,0.784310511329,0.331846734937,0.161400680582,0.659503748246,0.749819925527,0.0424523104411,0.0319794726566,-0.00230875272293,-0.297314630204,-0.0130926080075,-0.111106216506,0.0597894344468,-0.325608231954,4.37037372589,0.942073702812,0.656702637672,-0.0796242728829,1.55673384666,0.075161844492
2017/07/09/10:24:47.311737,547198,1499567090,118987749,,0.784040564265,0.329963767692,0.161261710706,0.660340797777,0.749119972248,0.0419444343569,0.0317799055535,0.0020277423642,-0.315818873422,-0.00537478968682,-0.129629088235,0.0496377687488,-0.344867375322,4.18296575546,0.966933190823,0.55259680748,-0.185175687075,1.4644998312,0.0318366102874
2017/07/09/10:24:47.322142,547199,1499567090,128994235,,0.783858049721,0.32641471878,0.161221721791,0.66177314604,0.74789107616,0.0411570174913,0.0319584306681,-0.0257778636677,-0.298517324699,-0.0210354599713,-0.120245954708,0.110735575002,-0.319973835765,3.95889163017,0.804523825645,0.338599532843,-0.104522317648,1.33566951752,0.0324334353209
2017/07/09/10:24:47.331590,547200,1499567090,138987677,,0.784136428914,0.324130482535,0.16173572801,0.662703734519,0.747050808241,0.0410485412327,0.032463324278,-0.0222457757505,-0.291098438934,-0.0181992969723,-0.0878278316948,0.0878940667664,-0.340144371861,4.56473779678,1.1360296011,0.180051341653,-0.296505868435,1.55032885075,0.0272886138409
2017/07/09/10:24:47.341882,547201,1499567090,148980351,,0.783988179893,0.320356180521,0.160999461431,0.664353232362,0.745625785304,0.040196852236,0.0325758193961,-0.0160699248617,-0.29549874055,-0.00982283734995,-0.086830798039,0.0584015092862,-0.342123128794,4.16537857056,0.637851774693,0.0956023111939,-0.038606107235,1.40494024754,0.0829450562596
2017/07/09/10:24:47.351419,547202,1499567090,158981359,,0.783900922009,0.31777655774,0.161251695055,0.665264055766,0.744820816189,0.0398751032863,0.0327973171984,-0.0132885733183,-0.31619991804,-0.0241686612833,-0.107346991961,0.0575978351479,-0.345742669367,3.8879032135,0.690757572651,-0.0861159488559,-0.0112519431859,1.31991243362,0.0857737213373
2017/07/09/10:24:47.361887,547203,1499567090,168986387,,0.783546773893,0.314964464865,0.160307208923,0.666561531146,0.743711723844,0.039133789316,0.0325137439772,-0.0124296973848,-0.325918851259,-0.0348224677767,-0.0997461367965,0.0588286209421,-0.358944938354,3.83552312851,0.0518313683569,-0.149997964501,0.108393825591,1.31510412693,0.0820302069187
2017/07/09/10:24:47.371523,547204,1499567090,178992764,,0.783419292857,0.311259117724,0.159780214831,0.668242558187,0.742236638581,0.0383562716,0.032641265369,-0.00676198336045,-0.322246638866,-0.0208858990501,-0.0704935034029,0.0440222810458,-0.382034429574,2.89574718475,-0.182900503278,-0.403752148151,0.12158216536,0.982784450054,0.0528303161263
2017/07/09/10:24:47.381474,547205,1499567090,188983088,,0.783017410414,0.308736683668,0.159809342528,0.669533537474,0.741099889676,0.0381291575166,0.0322794527184,-0.00506244222319,-0.320861722428,-0.0233805309282,-0.0547602891935,0.0368714265718,-0.410451352286,3.27520513535,0.0316509082913,-0.310003399849,0.098588578403,1.17303454876,0.077266305685
2017/07/09/10:24:47.391526,547206,1499567090,198979544,,0.782916013543,0.306075637088,0.159364854579,0.670844101002,0.739927682626,0.0378600129516,0.0322774852528,-0.0203639688057,-0.283792383158,-0.03715350266,-0.0174981507298,0.0686422791411,-0.363501923635,3.2610707283,0.423667192459,-0.235502019525,-0.0704711005092,1.12494909763,0.0356892086565
2017/07/09/10:24:47.401508,547207,1499567090,208979438,,0.782747590519,0.303172441426,0.159113314616,0.672057756619,0.7388472844,0.0374922675257,0.0322085699616,-0.0351364087331,-0.310953013976,-0.044151382595,-0.0589828905313,0.104770739813,-0.366122221492,3.32429456711,0.486549496651,-0.135887637734,-0.21349440515,1.15124356747,-0.0243193022907
2017/07/09/10:24:47.411457,547208,1499567090,218986373,,0.782614285941,0.299212026735,0.158793345438,0.673779834588,0.737302850055,0.0369205206373,0.0322818363734,-0.0329838535025,-0.336635485154,-0.0379243524601,-0.0641211686624,0.094086895025,-0.411009204842,3.13390183449,0.19832238555,0.0200981087983,-0.0109153203666,1.12844479084,0.0186222977936
2017/07/09/10:24:47.421436,547209,1499567090,228980188,,0.782102787986,0.297548864207,0.158185393099,0.674675213722,0.736526748416,0.0363386022425,0.0319563897217,-0.0434263442827,-0.315980829482,-0.0475088648577,-0.0406394717772,0.120603816505,-0.400108464085,2.86985874176,0.54505854845,-0.0921481847763,-0.201169803739,0.97864317894,-0.037801720202
2017/07/09/10:24:47.431614,547210,1499567090,238988528,,0.782161110272,0.292982445041,0.158015504534,0.676901902263,0.734488160664,0.035848084855,0.0323399346014,-0.0273090171512,-0.292731746539,-0.0365431399995,-0.0181966534555,0.0779345975198,-0.377360560867,2.91531443596,0.0244672186673,0.0202580019832,-0.0266224239022,1.03274023533,-0.010915864259
2017/07/09/10:24:47.441583,547211,1499567090,248989140,,0.780961669434,0.290694140759,0.157253683093,0.678418818624,0.733180684917,0.035165352803,0.0309416832686,-0.0345398765288,-0.298506394998,-0.0301528788723,-0.00514957142523,0.083830512172,-0.406038087338,2.33006191254,-0.012295179069,-0.115146197379,0.00762218609452,0.849739789963,-0.00791217014194
2017/07/09/10:24:47.451665,547212,1499567090,258987690,,0.781125146324,0.288174927067,0.157306760716,0.679366601145,0.732279011241,0.035145173139,0.0315164679231,-0.0431531026593,-0.319618349516,-0.0424602067309,-0.0230409610007,0.0993155520579,-0.413199066471,2.62258219719,0.223391979933,0.0618560165167,-0.0642662420869,0.965037465096,-0.0131047815084
2017/07/09/10:24:47.461559,547213,1499567090,268984903,,0.78072769442,0.285361726335,0.157114185895,0.680672365446,0.731095449817,0.034920995716,0.0310660302199,-0.0344727030808,-0.299381229758,-0.0330216030139,0.0100016569777,0.079805401627,-0.408065545998,2.68794465065,0.0301636680961,-0.0223516058177,-0.0164881870151,1.02821290493,-0.0258250683546
2017/07/09/10:24:47.471653,547214,1499567090,278986680,,0.780523224996,0.281368306744,0.156497258578,0.682787074322,0.729149668996,0.0343392190961,0.0310385143625,-0.0336371079252,-0.326512170387,-0.03989890798,-0.0181439966494,0.0787187907805,-0.434270026201,2.16942572594,-0.257590204477,-0.16468860209,-0.00568130798638,0.831108927727,-0.0372234284878
2017/07/09/10:24:47.481455,547215,1499567090,288987301,,0.779988008935,0.278438272647,0.155895074682,0.684199887402,0.727860965955,0.0337756901083,0.0307917371378,-0.043303596097,-0.309053142309,-0.0375696198098,-0.00802030477576,0.086288566931,-0.406259183702,1.75603723526,-0.414735913277,-0.115934282541,0.123295217752,0.703197181225,-0.0188451856375
2017/07/09/10:24:47.491717,547216,1499567090,298987367,,0.780129108757,0.275655424006,0.156477645679,0.685268963067,0.726831135108,0.0338670277853,0.0312405781755,-0.0497294673249,-0.319093813225,-0.0435360998914,-0.0115860360977,0.0994292264562,-0.418693987341,2.10397362709,-0.277771860361,0.0444679297507,0.138061478734,0.847209751606,0.00649536773562
2017/07/09/10:24:47.501637,547217,1499567090,308981588,,0.779457196294,0.272955378803,0.155539596726,0.686572462552,0.725650268068,0.0332682822546,0.0307109673325,-0.0441941161157,-0.32510986632,-0.0424557584841,-0.0212411212949,0.0995483221698,-0.424526509249,2.22864866257,-0.237241849303,0.11173453927,0.0323727354407,0.92674434185,-0.0455455034971
2017/07/09/10:24:47.511647,547218,1499567090,318986498,,0.778643951074,0.268925232321,0.15508269304,0.688851773117,0.723540817239,0.0325204530891,0.0302380653175,-0.0438788907807,-0.317797523292,-0.0299439217494,-0.0271634901828,0.0846402114518,-0.422982050686,0.888307988644,-0.905652165413,0.425095617771,0.314251929522,0.42355170846,-0.00182942301035
2017/07/09/10:24:47.521437,547219,1499567090,329010478,,0.778598472549,0.265915636166,0.154888366541,0.690272134541,0.722194915976,0.0324489227082,0.03009902041,-0.0526726232574,-0.334122200105,-0.0379766242178,-0.0152043347194,0.108788612447,-0.470581099768,0.465408623219,-1.09903264046,0.299142330885,0.413262873888,0.239604905248,0.0162279158831
2017/07/09/10:24:47.531452,547220,1499567090,338992537,,0.777990354085,0.263610313484,0.154288905727,0.691328292374,0.721224456751,0.0319622497239,0.0296460746318,-0.0447618173006,-0.309780711023,-0.0348263002119,0.0206075628857,0.0977123829191,-0.429769319187,0.645019412041,-0.527582526207,0.152616217732,0.187778547406,0.296063601971,-0.019279204309
2017/07/09/10:24:47.541533,547221,1499567090,348979732,,0.777708119825,0.261078358659,0.154015618625,0.693068183375,0.719565964271,0.032118614287,0.0291498005482,-0.0486169468037,-0.30706198785,-0.0455587001389,0.00547697541097,0.103497777211,-0.420895999038,0.283461660147,-0.608756363392,0.547878146172,0.239393264055,0.184242367744,0.00601879507303
2017/07/09/10:24:47.551610,547222,1499567090,358987085,,0.776857928593,0.25769403579,0.153430716466,0.694229629772,0.718498748514,0.0310123502459,0.0290345253582,-0.0281926448655,-0.31356300582,-0.0324155931232,-0.0215126508883,0.0440243397725,-0.420620560182,1.00334560871,0.740934669971,0.633616745472,-0.573718607426,0.464782893658,-0.226042598486
2017/07/09/10:24:47.561518,547223,1499567090,368992753,,0.776949151414,0.255095779747,0.153642893514,0.695389892059,0.71736544941,0.0308575548681,0.0294537149327,-0.0530801419633,-0.301679418585,-0.0445185225494,-0.0249929670254,0.104473335113,-0.403494603801,1.32317352295,1.61410057545,0.607037067413,-1.04006850719,0.587940275669,-0.308932691813
2017/07/09/10:24:47.571618,547224,1499567090,378995667,,0.776098274822,0.252131649207,0.15253162384,0.697086581129,0.715775571184,0.0301305977872,0.0287711171847,-0.0526238846535,-0.334359197447,-0.0400985037622,-0.0575113519036,0.0958253639689,-0.415353304094,0.578281283379,1.85241472721,0.620344996452,-1.04092156887,0.332722038031,-0.303777992725
2017/07/09/10:24:47.581487,547225,1499567090,388980426,,0.775593910799,0.248586685243,0.152677973868,0.698393907512,0.714508985749,0.0295738401716,0.0291246838743,-0.0597181863549,-0.337190191941,-0.0475094265814,-0.0554322914292,0.109914523153,-0.423168802199,0.0102807749063,1.09521830082,0.887360036373,-0.550231695175,0.106189444661,-0.184567093849
2017/07/09/10:24:47.591576,547226,1499567090,399000258,,0.775430918779,0.244622991648,0.152645612446,0.70015564517,0.712791374488,0.0289288235676,0.0295576074723,-0.0529978517053,-0.356274876244,-0.0323599780381,-0.0688774668179,0.0856680428514,-0.43276483776,-0.976232647896,0.161729544401,1.24538433552,0.0439477525651,-0.222120270133,-0.0507786422968
2017/07/09/10:24:47.601526,547227,1499567090,409014423,,0.77420015796,0.242061516964,0.151352793109,0.701284066029,0.71175395818,0.0280969027167,0.0285924082057,-0.0395398969803,-0.361663562667,-0.0230254227741,-0.109453357587,0.0479039689262,-0.411120686069,-1.89480745792,0.0561138018966,0.839130520821,0.268450796604,-0.523822844028,-0.0619184374809
2017/07/09/10:24:47.611384,547228,1499567090,418983859,,0.774434010858,0.238059811688,0.151751922659,0.703073771554,0.709960668897,0.0279265806635,0.0293807158764,-0.0346453381156,-0.35016727252,-0.0109974526389,-0.0886172694971,0.0389932027444,-0.42476478202,-1.86239528656,-0.151936113834,0.940587341785,0.349917680025,-0.555282771587,-0.0306407175958
2017/07/09/10:24:47.621431,547229,1499567090,428979627,,0.774060236775,0.23455255322,0.151678182396,0.704402345767,0.708651413532,0.0273570050806,0.0297002297876,-0.0289900115145,-0.340088304704,-0.00636886635017,-0.0547088387036,0.0219840181297,-0.428612399563,-2.51657557487,-0.255640000105,1.11416864395,0.31216019392,-0.83972966671,-0.0103024803102
2017/07/09/10:24:47.631526,547230,1499567090,438988155,,0.773640778091,0.232488639225,0.151597246531,0.705704410346,0.707374505338,0.0273363486357,0.0292458280789,-0.0363205139247,-0.340171127208,-0.026365338065,-0.0576471413623,0.0489636879535,-0.436637111972,-2.36956167221,0.12739340961,1.12546265125,-0.0147115038708,-0.830646693707,-0.0302301645279
2017/07/09/10:24:47.641515,547231,1499567090,449010295,,0.773723774277,0.228134116914,0.151690782502,0.707393375163,0.705671065979,0.0267528279787,0.0301205181156,-0.0320626948937,-0.341763455479,-0.0149726906293,-0.0761951518041,0.0364219072788,-0.425498201903,-3.52767705917,-0.0229944288731,1.49711370468,-0.122007094324,-1.25639128685,-0.093594700098
2017/07/09/10:24:47.651250,547232,1499567090,458980177,,0.773215904182,0.225078464484,0.15128175797,0.708538085134,0.704537383432,0.0260937542926,0.0303310607874,-0.0336104445648,-0.353663089528,-0.00368320149278,-0.0841024084954,0.0250854268122,-0.421691723333,-4.2453751564,-0.0516910105944,1.70785295963,-0.0178942866623,-1.55932676792,-0.0824710354209
2017/07/09/10:24:47.661240,547233,1499567090,468979892,,0.772860709513,0.221186173727,0.150819469873,0.710261004361,0.702819462643,0.0257102961947,0.0302173672568,-0.0504166507842,-0.391962280649,-0.0283036155684,-0.110087651765,0.0632731866567,-0.449093555277,-4.93835926056,-0.109937556088,1.70769679546,0.0288653001189,-1.79355216026,-0.067973703146
2017/07/09/10:24:47.671794,547234,1499567090,478987268,,0.772454191382,0.217124654235,0.150756555416,0.711396918376,0.701669068045,0.0246725485823,0.0310838997019,-0.0475488515627,-0.369015807216,-0.032315182735,-0.116179045925,0.0619288911609,-0.421055248748,-4.67834758759,-0.0570089444518,2.03297829628,0.0157425887883,-1.67578518391,-0.0952884182334
2017/07/09/10:24:47.681574,547235,1499567090,488995389,,0.771988342566,0.21454493799,0.15055088884,0.712345460264,0.70071832653,0.0241980045483,0.0311805818006,-0.0379561185489,-0.351235186774,-0.025765682722,-0.1385848447,0.0416725544083,-0.380094430573,-5.42813014984,-0.0410656034946,2.2765557766,0.0548025332391,-1.94740760326,-0.0803484916687
2017/07/09/10:24:47.691503,547236,1499567090,498987161,,0.772000031792,0.209980033696,0.150388037987,0.714257856455,0.698751425363,0.0235618035007,0.0320468635123,-0.0320591114611,-0.359148371244,-0.0130856887485,-0.126636110894,0.0206963171516,-0.406739123305,-6.09026622772,-0.0446435213089,2.34720635414,0.0169996395707,-2.22785806656,-0.0777274668217
2017/07/09/10:24:47.705531,547237,1499567090,508981494,,0.771544076507,0.206821499344,0.150382339993,0.715475623747,0.697517641323,0.0228600355048,0.0322674858619,-0.0441873079691,-0.373940043437,-0.0192859002268,-0.14912079583,0.0506612186801,-0.405593118388,-6.20807027817,-0.458474367857,2.22880077362,0.21975722909,-2.27999329567,0.00323701277375
2017/07/09/10:24:47.711910,547238,1499567090,518984007,,0.770875026189,0.203624535679,0.149904899794,0.71684304931,0.696137478766,0.022297707082,0.0321164377366,-0.0327564737437,-0.365740774815,-0.00466932055963,-0.135406046461,0.0183907933452,-0.398415887463,-6.87857580185,-0.322919100523,2.28894662857,0.218061685562,-2.55994987488,0.014140330255
2017/07/09/10:24:47.721972,547239,1499567090,528982141,,0.770916530175,0.200838146985,0.150400497773,0.717585602478,0.695339108493,0.0219583099731,0.0330493561052,-0.0263190556272,-0.346131866224,-0.00407509968847,-0.128256445696,-0.00471299504387,-0.388125204708,-6.89104127884,-0.253391951323,2.84959340096,0.264912247658,-2.57848095894,0.0103136450052
2017/07/09/10:24:47.731525,547240,1499567090,538986423,,0.770651504841,0.19708829781,0.149958612868,0.719010893357,0.693864300451,0.0213824169119,0.0334433856067,-0.0409337464339,-0.356119147698,-0.00907359906271,-0.165046728983,0.0315740556376,-0.356325708364,-6.93188524246,-0.0542946010828,2.81446480751,0.0454655960202,-2.58914494514,-0.0711812898517
2017/07/09/10:24:47.742037,547241,1499567090,548985892,,0.769533288282,0.193613579004,0.149824512167,0.720045116726,0.692818817457,0.0200993252154,0.0336620436569,-0.0213053107886,-0.356744942177,0.00847810376898,-0.174975239236,-0.0137741206812,-0.338039803907,-7.80743932724,0.178588688374,2.89681529999,-0.0752929076552,-2.85546350479,-0.0730331838131
2017/07/09/10:24:47.751587,547242,1499567090,558986990,,0.769593932193,0.190451513014,0.149670056195,0.720851511774,0.691956676584,0.0193104130568,0.0345855989051,-0.0370135960797,-0.349049081729,0.00166618637667,-0.165160300347,0.0190130898551,-0.327760433385,-8.17464160919,-0.120227098465,3.29331111908,0.158862322569,-3.04430651665,0.0200379118323
2017/07/09/10:24:47.761434,547243,1499567090,568979259,,0.769747306272,0.187744770409,0.149912716757,0.721908439548,0.69081461554,0.0193040630434,0.0353655908566,-0.0237495672039,-0.338855450525,-0.00479425098295,-0.180212271161,-0.00107643696426,-0.314214737293,-8.19752979279,0.193729504943,3.15984535217,0.126762837172,-3.07178902626,0.017742998898
2017/07/09/10:24:47.771823,547244,1499567090,578986296,,0.770015248097,0.183359621553,0.150022503214,0.723264024771,0.689340609972,0.0189685498399,0.0365905456745,-0.0302220428528,-0.34047914989,-0.0163249008536,-0.178300364334,0.00921248097425,-0.313411015935,-8.17270374298,-0.448777318001,3.05516338348,0.290009111166,-3.07477760315,0.0492392703891
2017/07/09/10:24:47.781296,547245,1499567090,588980888,,0.769466619675,0.180601629316,0.149919451939,0.72432392948,0.688242605463,0.0180540396524,0.0367561268369,-0.00834793190663,-0.355287657787,-0.00963584384133,-0.19398924003,-0.0264729535034,-0.324218526141,-8.84754276276,-0.238011673093,2.64144015312,0.323083937168,-3.30325460434,0.0698719620705
2017/07/09/10:24:47.791473,547246,1499567090,598989028,,0.769682452996,0.176851167003,0.150123143813,0.72511289964,0.687359735708,0.0173495486109,0.038037740024,-0.0319989842275,-0.357525931366,-0.0165808713133,-0.207942783935,0.0227517115575,-0.319598082569,-9.12868309021,-0.198159560561,2.4772670269,0.25167876482,-3.45409679413,0.0640673041344
2017/07/09/10:24:47.801615,547247,1499567090,608987272,,0.768882313606,0.174049508692,0.14971641945,0.725912780586,0.686534002997,0.0160926176153,0.0382455928197,-0.0221336188259,-0.343293979877,-0.0112895964206,-0.224921450576,0.0075833980676,-0.295029080601,-10.4012031555,-0.0161047130823,2.27712106705,0.291895657778,-3.96945476532,0.131409049034
2017/07/09/10:24:47.811274,547248,1499567090,618987828,,0.768481603383,0.170557387153,0.149117003191,0.727019975341,0.685357137352,0.0153783954067,0.0386141773204,-0.0325588309645,-0.348124367502,-0.0179088520445,-0.230430083475,0.0316990869794,-0.290836878622,-11.4483776093,0.146921098232,1.8744635582,0.181463956833,-4.35705947876,0.110020264983
2017/07/09/10:24:47.821546,547249,1499567090,628987307,,0.768745401526,0.167815866812,0.149501983984,0.727492221552,0.684769018176,0.0147680556551,0.0403529907035,-0.0209372816197,-0.337120200426,-0.00253236139739,-0.225034202889,-0.00965635792889,-0.288854100058,-11.7234239578,0.45432972908,2.06800293922,0.0560497790575,-4.49279594421,0.121627531946
2017/07/09/10:24:47.831589,547250,1499567090,638984165,,0.767773978479,0.163835664503,0.148832562646,0.728998971216,0.683195445807,0.0133407214788,0.0403299881479,-0.0392620078345,-0.31877475189,-0.0267676641901,-0.208561955816,0.0346553328367,-0.278207418845,-12.0446243286,0.066069856286,1.96506690979,0.0615711808205,-4.55219841003,0.113649502397
2017/07/09/10:24:47.841361,547251,1499567090,648980652,,0.767771445596,0.161143842907,0.148356341686,0.72956238532,0.682564415277,0.0128140538521,0.0409920107779,-0.0391458026175,-0.341372224654,-0.019010199794,-0.241172231935,0.0344609823202,-0.278773144374,-11.9679670334,0.0892461612821,2.3453783989,0.0912506952882,-4.57833909988,0.112940758467
2017/07/09/10:24:47.851639,547252,1499567090,658981539,,0.767203017066,0.157641329121,0.148405005087,0.730272202888,0.681760539292,0.0113069686556,0.0421571964502,-0.0355557661235,-0.342238763335,-0.023331154763,-0.247074628776,0.0313356029332,-0.267804330059,-11.9550056458,-0.124259382486,2.03241062164,0.159579247236,-4.54492473602,0.137477278709
2017/07/09/10:24:47.861253,547253,1499567090,668982368,,0.766594784463,0.154863972927,0.14783696354,0.730982903045,0.680987000952,0.0101147738394,0.0426426000742,-0.0634090716553,-0.329890988249,-0.0506124527098,-0.29053460675,0.108401470855,-0.204634791323,-11.6528301239,-0.0737047791481,2.17125821114,0.292679190636,-4.48989295959,0.183048963547
2017/07/09/10:24:47.871762,547254,1499567090,678991087,,0.766578747912,0.151271939145,0.147991345969,0.731662443487,0.68018694689,0.00893706608321,0.0439990331813,-0.0503186250274,-0.32285513756,-0.0353520429209,-0.298172835826,0.076489643875,-0.206783676518,-11.3835697174,-0.256373137236,2.12649011612,0.439148873091,-4.41584730148,0.260182082653
2017/07/09/10:24:47.881710,547255,1499567090,688986544,,0.765690631947,0.14955088891,0.147338337941,0.731671628911,0.680179959027,0.00731618497386,0.0442529572186,-0.0531710083497,-0.310459373609,-0.0427598606719,-0.284097460822,0.0937174072482,-0.21695179113,-11.7562112808,0.415143251419,1.85744678974,0.408742547035,-4.58255147934,0.299715995789
2017/07/09/10:24:47.891450,547256,1499567090,698987284,,0.764983430073,0.145689031127,0.146564293072,0.732321019943,0.679456830677,0.0056738115002,0.0448569599811,-0.0568486847061,-0.293654242768,-0.0572980585114,-0.294007013654,0.114715580111,-0.169856749991,-11.8531398773,-0.572202682495,1.92568719387,0.575464129448,-4.61522054672,0.321943342686
2017/07/09/10:24:47.901423,547257,1499567090,708986895,,0.764614000398,0.143625099579,0.145962039688,0.732518952074,0.679198264137,0.00433070569584,0.0456831241658,-0.0544446637003,-0.329659471103,-0.0549688429463,-0.335077902698,0.106173684152,-0.178393566087,-11.9128293991,0.325934499502,1.66381716728,0.268119871616,-4.69140768051,0.223422527313
2017/07/09/10:24:47.911366,547258,1499567090,718980000,,0.764311065625,0.140343702549,0.145289368862,0.733207020024,0.67839076721,0.0030180682895,0.0467367523041,-0.0705556324204,-0.294488157104,-0.072874287417,-0.32755366855,0.152468320976,-0.14277953397,-12.4232559204,-0.0993739962578,1.47455346584,0.306719660759,-4.93466281891,0.277718305588
2017/07/09/10:24:47.921597,547259,1499567090,728983754,,0.763693894361,0.137714533101,0.144598923489,0.73334994703,0.678186235985,0.00116758517369,0.047538629096,-0.0592012121994,-0.299863650751,-0.0709913491481,-0.332057113231,0.134962610573,-0.153750389945,-11.6048355103,0.220501124859,1.76709449291,0.211239784956,-4.65816497803,0.272797465324
2017/07/09/10:24:47.931538,547260,1499567090,738989088,,0.762807839059,0.134030346257,0.143835281943,0.734220591814,0.6772068947,-0.000894827828973,0.0480639533333,-0.0498121701101,-0.309631025315,-0.0652287782188,-0.369252611675,0.116773202529,-0.137711399009,-11.6096048355,0.48048132658,1.1417388916,0.0445659086108,-4.6165728569,0.24817442894
2017/07/09/10:24:47.941590,547261,1499567090,748987365,,0.761678448826,0.131267354414,0.142548954111,0.734204665987,0.677177246601,-0.00321729670827,0.04862236245,-0.0648941869622,-0.308109086162,-0.0810477550805,-0.403116851626,0.158910998779,-0.105209858846,-11.6789579391,0.132058605552,1.30307996273,0.226599782705,-4.63902521133,0.318014144897
2017/07/09/10:24:47.951373,547262,1499567090,758986704,,0.762095457447,0.128704190448,0.14264193362,0.734092968198,0.677160662285,-0.00435227309738,0.0504183420449,-0.0560827309151,-0.313252875352,-0.0730899195031,-0.433518984574,0.143049611343,-0.0754227601153,-11.2862701416,0.372216969728,1.17467951775,0.24320936203,-4.61464500427,0.333368778229
2017/07/09/10:24:47.961494,547263,1499567090,768984183,,0.761033805413,0.125802526223,0.141335856078,0.734249412404,0.676934996901,-0.00673371296395,0.0509064579821,-0.0681245378357,-0.301266607705,-0.0878448432396,-0.430386056919,0.187148433248,-0.0654780848277,-11.302069664,0.514549851418,0.645005702972,0.198174208403,-4.62338495255,0.339820355177
2017/07/09/10:24:47.971596,547264,1499567090,778979857,,0.759745844437,0.12242765768,0.139814088487,0.734398003774,0.676671644094,-0.00969278508824,0.0517794172372,-0.0918089474891,-0.304713405306,-0.114134048371,-0.438789212392,0.244990861734,-0.0576121483078,-11.3256902695,0.178826957941,0.65521800518,0.288523435593,-4.66881799698,0.39069211483
2017/07/09/10:24:47.981683,547265,1499567090,788980255,,0.759422258784,0.118878253885,0.139392892562,0.734018518246,0.67690682999,-0.0122549684892,0.0535142423212,-0.0769116238815,-0.333955774279,-0.097731389952,-0.527317059182,0.210164527829,-0.0283146117704,-11.3292865753,0.0427578538656,0.704871833324,0.229124441743,-4.71022558212,0.394161909819
2017/07/09/10:24:47.991538,547266,1499567090,798980912,,0.758321264743,0.116300215202,0.137795373151,0.733914902425,0.676927001819,-0.0148216265942,0.0540284146702,-0.0693569227442,-0.329014310323,-0.092670124738,-0.557301260146,0.20747727226,-0.00202395953487,-11.8234519958,0.285424768925,0.3263887465,0.235411033034,-4.88863420486,0.453565239906
2017/07/09/10:24:48.001603,547267,1499567090,808988774,,0.757931938107,0.113150063868,0.13689225831,0.733181243748,0.677500784061,-0.0177493877942,0.0558830085653,-0.0830992029248,-0.308155369362,-0.116869970992,-0.551326530132,0.25605951551,0.05574172899,-11.2524461746,0.285714060068,0.608105003834,0.228941053152,-4.77998828888,0.460627138615
2017/07/09/10:24:48.011301,547268,1499567090,818987282,,0.75739095327,0.109698991638,0.136421637709,0.733166752817,0.677320127852,-0.0201885323837,0.0574141108982,-0.0855436363087,-0.338825086115,-0.127684685334,-0.600336320182,0.268939898484,0.05464900494,-10.8206272125,0.496633589268,0.803681194782,0.122638456523,-4.59968137741,0.466680824757
2017/07/09/10:24:48.021338,547269,1499567090,828979654,,0.75671133416,0.107136222484,0.134273269172,0.732507911112,0.677874906233,-0.0229324131177,0.0582398153075,-0.0700695057816,-0.338920203734,-0.116327691179,-0.611194632758,0.236814901828,0.0456055167606,-11.4080648422,0.863351225853,0.529843986034,-0.0329824388027,-4.88325786591,0.473299443722
2017/07/09/10:24:48.031513,547270,1499567090,838987277,,0.756007224645,0.103876117995,0.133495619378,0.732028707898,0.678143625101,-0.0259281653629,0.0598575374428,-0.0691370956445,-0.331138836927,-0.111875237318,-0.644077237914,0.245352727751,0.0785630976622,-11.0570936203,0.693197309971,0.556600511074,-0.100403450429,-4.73060798645,0.440509527922
2017/07/09/10:24:48.041586,547271,1499567090,848983832,,0.755036540897,0.10028407234,0.13208935571,0.731540844767,0.678397735955,-0.0294293776366,0.0613059215771,-0.0889299989604,-0.330946431182,-0.123917468473,-0.665122417594,0.294985579607,0.106418241145,-10.5091924667,0.471820652485,0.62394964695,0.00751350075006,-4.60188913345,0.502861320972
2017/07/09/10:24:48.051646,547272,1499567090,858986771,,0.753873333251,0.0972485673555,0.130762549357,0.731123503423,0.678590437459,-0.032846685062,0.0624062193426,-0.0910897823761,-0.335666053083,-0.127317867614,-0.683568452175,0.307654108023,0.112832512595,-10.5666761398,0.466458469629,0.00903223454952,0.019176967442,-4.61357879639,0.535655140877
2017/07/09/10:24:48.061652,547273,1499567090,868980717,,0.753439183158,0.0940337039148,0.129523419711,0.730274461291,0.679195814022,-0.0358276880894,0.0640986284314,-0.0883656534064,-0.343267644648,-0.130565122466,-0.691239702901,0.313162317641,0.115344458775,-9.47778606415,-0.13970515132,0.144255191088,0.102138906717,-4.24504137039,0.523292899132
2017/07/09/10:24:48.071419,547274,1499567090,878986834,,0.752285583678,0.0905823121854,0.128297885927,0.729272404169,0.679919681365,-0.0396472572716,0.0655673882445,-0.0800554007513,-0.340931488711,-0.135924176821,-0.722534993271,0.320344359685,0.163434277474,-8.17297935486,0.195630654693,-0.729427993298,-0.0236376523972,-3.73997998238,0.451403796673
2017/07/09/10:24:48.081465,547275,1499567090,888998516,,0.751540551641,0.0877560706953,0.126779510518,0.728302759358,0.680632346903,-0.0430876072899,0.0667694328165,-0.0913254432744,-0.334073332925,-0.142666388869,-0.720158376791,0.34169630772,0.190467083858,-8.27307319641,0.259913980961,-0.479132950306,-0.0278471596539,-3.69213676453,0.453103899956
2017/07/09/10:24:48.091459,547276,1499567090,898992781,,0.750388988313,0.0843121056291,0.125600871717,0.727525335184,0.68106641641,-0.0468803030565,0.068247053341,-0.10629541998,-0.334301750557,-0.146108772508,-0.722932473821,0.381025890694,0.177297049015,-7.64859962463,-0.0458044484258,-0.216941669583,-0.0133966431022,-3.34975647926,0.399541079998
2017/07/09/10:24:48.101468,547277,1499567090,908984976,,0.749224497119,0.0811755739165,0.123740626984,0.726576965459,0.68176374467,-0.0503491261259,0.0689135343497,-0.115609278202,-0.318945916245,-0.15762489984,-0.704650842112,0.420183164511,0.213639562946,-8.01093482971,0.388196647167,-0.0443397313356,-0.236301630735,-3.49418020248,0.40825137496
2017/07/09/10:24:48.111606,547278,1499567090,918986763,,0.747789318776,0.0785627600225,0.121844605911,0.725373478444,0.682671336482,-0.0541615792714,0.0697114513305,-0.102358246439,-0.318231616545,-0.140962944011,-0.717112769812,0.387366848917,0.229318117436,-8.16900348663,0.492813795805,-0.0823591202497,-0.292827963829,-3.49742984772,0.458690702915
2017/07/09/10:24:48.121395,547279,1499567090,928983166,,0.747344547448,0.0760103078589,0.121014783098,0.724488589018,0.683219047919,-0.0572060559976,0.0711019275493,-0.11469855098,-0.301868858488,-0.149352997325,-0.671957285531,0.419839072806,0.220160949511,-8.05053710938,1.09910821915,0.191396653652,-0.374062627554,-3.49947404861,0.461615473032
2017/07/09/10:24:48.131653,547280,1499567090,938981823,,0.745966964208,0.0723330472111,0.119735994893,0.723269131905,0.683990655267,-0.0614882994168,0.0725102432425,-0.11817536933,-0.288638854136,-0.144370972137,-0.67149132117,0.44190354187,0.223475626703,-6.84410238266,0.692909896374,0.0558990165591,-0.36508589983,-3.04067420959,0.404645830393
2017/07/09/10:24:48.141149,547281,1499567090,948988835,,0.744774129231,0.0692329414087,0.118480034328,0.722532932997,0.684347405222,-0.0650393343559,0.0733803426488,-0.120462318375,-0.317229251099,-0.146923154662,-0.721919855241,0.447331018894,0.230003078777,-6.84070301056,0.142238482833,0.393761664629,-0.130748301744,-3.02495789528,0.42041271925
2017/07/09/10:24:48.151407,547282,1499567090,958987377,,0.7440991485,0.0674302996995,0.117254735069,0.72115307867,0.685379113739,-0.0682693369897,0.0743841730568,-0.132141955576,-0.294496359078,-0.161895494256,-0.700658397974,0.476635070107,0.237537475574,-5.60996818542,0.808896720409,0.110228598118,-0.264499813318,-2.59725689888,0.357786148787
2017/07/09/10:24:48.161854,547283,1499567090,968983957,,0.741921748136,0.0647282857737,0.114484538234,0.719809948224,0.68633704666,-0.0728042714377,0.0742605876639,-0.127234678677,-0.292739049889,-0.148180725063,-0.687620536604,0.47304368722,0.241745525031,-5.41960048676,0.847614884377,-0.49829146266,-0.251349151134,-2.49660015106,0.359999835491
2017/07/09/10:24:48.171463,547284,1499567090,978983028,,0.741239026368,0.0617092905882,0.114209590416,0.718587742243,0.68704752453,-0.0763586913143,0.0759388306212,-0.122933046921,-0.280252912375,-0.142917833449,-0.666792446268,0.468886363665,0.263241982427,-4.58025407791,0.910606741905,-0.324801266193,-0.302419781685,-2.10530734062,0.305278867483
2017/07/09/10:24:48.181414,547285,1499567090,988982981,,0.740124268216,0.0596385918313,0.112153572549,0.71711584896,0.688142324249,-0.0796925436289,0.0765120855655,-0.124938930089,-0.275519070119,-0.15175186626,-0.639891591798,0.469086101823,0.22770203376,-4.6055150032,1.05407202244,-0.304447621107,-0.406252890825,-2.0832965374,0.310990929604
2017/07/09/10:24:48.191182,547286,1499567090,998990130,,0.738475849286,0.0563344537381,0.110747912012,0.716412770744,0.688343225899,-0.0837129513958,0.0769966690412,-0.109646257861,-0.259507122376,-0.150589247635,-0.602203632932,0.427248786177,0.224430666542,-5.36118507385,0.723897695541,0.00463178381324,-0.18491601944,-2.27327632904,0.40074852109
2017/07/09/10:24:48.201355,547287,1499567091,8979190,,0.737821350344,0.0547071544522,0.10939173522,0.715397962361,0.68896622482,-0.0866225867676,0.0776390621324,-0.114460765454,-0.237206852378,-0.148470340609,-0.5684577326,0.434330340136,0.213332631917,-4.6018037796,0.455788493156,-0.110705718398,-0.132576048374,-1.97007977962,0.364805012941
2017/07/09/10:24:48.211743,547288,1499567091,19009106,,0.736418334629,0.0533620685031,0.107861789751,0.714312784595,0.689802886371,-0.0892156540194,0.0772644212812,-0.117440792105,-0.225446675795,-0.146673423822,-0.539043350855,0.4419071527,0.214451409882,-4.28396368027,0.71505022049,0.342359125614,-0.0983638465405,-1.82913589478,0.332988977432
2017/07/09/10:24:48.221647,547289,1499567091,28984613,,0.735149444625,0.0512150144513,0.106225971955,0.713607923551,0.690088874869,-0.0923801138982,0.0775047790967,-0.120511269293,-0.207509296958,-0.149183251061,-0.48735383258,0.440153171072,0.199187571839,-3.84860825539,0.920157492161,-0.0583432950079,-0.15938064456,-1.74453628063,0.289536982775
2017/07/09/10:24:48.231791,547290,1499567091,38987244,,0.734640964614,0.0490631895094,0.105241079208,0.712811325134,0.69056473303,-0.0944672394094,0.0780788379367,-0.133622634448,-0.200890705558,-0.159494846231,-0.431324852086,0.45161285373,0.151534014347,-3.53366279602,0.2695723176,0.242279946804,0.0654140710831,-1.64013230801,0.267181098461
2017/07/09/10:24:48.242367,547291,1499567091,48986189,,0.73303244824,0.047190480633,0.103261314126,0.712174528356,0.690856202116,-0.0973796671362,0.0777325516529,-0.112152006239,-0.191182024788,-0.137229213104,-0.389192886795,0.389906552096,0.136908957984,-3.10485744476,0.145727932453,-0.474317491055,-0.0335726700723,-1.43337905407,0.281131058931
2017/07/09/10:24:48.251312,547292,1499567091,58987508,,0.73238757774,0.045807337581,0.102256204963,0.71099512771,0.691651983167,-0.0999126879382,0.0782362917241,-0.11064128354,-0.16740338053,-0.1500993807,-0.368537893859,0.402968124639,0.158760592994,-2.15658855438,0.399565309286,-0.394781351089,-0.418860077858,-1.17331564426,0.263731390238
2017/07/09/10:24:48.261828,547293,1499567091,68990757,,0.731112766712,0.0438034918246,0.101188196578,0.709989136373,0.692208262245,-0.102997789639,0.0784512794113,-0.110569607063,-0.188531237239,-0.139328338211,-0.411924056982,0.39015665614,0.130432236286,-0.878372132778,0.716843008995,-1.1288125515,-0.667888998985,-0.733167648315,0.133159935474
2017/07/09/10:24:48.271280,547294,1499567091,78985255,,0.729941270307,0.0421143486885,0.0997263330062,0.709244476457,0.692589064457,-0.105472870452,0.0785374688105,-0.101817091748,-0.207847621789,-0.121075005593,-0.468161047762,0.377844011688,0.168716591796,-0.542249977589,0.771186828613,-1.00624465942,-0.617869019508,-0.620384395123,0.124758027494
2017/07/09/10:24:48.281460,547295,1499567091,88987907,,0.729649600288,0.039580062745,0.0988993909722,0.707760841494,0.693494819635,-0.108307127811,0.0800568076564,-0.105293612888,-0.218594234481,-0.119770655427,-0.503887922285,0.383209851531,0.200839703421,-0.134856492281,0.598811805248,-0.845857381821,-0.593847036362,-0.610554277897,0.0333652794361
2017/07/09/10:24:48.291412,547296,1499567091,98987368,,0.728275432914,0.0377117673816,0.0975647629735,0.707135319355,0.693751119324,-0.110862813264,0.0798652690061,-0.0931440470616,-0.20887474149,-0.128076072911,-0.47085615167,0.355452379543,0.214145343816,0.333251148462,0.237762078643,-0.66927075386,-0.384607821703,-0.377690494061,-0.0261581931263
2017/07/09/10:24:48.301505,547297,1499567091,108981912,,0.728135701204,0.0366683238495,0.0966071544001,0.705959559009,0.694581609979,-0.112589288527,0.0806296485898,-0.0792362554895,-0.198850731363,-0.104437538888,-0.444395229714,0.306990021821,0.18626134376,0.513407826424,0.0795991867781,-0.933367669582,-0.243259057403,-0.352335810661,-0.0388234965503
2017/07/09/10:24:48.311738,547298,1499567091,118978977,,0.726930418531,0.0343972638175,0.0949971007941,0.705171210912,0.694975675287,-0.11505727763,0.080648601505,-0.081674162928,-0.17763849948,-0.115835539638,-0.382004546401,0.299066571004,0.161938949993,1.31425094604,0.136232614517,-1.01805722713,-0.10398966074,0.0514841526747,-0.114506363869
2017/07/09/10:24:48.321266,547299,1499567091,128985430,,0.726739655453,0.0331352068641,0.094088069499,0.705140190694,0.694731412509,-0.116419439364,0.0810684283825,-0.0685275728791,-0.16758900186,-0.124133352622,-0.328180900788,0.269548572798,0.156516791749,1.34608268738,0.519384384155,-0.680983901024,-0.176331967115,0.0178771372885,-0.0949687734246
2017/07/09/10:24:48.331270,547300,1499567091,138986550,,0.725542460068,0.0319861151135,0.0928738172728,0.704460749889,0.695120654499,-0.118370744988,0.0808127111612,-0.0701429423084,-0.169206070839,-0.115829538763,-0.308327874791,0.255480290884,0.0955554408512,0.374883711338,0.684859871864,-0.586575269699,-0.268187403679,-0.222057953477,-0.0707526132464
2017/07/09/10:24:48.342052,547301,1499567091,148991561,,0.725316161617,0.0298406983968,0.0921758399236,0.704617796341,0.694691009897,-0.119619902984,0.0812972364771,-0.050341940468,-0.145646628858,-0.0963514683925,-0.256823802643,0.201620385403,0.0644730094089,0.161454305053,0.210565119982,-0.499974280596,-0.179741501808,-0.267526447773,-0.020026884973
2017/07/09/10:24:48.351209,547302,1499567091,158981476,,0.725044166678,0.0298222046089,0.0908324192102,0.703608219146,0.695613033938,-0.120386903622,0.0810245296323,-0.0654349845056,-0.158272076941,-0.115208579196,-0.227466952306,0.21106243264,0.0274416161936,0.229507133365,1.39214920998,-0.623637676239,-0.397749096155,-0.321879953146,0.0270005669445
2017/07/09/10:24:48.361610,547303,1499567091,168980451,,0.723943900042,0.0283293359274,0.0896906921501,0.703599871316,0.69538959369,-0.121996233381,0.0806067808079,-0.0611161969708,-0.117909586751,-0.121467631517,-0.168980798646,0.214199177098,0.0495037824053,0.648111760616,0.996746957302,-1.04974997044,-0.41985693574,-0.0917836725712,-0.0473783835769
2017/07/09/10:24:48.371546,547304,1499567091,178985285,,0.723588076007,0.0270051963714,0.088924830418,0.703499397044,0.695326090475,-0.122917975735,0.0806312439746,-0.0643166226639,-0.0944755137286,-0.12110884972,-0.114721187773,0.211086275452,0.025193193775,0.269602239132,0.655489206314,-0.918095827103,-0.30951154232,-0.247299477458,-0.00811858475208
2017/07/09/10:24:48.381437,547305,1499567091,188980519,,0.723466547844,0.0265678447724,0.0874226195916,0.70315608958,0.69560429675,-0.123488381709,0.0803541885146,-0.0652369730528,-0.104273493806,-0.113951827112,-0.111103343623,0.200144216075,0.0175513194586,0.216633394361,0.414088100195,-1.25126564503,-0.238906621933,-0.253028333187,0.015531539917
2017/07/09/10:24:48.391466,547306,1499567091,198978602,,0.722250636396,0.0257229165911,0.0862150655829,0.70313535393,0.695532187951,-0.124523859962,0.0795578901017,-0.0522481835601,-0.0980437991341,-0.111710545836,-0.0862630679049,0.162946756077,0.00538796281482,-0.537798941135,1.01608490944,-1.09615528584,-0.365604549646,-0.496656626463,0.0841439068317
2017/07/09/10:24:48.401159,547307,1499567091,208987904,,0.72197833123,0.0255285066941,0.0849988354775,0.702870986406,0.695745686753,-0.125073770316,0.0791635510392,-0.0691542485101,-0.0753237101751,-0.128970049572,-0.0248414064158,0.187619488394,-0.0481945210351,-0.301992446184,1.32847428322,-0.619148850441,-0.473541557789,-0.421527773142,0.0438151545823
2017/07/09/10:24:48.411723,547308,1499567091,218986373,,0.72049069636,0.0235095643855,0.0836411631941,0.703615584791,0.694890760696,-0.12625197857,0.0781816950782,-0.0671463604941,-0.051015265039,-0.124504310123,0.0211924786349,0.173496972074,-0.0480981463954,-0.218874394894,-0.161533325911,-0.641197085381,-0.303848862648,-0.257674992085,-0.0128056816757
2017/07/09/10:24:48.421802,547309,1499567091,228983997,,0.720635921881,0.0241066401982,0.0828343287375,0.703694153961,0.694955574782,-0.125819562543,0.0775933273031,-0.0714914092374,-0.0571699204971,-0.126018345861,0.0431034807022,0.173177745769,-0.0901228129157,-0.48765411973,0.513025403023,-0.210914552212,-0.356302380562,-0.453719079494,0.0218437574804
2017/07/09/10:24:48.431439,547310,1499567091,238987324,,0.719656825192,0.0227746440811,0.0818780510681,0.704428086369,0.694234866766,-0.126205662095,0.0767538387038,-0.0733311127738,-0.0419320592808,-0.125268292897,0.0829497686906,0.168401130867,-0.097789663973,-0.239856764674,0.40538161993,-0.239396616817,-0.290266811848,-0.293879359961,-0.00570767000318
2017/07/09/10:24:48.441341,547311,1499567091,248987810,,0.718630819957,0.0225995939646,0.080311691726,0.704626738508,0.694034526482,-0.126892761208,0.0756006784653,-0.0930169148861,-0.0705774438754,-0.129343525612,0.0591453523581,0.184787335871,-0.129497134562,0.189275249839,1.11056113243,-0.419897228479,-0.527693748474,-0.111206367612,-0.0828528925776
2017/07/09/10:24:48.451364,547312,1499567091,258987733,,0.717465555019,0.0213382187715,0.0790835367085,0.704803873423,0.693831364325,-0.127597590954,0.0746216635497,-0.0797188279672,-0.0643607193815,-0.119915869676,0.075743089183,0.160143443845,-0.127566698568,-0.0668449699879,0.63121676445,-0.351710051298,-0.413706302643,-0.212158501148,-0.0446207337081
2017/07/09/10:24:48.461751,547313,1499567091,268981026,,0.717343689714,0.0216025285346,0.0781980411454,0.705029065741,0.693704490484,-0.127391746598,0.0740232344709,-0.0806287206405,-0.052671167315,-0.125721453631,0.106338297856,0.166704632374,-0.121963439558,-0.0330834686756,0.944565832615,0.146778419614,-0.456627994776,-0.236619323492,-0.0552134029567
2017/07/09/10:24:48.471426,547314,1499567091,278984779,,0.716176504379,0.022152060763,0.0762531271382,0.704926971856,0.693893182557,-0.127898703263,0.0723335140515,-0.0822956143725,-0.0587688424062,-0.117006392774,0.0812384265858,0.160400809702,-0.133108850777,-0.116135746241,1.27743268013,-0.0514594689012,-0.348865151405,-0.224019229412,-0.0156283229589
2017/07/09/10:24:48.481536,547315,1499567091,288994927,,0.715655765764,0.0199552812916,0.0761775503928,0.705953447942,0.692770439933,-0.128321101514,0.0723363103843,-0.0897384454961,-0.072707168935,-0.111768490924,0.0735980865955,0.16263799361,-0.144333492356,0.302690088749,0.106754310429,0.315967261791,-0.234893605113,-0.108059197664,-0.0764276683331
2017/07/09/10:24:48.491383,547316,1499567091,299001179,,0.71423148649,0.0198559423819,0.0745670010426,0.706217693571,0.692630595526,-0.128605068624,0.0705702752706,-0.0808050766098,-0.0637548210764,-0.1056334218,0.0846950798672,0.154845256859,-0.132542108378,0.412476569414,-0.184901356697,0.286529004574,-0.0830971300602,0.0418255515397,-0.115788221359
2017/07/09/10:24:48.501195,547317,1499567091,308984827,,0.713465820545,0.0189716464411,0.0733926961468,0.706532330597,0.692281994425,-0.129115321229,0.0699066509026,-0.0886492263798,-0.0718072445245,-0.111433207784,0.0825174065274,0.159844509854,-0.158406350445,1.05234026909,0.0190669298172,-0.1992598176,-0.190977334976,0.239358991385,-0.173990607262
2017/07/09/10:24:48.511784,547318,1499567091,318992968,,0.712945873976,0.0189538004594,0.072704955146,0.706934057013,0.692006983427,-0.128939992935,0.0688843389039,-0.101632629359,-0.0818745030484,-0.116841534029,0.0707764897917,0.194164772631,-0.137485216439,1.9907271862,1.09586071968,0.00821678340435,-0.463438034058,0.539355635643,-0.279462516308
2017/07/09/10:24:48.521552,547319,1499567091,328980344,,0.711886529542,0.0175488050717,0.0717466165946,0.707350623395,0.69145674708,-0.129866807221,0.0683906052231,-0.0939483600309,-0.0826477935137,-0.110171361836,0.0600339747243,0.175892499957,-0.125657731568,0.983422279358,0.456260055304,-0.0500551052392,-0.467563688755,0.184484735131,-0.211020842195
2017/07/09/10:24:48.531394,547320,1499567091,338987501,,0.711309293617,0.0169396064731,0.0703673884412,0.707744267529,0.69114676568,-0.129851976651,0.0674734335092,-0.0780005307938,-0.07480132519,-0.0998199573542,0.0694373737215,0.147200159461,-0.142665609336,1.12819802761,0.54073369503,-0.348544090986,-0.498504161835,0.265655338764,-0.229691654444
2017/07/09/10:24:48.541415,547321,1499567091,348986760,,0.709715157941,0.0155712746352,0.0689351688633,0.708244544329,0.690581085029,-0.13076949534,0.0662326922059,-0.0852015299884,-0.0871812716392,-0.111169584984,0.0714644752561,0.152505184153,-0.137259123379,0.852782309055,0.487255334854,-0.537279069424,-0.450211137533,0.235752105713,-0.234639123082
2017/07/09/10:24:48.551488,547322,1499567091,359017575,,0.709275684115,0.0150234322381,0.0679686591627,0.70891837058,0.689988310767,-0.130547314341,0.0656374403573,-0.0780134593319,-0.0813838380047,-0.111664581641,0.0669551471658,0.135722417837,-0.134094878478,0.601464152336,0.240087091923,0.034651055932,-0.415716201067,0.0807091444731,-0.208831906319
2017/07/09/10:24:48.561570,547323,1499567091,368986480,,0.708610030498,0.0144472048506,0.0670624636673,0.709303333103,0.689680127614,-0.130566150585,0.0646728965186,-0.08075082691,-0.0849836225174,-0.112169044338,0.080295150437,0.134184302786,-0.157150004226,0.751242637634,0.630748569965,0.407865554094,-0.454971969128,0.0975429564714,-0.208388954401
2017/07/09/10:24:48.571679,547324,1499567091,378986834,,0.708326934959,0.0137806488686,0.0661097274162,0.70958234118,0.689445202754,-0.130457781443,0.0643349107906,-0.0686237935498,-0.0750292390071,-0.11580557066,0.0969694230088,0.0972422194688,-0.135408393483,1.20661759377,1.11413264275,-0.0626763477921,-0.560704052448,0.259585291147,-0.232335448265
2017/07/09/10:24:48.581712,547325,1499567091,389011938,,0.707598901647,0.0130173450716,0.0645848519719,0.710074388797,0.688981353775,-0.13063422551,0.0635118544058,-0.0825241482483,-0.0734536813295,-0.12655851178,0.114366432872,0.121354015139,-0.154165686623,1.49631941319,0.178096041083,-0.303134530783,-0.354079335928,0.361130088568,-0.257539510727
2017/07/09/10:24:48.591584,547326,1499567091,398980176,,0.706454135756,0.0117737281862,0.0635591927065,0.710883055588,0.68819726119,-0.130898195481,0.0624137275644,-0.0578014887662,-0.0761101850653,-0.121844920801,0.100820138023,0.0714911556806,-0.163434404141,1.59939789772,0.0676999241114,-0.252246916294,-0.40096232295,0.472749441862,-0.321936130524
2017/07/09/10:24:48.601523,547327,1499567091,408979553,,0.706563223383,0.0122854932038,0.0626859165547,0.710725970151,0.688553450271,-0.13020685335,0.0617164225584,-0.0719244961875,-0.0866072681766,-0.12554956082,0.108039389058,0.093954672564,-0.157683015456,2.28475093842,0.643872201443,0.0111468136311,-0.318232953548,0.628930568695,-0.323723137379
2017/07/09/10:24:48.611765,547328,1499567091,418985486,,0.705499472173,0.0103604649275,0.0612032408707,0.711580966102,0.687630786955,-0.130623949625,0.0612683710974,-0.0712803423846,-0.0891295527566,-0.124002823414,0.103386719842,0.0949140548411,-0.153741623206,1.84576058388,-0.0746516287327,0.0476789474487,-0.209715202451,0.47579446435,-0.309801787138
2017/07/09/10:24:48.621574,547329,1499567091,428980883,,0.705013047914,0.00971684154435,0.0600733726215,0.711911840993,0.687400745205,-0.130415578694,0.0604443792225,-0.0704707137666,-0.079494419939,-0.127306344626,0.11678493789,0.0953617962969,-0.118499959075,2.28947019577,0.246496886015,0.195554733276,-0.302108943462,0.587737739086,-0.33845359087
2017/07/09/10:24:48.631495,547330,1499567091,438987223,,0.703940424551,0.00833850508295,0.0589655170946,0.7125520487,0.686759985731,-0.130767414414,0.0594153449862,-0.0515033521458,-0.0609184359717,-0.129005031482,0.131878284826,0.0728157772894,-0.0918967824437,1.76822698116,-0.513121306896,0.0654502734542,-0.302260458469,0.517847716808,-0.324360728264
2017/07/09/10:24:48.641613,547331,1499567091,448979940,,0.703964965562,0.00776167768955,0.0577144448301,0.712603621512,0.686782357136,-0.130420108999,0.0593014983315,-0.0769236494153,-0.0747391992102,-0.142682879483,0.136614010593,0.113108488586,-0.116278817013,2.67849826813,-0.164732500911,-0.0841392204165,-0.310631155968,0.756560921669,-0.359048426151
2017/07/09/10:24:48.651394,547332,1499567091,458987179,,0.70300730499,0.00738814294679,0.0560522070739,0.712654053547,0.686785610322,-0.130707381902,0.0580112552369,-0.0799947306315,-0.0976537624716,-0.145429754613,0.112230382143,0.105172171688,-0.131774848128,2.75740337372,0.314510047436,-0.0439593270421,-0.440236568451,0.784288585186,-0.374398440123
2017/07/09/10:24:48.661716,547333,1499567091,468978129,,0.702322257648,0.00732799132012,0.0545176571921,0.713196330173,0.68640347365,-0.130235990422,0.0569197047483,-0.0570787223781,-0.0638752657945,-0.13661896677,0.128827932728,0.0801549953661,-0.101829886076,2.90378093719,0.191503047943,-0.319528996944,-0.494409710169,0.866237938404,-0.391727656126
2017/07/09/10:24:48.671487,547334,1499567091,478987053,,0.70109106018,0.00578097520179,0.0529224594408,0.713695659359,0.685879153524,-0.13067999674,0.0559556165611,-0.0704955782504,-0.0724410392412,-0.142879910324,0.118881452292,0.101572204126,-0.121295172776,2.3569188118,-0.568686068058,-0.47529488802,-0.382445663214,0.779391169548,-0.394876599312
2017/07/09/10:24:48.681514,547335,1499567091,488979229,,0.701516048287,0.00534104044573,0.0523869716171,0.713951636737,0.685757422435,-0.129890824467,0.0560195652793,-0.0771272049566,-0.0794732156909,-0.155082269978,0.124290664743,0.0989189574716,-0.145619227104,3.38794541359,-0.313985526562,-0.222629666328,-0.41508680582,1.17133295536,-0.502468347549
2017/07/09/10:24:48.691550,547336,1499567091,498987117,,0.700692437934,0.00474722320575,0.0503054123965,0.71463628252,0.685237025895,-0.1294443879,0.0546749713343,-0.0557375657262,-0.077726159644,-0.133498317406,0.113201350133,0.068856764096,-0.0982128012376,2.97535395622,-0.474706619978,-0.227708548307,-0.247026592493,1.08002841473,-0.435294449329
2017/07/09/10:24:48.701343,547337,1499567091,508982893,,0.698736766609,0.00417760663674,0.0487014711666,0.714263279392,0.685498436237,-0.130749135336,0.0531462626942,-0.0834599832323,-0.0829039632434,-0.153553900301,0.129616940456,0.119858637717,-0.0905260226185,2.98926138878,-0.212226212025,0.205064177513,-0.354281008244,1.1571624279,-0.483111858368
2017/07/09/10:24:48.711634,547338,1499567091,518980205,,0.698145636888,0.00283874368674,0.0474098025397,0.714596577564,0.685201803223,-0.130759686811,0.0524606948036,-0.0889396670594,-0.0939670834532,-0.13930405978,0.110953910326,0.138144004857,-0.0822761719914,3.2979991436,-0.203881278634,-0.103131622076,-0.327717959881,1.32903015614,-0.505288243294
2017/07/09/10:24:48.721274,547339,1499567091,528982286,,0.697426898162,0.00176967622246,0.0460941846123,0.714085659273,0.685692596886,-0.131267350815,0.0517321602692,-0.114615733787,-0.0933855794168,-0.153504178986,0.112224182423,0.227842504314,-0.0290929411691,4.08161258698,-0.461017012596,-0.166280180216,-0.277891367674,1.57914566994,-0.591143727303
2017/07/09/10:24:48.731565,547340,1499567091,538983680,,0.69612168297,0.00135483627392,0.0447441041365,0.714097448001,0.685699469425,-0.131777198101,0.0501581743012,-0.122272109739,-0.0970590232741,-0.151203862177,0.12898590859,0.247313562128,-0.0115703904008,4.09393310547,-0.141277760267,-0.177842915058,-0.489403188229,1.60199987888,-0.605460882187
2017/07/09/10:24:48.741436,547341,1499567091,548986136,,0.695158113391,0.000590290968453,0.043346323952,0.71411805667,0.68563434048,-0.132345012394,0.0492519033871,-0.123420005131,-0.0845603450157,-0.146700507037,0.123130052497,0.265810483399,-0.0133471683326,4.4321975708,-0.103462874889,-0.647311449051,-0.456497251987,1.6734752655,-0.62266010046
2017/07/09/10:24:48.751559,547342,1499567091,558983951,,0.693189460576,-0.00087949749329,0.0419727266916,0.715148740252,0.684530456711,-0.133135505561,0.0474896863592,-0.118992438694,-0.0850940953477,-0.146473649668,0.110205518189,0.230728738415,-0.114500292039,4.05208683014,-0.44432091713,-0.756249606609,-0.314534723759,1.61022555828,-0.627658486366
2017/07/09/10:24:48.762043,547343,1499567091,568981638,,0.692442198139,-0.00112696013818,0.040155572654,0.715252759694,0.684509476655,-0.133052996482,0.0464453038142,-0.139865003845,-0.0931286572757,-0.149603059607,0.0952536739007,0.254835903794,-0.176284139424,4.67819023132,-0.185098528862,-0.441915929317,-0.446140468121,1.72356116772,-0.668392837048
2017/07/09/10:24:48.771631,547344,1499567091,578986558,,0.691308337329,-0.00226427022213,0.0390439927475,0.715791538444,0.683859936073,-0.133827626987,0.0454777701879,-0.115580166825,-0.0728731458817,-0.145522250797,0.119805337908,0.202875371627,-0.149899530632,4.72781038284,-0.554025888443,-0.923375964165,-0.395914435387,1.85137581825,-0.699609100819
2017/07/09/10:24:48.781319,547345,1499567091,588980776,,0.689837506004,-0.00216393709742,0.0372480967866,0.71602018323,0.683718322508,-0.133940674604,0.0436376942736,-0.128352190812,-0.0798200185139,-0.154751391906,0.115076411063,0.21836137095,-0.178101784182,4.3753323555,-0.554885685444,-0.756326377392,-0.427098333836,1.75141513348,-0.677849888802
2017/07/09/10:24:48.791665,547346,1499567091,598987407,,0.689038920194,-0.00335861765069,0.0362360689066,0.716789428243,0.682881317825,-0.134331457986,0.0429078165459,-0.143437316998,-0.0747772932295,-0.166767235101,0.132973636102,0.239399409785,-0.206473359502,5.11803245544,-0.739081144333,-0.500563442707,-0.316019654274,1.95501315594,-0.732973635197
2017/07/09/10:24:48.801527,547347,1499567091,608985017,,0.68718964323,-0.00441070264825,0.0342364126717,0.717210458694,0.682401994332,-0.135012514837,0.0413315486051,-0.125508680616,-0.0749169706275,-0.160039997413,0.124266402327,0.220617342393,-0.183337781767,4.5432639122,-0.670685648918,-0.26298135519,-0.309108734131,1.77532660961,-0.681881129742
2017/07/09/10:24:48.811578,547348,1499567091,618981877,,0.686263746313,-0.00521496465543,0.0333467067001,0.717810802597,0.681767604493,-0.135330951816,0.0403251611265,-0.123143988819,-0.0699497201372,-0.151173146929,0.116085200327,0.209822538627,-0.15254594865,4.74711847305,-0.62451338768,-0.223429441452,-0.363283276558,1.90554654598,-0.72128880024
2017/07/09/10:24:48.821558,547349,1499567091,628979927,,0.685016651262,-0.00551123027747,0.0315096613672,0.717798462685,0.681776251241,-0.135739239603,0.0390047310423,-0.122457096469,-0.0504356508013,-0.150629039974,0.122215547808,0.212972297026,-0.142276150728,4.86703395844,-0.418974280357,-0.344334214926,-0.408406466246,1.93128859997,-0.72206568718
2017/07/09/10:24:48.831629,547350,1499567091,638988233,,0.684020623267,-0.00558151258024,0.0298176709948,0.717942173522,0.6817050465,-0.135694794014,0.0377384145523,-0.135265707867,-0.0535918995301,-0.166637695806,0.146506199967,0.230531371896,-0.167392345766,5.42583799362,-0.782849788666,-0.713572025299,-0.320509463549,2.20773673058,-0.80613130331
2017/07/09/10:24:48.841635,547351,1499567091,648980985,,0.682722397737,-0.00685450076795,0.0286066044366,0.718781427362,0.680788081346,-0.136158180507,0.0366305590816,-0.130104056387,-0.0628109156025,-0.160300557388,0.133975239369,0.207597770946,-0.159747527921,5.30095338821,-1.19417738914,-0.49103051424,-0.135090634227,2.1339533329,-0.786773920059
2017/07/09/10:24:48.851272,547352,1499567091,658978893,,0.682203075907,-0.00681862380191,0.0271200291218,0.718980040755,0.680651814968,-0.136021049281,0.0357642549019,-0.116892464543,-0.0638159485099,-0.149199321451,0.119950622999,0.187867495207,-0.153071444235,5.79154157639,-0.654901325703,-0.477333933115,-0.246833771467,2.27596855164,-0.808369517326
2017/07/09/10:24:48.861684,547353,1499567091,668982303,,0.680499262467,-0.00796247938005,0.0255070529894,0.719528030397,0.680045364965,-0.136527165595,0.0343227055679,-0.113080688841,-0.0591757684448,-0.151699679952,0.132855482843,0.181305212969,-0.160248025387,5.41019296646,-1.11492347717,-1.00218510628,-0.258454203606,2.20901727676,-0.809620797634
2017/07/09/10:24:48.871587,547354,1499567091,678984562,,0.678801354815,-0.00803399138008,0.0234581280016,0.719906894919,0.679582600179,-0.137259386837,0.0325793325184,-0.134037911745,-0.0786481760009,-0.16868956964,0.118662547099,0.219319053669,-0.151500428657,5.48313140869,-0.0553932487965,-1.29492795467,-0.513134837151,2.2580935955,-0.810445129871
2017/07/09/10:24:48.881808,547355,1499567091,688992003,,0.677973764279,-0.00835276980376,0.022179016472,0.720243311231,0.679292184389,-0.137160570379,0.0316018795078,-0.11487515813,-0.0705410735907,-0.158401520294,0.115689367288,0.173743348672,-0.143009920078,5.65015602112,0.272960722446,-1.02729690075,-0.512125730515,2.22052788734,-0.770214796066
2017/07/09/10:24:48.891407,547356,1499567091,698986846,,0.676969588758,-0.00914929056541,0.0203980976534,0.720424287091,0.679084806898,-0.137433702352,0.0307351438698,-0.122626591324,-0.037180944609,-0.165630311573,0.143392809899,0.188052709896,-0.130445666882,5.41862344742,-0.412543952465,-0.780176877975,-0.386972486973,2.16400384903,-0.764258921146
2017/07/09/10:24:48.901385,547357,1499567091,708987568,,0.675766427426,-0.00991135601997,0.0190059638642,0.720814891483,0.678657558017,-0.137667424855,0.0299581590973,-0.0905175146486,-0.0570098476286,-0.150297344089,0.117133251717,0.103632926155,-0.134789742435,4.91483926773,-0.740742444992,-0.330998927355,-0.290564060211,2.01665592194,-0.735047876835
2017/07/09/10:24:48.912076,547358,1499567091,718988217,,0.675059776945,-0.0109211174565,0.0179689570513,0.721333567293,0.678126633184,-0.137680681964,0.0294310019704,-0.0852282533262,-0.0569007080174,-0.150155563343,0.122718203717,0.0825609598546,-0.108044881795,5.77693939209,-1.04019272327,-0.394047439098,-0.318154394627,2.34170150757,-0.855715990067
2017/07/09/10:24:48.921251,547359,1499567091,728982992,,0.674967040649,-0.0105370701305,0.0164461743398,0.721335755352,0.678349002353,-0.136707510437,0.0287822106149,-0.107316321958,-0.0581146181164,-0.164760095852,0.130030951967,0.120330773007,-0.118574014305,5.68069887161,-0.247574687004,-0.579714894295,-0.401840507984,2.24797439575,-0.788774967194
2017/07/09/10:24:48.931546,547360,1499567091,738989853,,0.673134051455,-0.0110810537201,0.01417451531,0.721607853639,0.677995440431,-0.137298656857,0.0274475344465,-0.0807993998699,-0.0522105740438,-0.165440419759,0.139282454418,0.0635621249431,-0.0943523235288,4.32405424118,-1.02897286415,-0.89397507906,-0.233766794205,1.86675357819,-0.697777152061
2017/07/09/10:24:48.941636,547361,1499567091,748988834,,0.673052259056,-0.0118723114144,0.01312538669,0.722300723833,0.677477222064,-0.136285958214,0.0270631765998,-0.0784150609094,-0.0506448358127,-0.161629557631,0.138276173377,0.0446067738404,-0.0990387671895,4.31472873688,-0.743399262428,-0.41789573431,-0.23086938262,1.8105148077,-0.675081253052
2017/07/09/10:24:48.951375,547362,1499567091,758987313,,0.673039467546,-0.0125633318137,0.0119279192195,0.722499825376,0.677372621093,-0.135708711977,0.0272668300104,-0.0592769935937,-0.0371434094944,-0.154122274628,0.143371472181,-0.000242405608022,-0.0770612265306,5.21903324127,-0.841695070267,-0.289792656898,-0.222505778074,2.01893281937,-0.713782548904
2017/07/09/10:24:48.961735,547363,1499567091,768983615,,0.672115781778,-0.0121341685084,0.010014384411,0.722706783464,0.677303673863,-0.135184026742,0.0260752262047,-0.0349063520349,-0.0415486548678,-0.140676798088,0.129354444529,-0.0644082354012,-0.0761106124333,4.69498491287,-0.569702029228,-0.565290212631,-0.243023127317,1.89042198658,-0.681026220322
2017/07/09/10:24:48.971675,547364,1499567091,778984278,,0.671741752782,-0.0129899912714,0.00900085649509,0.722925285266,0.677190651069,-0.134585470377,0.0260500516675,-0.0570044994847,-0.0335565646952,-0.157587198158,0.152549070264,-0.0220530389423,-0.0450706377995,5.33806610107,-1.34889960289,-0.356989771128,-0.0231550484896,2.1142847538,-0.744004845619
2017/07/09/10:24:48.981325,547365,1499567091,788980743,,0.671580454367,-0.0136486701949,0.0075438169885,0.723170621558,0.677097267233,-0.133743821886,0.0260025561867,-0.0554628473136,-0.0473587734523,-0.15417910532,0.125366514064,-0.0304218112183,-0.0757341763029,6.39066886902,-0.901010632515,-0.978790938854,-0.25294277072,2.5012383461,-0.84677195549
2017/07/09/10:24:48.991435,547366,1499567091,798987392,,0.6713575608,-0.0135430472906,0.00594744988812,0.723036556538,0.67728751742,-0.133510335527,0.0259758919782,-0.0419750661887,-0.0386042244283,-0.153275062573,0.130588203001,-0.0607713983499,-0.0471148034933,5.54530239105,-0.95761692524,-0.860223114491,-0.116007208824,2.20217967033,-0.74155497551
2017/07/09/10:24:49.002418,547367,1499567091,808993531,,0.671028241226,-0.0149634901536,0.00456825496111,0.724150806154,0.676374879646,-0.132154927832,0.0256458023724,-0.0314111892339,-0.0304112590493,-0.148776069801,0.134942976857,-0.0821170239961,-0.0403972110734,5.36190271378,-1.34893512726,-0.893095374107,-0.0999379009008,2.12434530258,-0.716157913208
2017/07/09/10:24:49.011663,547368,1499567091,818994258,,0.670083747131,-0.0145937818179,0.0029238411367,0.723520576345,0.677040682444,-0.132287013941,0.0251800687943,-0.0398015968215,-0.0532805275287,-0.151789826805,0.117557367607,-0.0835184728773,-0.0454903434395,4.31665802002,-0.719798028469,-1.27677309513,-0.251912564039,1.84534573555,-0.654789805412
2017/07/09/10:24:49.021536,547369,1499567091,828979531,,0.670485140986,-0.0151613550343,0.00161261558918,0.724301447909,0.676501787573,-0.13068213924,0.0255914526949,-0.0393700566391,-0.0439615370993,-0.153467304872,0.114821940855,-0.0867191980657,-0.0221717181949,5.07316350937,-0.718749523163,-0.824713468552,-0.256570577621,2.01548957825,-0.713839411736
2017/07/09/10:24:49.031547,547370,1499567091,839019942,,0.670248813711,-0.0149733603523,0.000130470735951,0.724349465074,0.676649674986,-0.129716247244,0.0252342027729,-0.00408474919441,-0.0260348904468,-0.140401436864,0.160197181085,-0.171114698254,-0.0347987336641,4.76171779633,-0.192343533039,-0.962021648884,-0.324687719345,1.83517479897,-0.655113220215
2017/07/09/10:24:49.041417,547371,1499567091,848985190,,0.670204798675,-0.0155188070963,-0.000924195272744,0.724143974547,0.677048341041,-0.128744544053,0.02541437385,0.0240902917226,-0.0136144615735,-0.133126649949,0.150939610237,-0.219253082892,0.0114935625391,4.55122232437,-0.947211265564,-0.65615850687,-0.084308847785,1.84419429302,-0.64534932375
2017/07/09/10:24:49.051470,547372,1499567091,858986822,,0.670460397102,-0.015673252306,-0.00224575323287,0.724366961905,0.677046652381,-0.127384483447,0.02595242527,-0.00544521756565,-0.0533455624048,-0.145008511292,0.130910312212,-0.203722832423,-0.0282391885045,4.98352003098,-0.599758982658,-0.813624858856,-0.107361085713,1.98362874985,-0.684209227562
2017/07/09/10:24:49.061718,547373,1499567091,868984672,,0.671053566682,-0.0158365914701,-0.00329110139395,0.724523827863,0.677146779729,-0.12586007111,0.0263951522293,0.00707082890854,-0.0222108318725,-0.129766576871,0.127092548331,-0.209405465821,-0.00773199610146,4.43719053268,-0.724648535252,-0.611074149609,-0.123260721564,1.70819997787,-0.608503103256
2017/07/09/10:24:49.071397,547374,1499567091,878988321,,0.670453317187,-0.016521785644,-0.00482571583079,0.725149148453,0.676627959392,-0.125075616988,0.0262565630256,0.000193098402835,-0.034730229103,-0.130821646229,0.122396327077,-0.196826314596,-0.0171915050447,3.07580304146,-0.92974960804,-0.352826654911,-0.192058071494,1.21616625786,-0.538179457188
2017/07/09/10:24:49.081504,547375,1499567091,888984622,,0.671133646149,-0.016619949244,-0.00574447940959,0.725010564826,0.676966671031,-0.123893504277,0.026948224451,-0.00341902349997,-0.0513135088136,-0.133402656123,0.128225226268,-0.214432847521,-0.0437365083169,3.2438890934,-0.845359265804,-0.467305213213,0.0232870578766,1.26829087734,-0.51148712635
2017/07/09/10:24:49.091449,547376,1499567091,898990276,,0.671079766135,-0.0167235463535,-0.00716508159902,0.724480082442,0.677691277549,-0.122985118156,0.0271625328389,0.0108658937809,-0.0231804503093,-0.121200133788,0.115525729848,-0.219524818241,0.0252393520145,3.09244680405,-0.330728411674,-0.0222324505448,0.0581329166889,1.17623543739,-0.454091012478
2017/07/09/10:24:49.101452,547377,1499567091,908986996,,0.670395130667,-0.0171815746399,-0.00835704464167,0.725303331078,0.677012977967,-0.121940270786,0.026815591578,0.00613426931253,-0.0081842445074,-0.129382622083,0.119038559757,-0.198575277554,0.0566487623877,2.65161371231,-1.20674145222,0.15994232893,0.234132796526,1.07161462307,-0.467950761318
2017/07/09/10:24:49.111835,547378,1499567091,918979778,,0.671008111285,-0.0176546129941,-0.009347840766,0.724892157061,0.677601350256,-0.120884566371,0.0278332961694,-0.000515452045488,-0.0374978374138,-0.113775025851,0.0990019235641,-0.210450714339,0.00174140244754,2.66919159889,-0.960418343544,-0.0524411350489,0.154909402132,1.08977496624,-0.486229777336
2017/07/09/10:24:49.121849,547379,1499567091,928982915,,0.670376012037,-0.0173037131227,-0.0108331632472,0.725538169151,0.677131513661,-0.119788031363,0.0271681036034,0.00701066770771,-0.0394414624465,-0.10210088806,0.0882934129818,-0.214691057806,-0.00432506785181,2.00070810318,0.247821897268,-0.460138529539,-0.327208757401,0.749284029007,-0.37780931592
2017/07/09/10:24:49.131521,547380,1499567091,938984448,,0.670721735991,-0.0179581639407,-0.011300800481,0.725173954785,0.677582699892,-0.11923591453,0.0280573839597,-0.0154914019608,-0.0231868061859,-0.10381441966,0.104760940545,-0.146167962191,-0.0212074055456,2.45544075966,0.00861674547195,-0.915622830391,-0.453719109297,0.813652336597,-0.420468091965
2017/07/09/10:24:49.141230,547381,1499567091,948984160,,0.670894961712,-0.0174589239888,-0.0122130885142,0.725541336378,0.677448795387,-0.117802568461,0.0278469692994,-0.00778724573653,0.00659982622791,-0.110424628984,0.131694176838,-0.153969355198,0.0145265425778,2.78771853447,-0.0641072392464,-0.787502467632,-0.412317693233,0.869727373123,-0.399367332458
2017/07/09/10:24:49.151577,547382,1499567091,958987533,,0.670045475073,-0.0184570507339,-0.0134459484949,0.726025304803,0.67703528556,-0.11719885004,0.0278371773276,-0.0161211070488,-0.0241278226973,-0.101728103482,0.117155516457,-0.157888754797,-0.0281962749255,1.91348743439,-1.33131968975,-0.423230051994,-0.0391549170017,0.572617650032,-0.353016287088
2017/07/09/10:24:49.161658,547383,1499567091,968979394,,0.669905684659,-0.0186514185764,-0.0143768593143,0.726046282704,0.677108164747,-0.116600960302,0.028027569661,-0.0286192397145,-0.038929774993,-0.0949812289191,0.105358539265,-0.151751738832,-0.0383464584799,2.60690522194,-0.922279477119,-0.973410725594,-0.0784830003977,0.814280927181,-0.404343366623
2017/07/09/10:24:49.171686,547384,1499567091,978986611,,0.669924833299,-0.0185007984019,-0.0152904664824,0.725956896229,0.677370805896,-0.115569574615,0.028267464697,-0.0166283841383,-0.0346350759982,-0.0963659084825,0.0599765912461,-0.156113682858,0.0176256451942,2.60311841965,-0.34167689085,-0.998127937317,-0.124517939985,0.786981999874,-0.390424787998
2017/07/09/10:24:49.181602,547385,1499567091,988986158,,0.669885508393,-0.0186149096202,-0.0160880633055,0.725601491035,0.677803799944,-0.115175581079,0.0286194079509,-0.0144262387527,-0.025230727252,-0.092016427208,0.0557273481519,-0.149622417687,0.0252008195145,1.38083684444,-0.164197891951,-0.116981677711,-0.144730508327,0.319767355919,-0.293017745018
2017/07/09/10:24:49.191116,547386,1499567091,998990641,,0.669481086068,-0.019299488193,-0.0170405360633,0.726081129094,0.677425518271,-0.114267329915,0.0290488981282,-0.00874879007372,-0.00922127803612,-0.0904917451835,0.0777357341223,-0.157119666097,0.0503278495634,1.12273192406,0.12156188488,-0.137749686837,-0.167485579848,0.24109005928,-0.257158488035
2017/07/09/10:24:49.201417,547387,1499567092,8979729,,0.669901526966,-0.0196335467609,-0.0175467338823,0.725607891811,0.678065526131,-0.113288594226,0.0297661558252,-0.0141816142583,-0.0187962912414,-0.0902011332448,0.0752173557742,-0.154769512464,0.0285058918678,1.09393548965,0.444337069988,0.13095843792,-0.245953574777,0.243064269423,-0.256460249424
2017/07/09/10:24:49.211754,547388,1499567092,18987454,,0.66942050972,-0.0197928707988,-0.0182721753534,0.725976611598,0.67776993278,-0.112719129618,0.0296694363037,-0.00282147663243,-0.020256076901,-0.0841128575836,0.0683048213253,-0.173697612631,0.0420737668563,1.05210614204,-0.0246919393539,0.602464616299,-0.169999420643,0.339612036943,-0.289866030216
2017/07/09/10:24:49.221684,547389,1499567092,28987091,,0.668987199042,-0.0199026117318,-0.0190817677992,0.725552951993,0.678258451544,-0.112477766067,0.0297848771031,-0.0145733434237,-0.0317261296631,-0.0773322580825,0.04173253476,-0.15664444275,0.0245991359058,0.459333896637,0.578779816628,0.618327736855,-0.115804873407,0.187851786613,-0.246866852045
2017/07/09/10:24:49.231322,547390,1499567092,38985416,,0.669153019399,-0.0198002873296,-0.0195896155748,0.725329846441,0.678608607322,-0.111681114462,0.0302374040351,-0.0246589456072,-0.0210260524555,-0.0750304071637,0.0434964237876,-0.112611628557,0.0577901507001,0.0736665129662,0.364656031132,1.24579656124,0.0405291616917,-0.0037923976779,-0.202751874924
2017/07/09/10:24:49.241397,547391,1499567092,48981879,,0.668736613948,-0.0202865098604,-0.0202420344218,0.72550661331,0.678477220427,-0.111305916648,0.030328341933,-0.0238398896946,-0.0224882431798,-0.0678051361477,0.0384026312349,-0.103133415608,0.0274350441584,-0.0171858370304,0.179190576077,1.00530433655,-0.0100052058697,-0.039512835443,-0.227878034115
2017/07/09/10:24:49.251452,547392,1499567092,58987781,,0.668573021891,-0.020538318189,-0.0209126454283,0.725549667564,0.678506101407,-0.110782765978,0.0305667959332,-0.0317896013869,-0.0144708980869,-0.0725566836004,0.0573510828669,-0.0827100920511,0.013748610354,-0.615640938282,0.457896232605,0.657844543457,-0.180795386434,-0.313645720482,-0.159847736359
2017/07/09/10:24:49.261732,547393,1499567092,68992783,,0.668650850616,-0.0199664384229,-0.0218468235251,0.725720363437,0.678510759603,-0.109653602952,0.0304826271208,-0.0175583366023,-0.00900478824266,-0.0657449270377,0.0698442316631,-0.112719285027,0.0261210628538,-0.702294409275,0.567419052124,0.945833444595,-0.118490770459,-0.368705093861,-0.153515517712
2017/07/09/10:24:49.271582,547394,1499567092,78978888,,0.668522578769,-0.0197987226076,-0.0219298637661,0.725323527688,0.67896658733,-0.109415692426,0.0306326577788,-0.0262213486079,-0.00942298154714,-0.0533487552237,0.0551222707064,-0.0761897037613,0.0234546707394,-0.505120754242,0.508712232113,0.739525198936,-0.163817301393,-0.273369729519,-0.171438589692
2017/07/09/10:24:49.281262,547395,1499567092,88980955,,0.667964753724,-0.0202007546978,-0.0228058223554,0.725877667035,0.678430183119,-0.109075956189,0.0306028579346,-0.0162077556706,-0.00603253237328,-0.054488757201,0.0512747846254,-0.0867704279822,0.0162092656824,-0.856820881367,0.388739556074,0.985729634762,-0.076009914279,-0.393056988716,-0.143683254719
2017/07/09/10:24:49.291434,547396,1499567092,98987394,,0.667714560402,-0.0204583698969,-0.0235798915383,0.725702753902,0.678680979497,-0.10866789683,0.0306419523846,-0.0280823725578,-0.0110203404598,-0.0595566008836,0.0551871313539,-0.0710166848314,-0.014679655111,-0.598277688026,0.336472958326,0.794281184673,-0.0756118148565,-0.340321391821,-0.152238160372
2017/07/09/10:24:49.301688,547397,1499567092,108980480,,0.667735862224,-0.0206955261876,-0.0237587149852,0.726111301285,0.678310604002,-0.10822407953,0.0307351794371,-0.0277554298634,-0.0133639862804,-0.058169395914,0.070527711153,-0.0793087050849,-0.0299648506719,-0.685583353043,0.29263240099,0.860376298428,-0.105744116008,-0.309960275888,-0.161540582776
2017/07/09/10:24:49.311749,547398,1499567092,118999329,,0.667393123627,-0.0207049715299,-0.0240526347878,0.72565310312,0.678827533521,-0.108001998472,0.0309244562237,-0.024739001565,-0.000506442154698,-0.0522345063381,0.0423866220855,-0.0561717901756,0.0481242921484,-0.590196728706,0.293945431709,0.847360908985,-0.0364972352982,-0.287775337696,-0.151438757777
2017/07/09/10:24:49.321694,547399,1499567092,128987492,,0.667683104857,-0.0207003632168,-0.0242314434477,0.725854883094,0.678718518081,-0.107279711762,0.0310954232388,-0.0154852937564,0.00363461402024,-0.0377230432191,0.0356467016252,-0.0493312468667,0.0705607523325,-0.36688709259,0.0931735187769,1.10939526558,-0.0713455677032,-0.248762220144,-0.182118266821
2017/07/09/10:24:49.331560,547400,1499567092,138987277,,0.666999740435,-0.0203482637614,-0.0248160004707,0.725669427244,0.678953082186,-0.107206022852,0.0305526302917,-0.0229636917351,0.0101595603457,-0.046762748744,0.0560785612407,-0.0363636310903,0.0293037269318,-0.849705398083,0.50518399477,0.993061363697,-0.0367882102728,-0.402666807175,-0.111344255507
2017/07/09/10:24:49.341672,547401,1499567092,148988841,,0.666882359546,-0.0205659723716,-0.0251395300836,0.725466911205,0.679167825061,-0.107143638858,0.0308069278177,-0.0411136114704,-0.00654973287286,-0.0418776378356,0.0427771422909,-0.0110141854337,-0.0250645065758,-0.55669927597,0.15970094502,1.20419514179,0.0355110615492,-0.331996589899,-0.147193193436
2017/07/09/10:24:49.351238,547402,1499567092,158980862,,0.666298698016,-0.0205352273186,-0.0254779008079,0.725513039918,0.679089289576,-0.107410495326,0.0305213234551,-0.0402123923299,-0.00868723094945,-0.0358119593322,0.0299383917516,-0.00574477798984,-0.00907429815459,-0.865475296974,0.272658675909,1.32137811184,0.00831668078899,-0.424371242523,-0.117193214595
2017/07/09/10:24:49.361695,547403,1499567092,168981629,,0.665734706081,-0.0199417032113,-0.0260434493436,0.725255090054,0.679424536229,-0.107193303046,0.0299491185687,-0.039494631101,-0.00311310450636,-0.0308800451643,0.0216238429428,0.0186207844108,-0.000591122360483,-0.19678388536,0.183485031128,0.99237704277,-0.0356844812632,-0.233165085316,-0.172473877668
2017/07/09/10:24:49.371410,547404,1499567092,178984940,,0.665261582422,-0.020220854721,-0.0262614276239,0.725670188963,0.67898300943,-0.107231810279,0.0297689203802,-0.0417706090134,0.0289736935928,-0.0415380416134,0.0568770903392,0.0384759157951,0.0261556819052,-0.445236951113,0.372854560614,0.824603974819,-0.184447601438,-0.271887212992,-0.160689562559
2017/07/09/10:24:49.381479,547405,1499567092,188980048,,0.664962089671,-0.020267199571,-0.0263899688615,0.725596999732,0.679049175752,-0.107307266266,0.0297718238807,-0.0386335594703,0.00513435026133,-0.0279655182133,0.0306764334963,0.0332063735948,0.01852257563,-0.363095998764,0.606283783913,1.13691937923,-0.181090384722,-0.27139788866,-0.158327057958
2017/07/09/10:24:49.391418,547406,1499567092,198981407,,0.664558353626,-0.0206864223151,-0.0267084204747,0.725705905623,0.678918637197,-0.107434447442,0.0296354874083,-0.0450459995159,-0.00667441261965,-0.0265214153435,0.0268526360522,0.0346947272918,-0.015220527871,-0.486987113953,0.100733965635,1.08786773682,-0.0503962337971,-0.211282432079,-0.184218972921
2017/07/09/10:24:49.401226,547407,1499567092,208981045,,0.664114569745,-0.0205357801779,-0.026985496827,0.725393623782,0.679247282935,-0.10754588995,0.0293445183471,-0.0280573275046,0.00608922318588,-0.0167746763435,0.0292327444994,0.0148041791762,-0.00824684124957,-0.717237353325,0.19805406034,1.26351082325,-0.0733936578035,-0.318850189447,-0.148494526744
2017/07/09/10:24:49.411961,547408,1499567092,218991879,,0.663881774085,-0.0204042916543,-0.0272019891293,0.725566304406,0.67907362201,-0.10759685835,0.0289044957458,-0.041830331905,0.00590097824001,-0.0192228511287,0.0277000998193,0.0598914683649,-0.0106099427545,-0.400917947292,0.16596186161,0.891892910004,-0.1043163836,-0.183789283037,-0.18130287528
2017/07/09/10:24:49.421500,547409,1499567092,228979042,,0.663448985639,-0.0196456745343,-0.0273432440952,0.725360395149,0.679310607699,-0.107614507081,0.0284343680028,-0.0381832634581,-0.00768451708766,-0.00728018929327,0.00931171175839,0.0556710818631,-0.00941888152911,-0.659941673279,0.876154124737,0.930590510368,-0.267908394337,-0.316192507744,-0.150401294231
2017/07/09/10:24:49.431583,547410,1499567092,238994370,,0.663219621668,-0.0193182664917,-0.0274081116143,0.725109211222,0.679577256141,-0.107710408803,0.0281043159032,-0.0347320197998,0.0270030554994,-0.0122826912051,0.0236167434706,0.0711306400227,0.0268703667963,-0.336605906487,0.630398392677,0.769323050976,-0.143535405397,-0.247736304998,-0.14303958416
2017/07/09/10:24:49.441546,547411,1499567092,248980728,,0.663142767366,-0.0198044377548,-0.0271977606941,0.724920814431,0.67968344157,-0.10824396453,0.0283456558096,-0.0208692048286,0.0204472031995,-0.00996004768978,0.0127984527724,0.058974123841,0.0319800927734,0.433498173952,-0.189425349236,0.4573366642,0.169326737523,-0.00368117541075,-0.181732922792
2017/07/09/10:24:49.451384,547412,1499567092,258986621,,0.663249702145,-0.019686600975,-0.0274187471003,0.725226892023,0.679422507731,-0.107818351815,0.0283939093206,-0.0133123407075,0.0148297544771,-0.000860752870689,0.0168239758193,0.0339758022775,0.0275830096748,0.467940926552,-0.375113546848,0.0804056376219,0.144634097815,0.0148457661271,-0.225075036287
2017/07/09/10:24:49.461764,547413,1499567092,268978977,,0.662080216634,-0.0197331534133,-0.0274190175361,0.725232135979,0.679324261449,-0.108608934128,0.0275861591642,-0.0199723917022,0.019462049986,-0.00431191893726,0.0224253321097,0.0386698132059,-0.00849577758235,0.395251065493,-0.748956859112,-0.0576433464885,0.154355823994,0.0550856813788,-0.257784545422
2017/07/09/10:24:49.471576,547414,1499567092,278988047,,0.662628141814,-0.0190441009317,-0.0275475012819,0.72493117485,0.679693578462,-0.108278837224,0.027697013171,-0.0236188648672,0.00315241415109,-0.00960071734879,-0.000275001101632,0.0336028299291,0.00156029763476,0.497273117304,-0.254210263491,0.0645424425602,0.0570554584265,0.00748958438635,-0.224021196365
2017/07/09/10:24:49.481597,547415,1499567092,288983988,,0.662837555371,-0.0197194983423,-0.0273504064262,0.725190665796,0.679406235178,-0.108194933799,0.0282758225979,-0.0110650503777,0.0132338108215,-0.0127753619524,0.0127534836039,0.0291650647804,0.0363580796851,0.79720556736,-0.699616670609,-0.0527168437839,0.209249675274,0.12475129962,-0.239247113466
2017/07/09/10:24:49.491529,547416,1499567092,298987138,,0.662247262497,-0.0195084984813,-0.0276879433673,0.725479940491,0.679139944575,-0.108123384244,0.0275159119141,-0.012759421146,-0.0029102737622,-0.0143464650615,0.0133757792827,0.00524651475868,-0.0242372074948,0.714857399464,-0.604937434196,-0.19775249064,0.201439484954,0.168440937996,-0.244227290154
2017/07/09/10:24:49.501385,547417,1499567092,308985103,,0.662827822626,-0.0191170456487,-0.0273753190893,0.725060426354,0.679616778998,-0.107816353762,0.0280008160759,-0.0154185500584,0.00778382153564,-0.015290340716,0.016427973227,0.0210867641361,-0.0118057408505,1.20107018948,-0.281468838453,0.0386036932468,0.114514559507,0.239952772856,-0.254845827818
2017/07/09/10:24:49.511956,547418,1499567092,318996985,,0.662154468502,-0.0193205707052,-0.0277638536632,0.725085691912,0.679529981681,-0.10832757601,0.0274750733728,-0.00717234710772,0.0046995869494,0.000500725433671,-0.00607990631129,0.0151760605017,0.020336750837,0.672107338905,-0.468772411346,-0.100944899023,0.0963875502348,0.101615056396,-0.218006104231
2017/07/09/10:24:49.521527,547419,1499567092,328991077,,0.662208979367,-0.0191308190476,-0.0278581506352,0.724818114735,0.679802022938,-0.108384267663,0.0275818905179,-0.0067974378798,0.0193567645968,-0.00312486448591,0.0193235086932,0.0171913504659,0.0122660983317,0.445298969746,-0.406087130308,-0.2338078022,0.116992339492,0.0576889663935,-0.215976372361
2017/07/09/10:24:49.531472,547420,1499567092,338985931,,0.662522514206,-0.018452297471,-0.0279003624521,0.724460744263,0.680240836958,-0.108019257274,0.0275839412513,2.88139220816e-05,0.0289801818528,-0.00281336037389,0.0340930175235,0.00784775682959,0.0311761612218,0.681358933449,-0.369424372911,-0.258313030005,0.0455580949783,0.153983354568,-0.253391325474
2017/07/09/10:24:49.541433,547421,1499567092,348979300,,0.662173150533,-0.0182912844357,-0.027847035691,0.724617689078,0.680093162353,-0.108005873386,0.027151915408,-0.00889098145594,0.0135815725149,-0.0137810083703,0.0245334853173,0.0190618795435,0.020912308321,1.0679410696,-0.371940106153,-0.175343632698,0.0521693229675,0.278590112925,-0.27255064249
2017/07/09/10:24:49.551384,547422,1499567092,358988086,,0.661623035541,-0.0185851933103,-0.0280275492791,0.724991527404,0.679611703011,-0.108584261434,0.0269198159709,-0.00408865860532,-0.00348900339529,-6.96891049004e-05,-0.00483499187097,0.00516376903214,0.00520425199948,0.842697143555,-0.507654607296,0.133929386735,0.0662134587765,0.196035861969,-0.272526979446
2017/07/09/10:24:49.561670,547423,1499567092,368980511,,0.662039434244,-0.0183420899901,-0.028047576759,0.724650816613,0.680034005336,-0.108168089436,0.0271036897349,0.001421403266,-0.000430371234217,0.00366523510922,-0.00345885879935,-0.0015666178455,-0.00109317488861,1.16408610344,-0.451228141785,-0.132020682096,0.0817356854677,0.286337822676,-0.257370829582
2017/07/09/10:24:49.571616,547424,1499567092,378987453,,0.662356541518,-0.0182747611301,-0.0276873800498,0.724647139895,0.680053669891,-0.108023291095,0.0272854776617,0.00510735190057,0.0150390443577,0.00943425400866,0.0131750885829,-0.000349157152415,0.0145192097585,0.48718932271,-0.632392048836,0.299149870872,0.237640812993,-0.00325172394514,-0.19315443933
2017/07/09/10:24:49.581326,547425,1499567092,388990984,,0.661957708528,-0.0183537461043,-0.0281545229324,0.724821084296,0.679841830009,-0.108268903399,0.0269689911973,-0.00931650128204,0.0112933126633,-0.000590885203824,0.0186081523249,0.0149790856207,-0.0132652720939,0.843991518021,-0.316030859947,-0.00833201408386,0.16537848115,0.0828140079975,-0.195391401649
2017/07/09/10:24:49.591377,547426,1499567092,398980693,,0.662257017053,-0.0176266758215,-0.0279772295291,0.724564174829,0.680179808652,-0.107878940936,0.026913167019,0.00339079069172,0.0111023683486,-0.00543846886809,0.00234157411108,0.000751756828367,0.0104775800064,0.59249651432,-0.284637838602,0.117994226515,0.165870949626,0.0212663188577,-0.196683228016
2017/07/09/10:24:49.601404,547427,1499567092,408987220,,0.662581501744,-0.018470755404,-0.0276477821427,0.72498129508,0.679721932966,-0.107814136428,0.0275014111661,0.00528148483076,0.00844801024492,-0.00354119167163,0.0125302636279,-0.00797727803641,0.00676933361144,1.02189040184,-0.695666193962,0.101764462888,0.0912998914719,0.184968203306,-0.266671448946
2017/07/09/10:24:49.611875,547428,1499567092,418990656,,0.662247150502,-0.0173647938751,-0.0280258060781,0.724598301569,0.680188235602,-0.107658054872,0.0266647470158,0.00668240322757,-0.00227167905831,0.0011479983525,0.00884029012314,-0.019410073881,0.0115670316917,0.847913384438,0.0337248593569,-0.10547541827,-0.00892654061317,0.153172791004,-0.220778524876
2017/07/09/10:24:49.621559,547429,1499567092,428992460,,0.662513690252,-0.0185344692411,-0.0276568480896,0.724348597511,0.680344012593,-0.108112517424,0.0276191489746,0.0041001428447,0.0163123570074,-0.00357076604513,0.00827559899656,0.00551820086241,0.0410241864834,0.775382399559,-0.758846402168,0.130166143179,0.163821980357,0.141632407904,-0.252299278975
2017/07/09/10:24:49.631348,547430,1499567092,438984545,,0.662022497224,-0.0180228022673,-0.028255262126,0.724562459305,0.680150469848,-0.108080324115,0.0268928330677,0.00597404660766,0.00287711254969,0.00151768576832,-0.00231627111782,-0.00714640851102,0.022109332353,0.537922620773,-0.53793823719,0.188311994076,0.262661397457,0.030519746244,-0.17608691752
2017/07/09/10:24:49.641464,547431,1499567092,448986359,,0.661931181609,-0.0177761796771,-0.0280939761608,0.72471646832,0.679985548705,-0.108106529784,0.0268080643869,-0.00578628578316,-0.00649682916915,-0.00316049759707,0.00102573577232,-2.11721647434e-05,-0.0335360989741,0.655792534351,-0.221543461084,0.163282006979,0.137560084462,0.126169532537,-0.212997347116
2017/07/09/10:24:49.651463,547432,1499567092,458988818,,0.661974740869,-0.0173354582285,-0.0284511039233,0.724616621542,0.680143420804,-0.107874605262,0.0264338506679,0.000990613132832,0.00865835092903,-0.00692512994453,0.00732849111863,0.0012142208438,-0.000534532400382,1.07648396492,-0.191082641482,-0.0811894312501,0.174160644412,0.237924277782,-0.223427474499
2017/07/09/10:24:49.661841,547433,1499567092,468987307,,0.661926240652,-0.0176452457989,-0.0281183011083,0.724668383327,0.680059222106,-0.107998677042,0.0266734773183,0.0129710661307,0.0115907314546,0.00748097833275,-0.000275209257942,-0.0146062921133,0.011581937602,0.372718751431,-0.743919193745,0.12692168355,0.200060680509,0.0312579646707,-0.22357223928
2017/07/09/10:24:49.671494,547434,1499567092,478982930,,0.662324092096,-0.0180905866585,-0.0280307536846,0.724631065356,0.680119980487,-0.107746433557,0.0271539558755,-0.00457304036503,-0.0020900535365,0.00619679250596,0.00973860135862,0.00450928929134,-0.0138047381106,0.677698671818,-0.547269403934,-0.0501947700977,0.0761364251375,0.113583609462,-0.228212356567
2017/07/09/10:24:49.681349,547435,1499567092,488978780,,0.662376099768,-0.0180515238317,-0.0279371410134,0.724768222661,0.679986999483,-0.107685007235,0.0270673820557,-0.00662935289005,0.00724074159879,-0.00785751817229,0.0201275379277,0.0124346262065,-0.00704677321094,0.779882073402,-0.846767961979,0.318680167198,0.222475841641,0.135330826044,-0.235365122557
2017/07/09/10:24:49.691541,547436,1499567092,498987463,,0.662929364017,-0.0174336701426,-0.0278033756664,0.724281345669,0.680560840639,-0.107315781134,0.027144016378,0.00448397831042,-0.00922787401741,-0.0043515725991,-0.00310401065867,-0.00698673936814,0.0165178172513,0.830114722252,-0.581156849861,0.45155531168,0.073578864336,0.108930580318,-0.23981320858
2017/07/09/10:24:49.701375,547437,1499567092,508980037,,0.661991891565,-0.0176547958048,-0.0282437395008,0.724444179029,0.680304945428,-0.107972561345,0.0266033586907,0.0110854822372,0.0257261463566,-0.00271993282314,0.02021274803,-0.00967868017633,0.0463849517935,-0.0283722802997,-0.436036527157,-0.0425148569047,0.0383506417274,-0.0577773153782,-0.20060685277
2017/07/09/10:24:49.711672,547438,1499567092,518987632,,0.662640247512,-0.0176793705152,-0.0279623569457,0.725034429732,0.679766591879,-0.107277239279,0.0270933608363,0.0112695409859,0.0108418883111,0.00167692446203,-0.00464655831491,-0.0204248648972,0.00909678452166,0.697904229164,-0.37787848711,0.448237389326,0.146665528417,0.152796834707,-0.223850727081
2017/07/09/10:24:49.721585,547439,1499567092,528983219,,0.662761804501,-0.0174400989709,-0.027944813121,0.724700184846,0.680146442858,-0.107145516475,0.0270240013728,0.0129190359506,0.0104192230271,0.000948529111432,-0.00445746469277,-0.0210870567727,0.0186903580406,0.319182723761,-0.19235008955,0.404314815998,0.0222452133894,0.0643569082022,-0.186036705971
2017/07/09/10:24:49.731516,547440,1499567092,538988000,,0.662561668018,-0.0178840951742,-0.0279653894258,0.72426234047,0.680491293331,-0.107825524052,0.0273736778891,0.0115837518356,0.00438550834692,0.00592610197156,0.00483278229495,-0.0185654689083,0.029740689834,0.043393433094,-0.677796721458,0.278118282557,0.190942183137,0.00649234652519,-0.214074999094
2017/07/09/10:24:49.741362,547441,1499567092,548980247,,0.663246519891,-0.0173956062823,-0.0283023106395,0.724416933683,0.680460983951,-0.106957780389,0.0274406400879,0.00800341570241,-0.000138246196971,-0.00488294627323,0.00863435694183,-0.0240124884361,0.00468321160636,-0.117591649294,-0.30842679739,0.422722816467,0.057665169239,-0.149923920631,-0.192776545882
2017/07/09/10:24:49.751527,547442,1499567092,558987061,,0.663546677582,-0.0169972467829,-0.027934839129,0.724190764348,0.68071935928,-0.10679281007,0.0276439225,0.00905711720415,-0.00224022785442,-0.00272756528839,0.00359678988691,-0.0251643679098,-0.0141280627627,0.669234395027,-0.00557637214661,0.341487050056,-0.0271941125393,0.180084094405,-0.227633446455
2017/07/09/10:24:49.761634,547443,1499567092,568984092,,0.662929942141,-0.0169385071185,-0.0282832504046,0.72428388921,0.680592611206,-0.107109351013,0.0270948764136,0.0141398973775,0.0115292170965,-0.00683820150344,0.00818130367081,-0.0234520182276,0.00809464130926,-0.0758197084069,-0.21170592308,0.507771253586,0.0983304232359,-0.0692363530397,-0.201537698507
2017/07/09/10:24:49.771581,547444,1499567092,578987944,,0.662781687069,-0.0179492102434,-0.0279502429854,0.724679096136,0.680094327123,-0.107503508979,0.0274756145576,0.00760313658285,0.00530719504327,0.0060340878907,0.00572848309241,-0.00641081754987,-0.0050628151116,-0.533950924873,-0.33063608408,0.604686141014,0.174873486161,-0.193838596344,-0.13534411788
2017/07/09/10:24:49.781611,547445,1499567092,588979874,,0.662456767387,-0.0171048971841,-0.0282792169508,0.723870171003,0.680968557079,-0.107583397337,0.026825592596,-0.006202355561,-0.00570540395103,-0.000405285311533,0.0039854462094,0.00881924818882,-0.0148127911689,-0.278071045876,-0.0433555245399,0.270970135927,0.150919720531,-0.0646774470806,-0.171667903662
2017/07/09/10:24:49.791533,547446,1499567092,598987608,,0.663444011043,-0.0169028209424,-0.0279819803976,0.724078580658,0.680812247584,-0.107011842129,0.0274473717445,-0.00729638293003,0.0122199827851,-0.00870185649515,0.00956475079833,0.025120735039,0.0417389764078,0.0792494565248,0.207648932934,0.700630009174,0.101949080825,-0.0731754675508,-0.141013950109
2017/07/09/10:24:49.801528,547447,1499567092,608985677,,0.663101688265,-0.0163303372839,-0.0283605898086,0.724055155789,0.680918054317,-0.106690814505,0.0266796698003,0.0135730443856,0.0106448244325,0.00527462996411,0.00971157433932,-0.0259965693713,0.00231300001698,-0.214164629579,0.0554697215557,0.377200365067,0.081853300333,-0.108628928661,-0.145686790347
2017/07/09/10:24:49.811788,547448,1499567092,618981251,,0.662585135062,-0.0169342369666,-0.0283168240632,0.724575075363,0.680284334956,-0.107219897597,0.0266097225745,-0.00979697308222,0.00382187288333,-0.0108462951203,0.0205821408121,0.0122424309475,-0.0177830896506,2.77819252014,1.43432736397,-0.994862258434,-1.03265070915,1.16931331158,-0.398213893175
2017/07/09/10:24:49.821278,547449,1499567092,628980649,,0.663170786739,-0.0171386665186,-0.0281226165086,0.724236627234,0.68067575359,-0.106862074215,0.0272456114374,0.00405561442152,0.000475231644463,-0.00447018668417,-0.000869475846491,-0.00984936991055,0.00944966192228,2.61503815651,1.52448511124,-1.03283274174,-1.10993421078,1.10264205933,-0.386744558811
2017/07/09/10:24:49.831486,547450,1499567092,638987060,,0.662973040593,-0.016511930078,-0.0285373021254,0.724136921796,0.680785393675,-0.106960578264,0.0267656673375,0.00758237722788,0.0235790127509,-0.00745172669955,0.018565194687,-0.00937926867778,0.0452504973416,2.00481748581,1.19100129604,-0.615146279335,-0.908586740494,0.910910367966,-0.358430594206
2017/07/09/10:24:49.841290,547451,1499567092,648982038,,0.662305050524,-0.0178300317744,-0.0284754882484,0.724385114396,0.680374301597,-0.107820925043,0.0270492863389,-2.24896049067e-05,0.00778548891689,-0.0120320572172,0.00948005776297,-0.00947364456819,-0.0103173321519,0.558140516281,1.53656363487,-0.464158982038,-1.03793847561,0.409070491791,-0.235481545329
2017/07/09/10:24:49.851524,547452,1499567092,658980948,,0.663079400972,-0.0163962164387,-0.0284408302828,0.723740414149,0.681237019182,-0.106707436644,0.0270085095427,0.00727235120172,0.000883474960838,-0.00683362532212,0.00198423321237,-0.0241540949939,0.0239051213065,0.26380226016,1.53702628613,-0.240638941526,-0.930411279202,0.362902849913,-0.216738373041
2017/07/09/10:24:49.861672,547453,1499567092,668991560,,0.662574875118,-0.0166902341421,-0.0290102560838,0.72435439543,0.680573007304,-0.106864055889,0.0266676791067,0.00293901362188,0.00654594266581,-0.0159224727511,0.0152748096576,-0.0186531642153,0.0198700469566,1.0510751009,1.29831027985,-0.134966492653,-0.79474145174,0.664479732513,-0.250686466694
2017/07/09/10:24:49.871797,547454,1499567092,678985859,,0.662714791744,-0.0166296669123,-0.0291875193414,0.724097920839,0.680841004829,-0.10685926648,0.0268108997916,-0.0100118894672,0.00912419003376,-0.0202896837739,0.019062245555,0.00514608664963,-0.015468257353,0.584850311279,1.44110810757,-0.0457031130791,-0.840285181999,0.372610211372,-0.163608640432
2017/07/09/10:24:49.881688,547455,1499567092,688978444,,0.661858538016,-0.0163264129019,-0.0293546747778,0.72421734574,0.680667118784,-0.107349765786,0.0260295470701,-0.0179510004139,-0.00604830600833,-0.00702296257001,-0.0127190227606,0.0390282196254,-4.1399576502e-05,0.526761889458,1.38196837902,-0.247723549604,-0.896512150764,0.271800071001,-0.18824711442
2017/07/09/10:24:49.891339,547456,1499567092,698987829,,0.662610506862,-0.0161800896957,-0.0293116448813,0.724128794904,0.680822095117,-0.106827312106,0.0265836148924,-0.0142780864644,0.0261543906979,-0.0157362665118,0.0236425966445,0.0475779433116,0.0428790317179,-0.0327688604593,1.09740257263,-0.0390854626894,-0.707237899303,0.0120102651417,-0.121061265469
2017/07/09/10:24:49.901633,547457,1499567092,708987628,,0.662773861684,-0.0161672381375,-0.0293114021942,0.724182619971,0.680805656779,-0.106547322844,0.0266619321117,-0.0165865083918,0.0238301606987,-0.0255470712998,0.0367237245012,0.0347741412944,0.0136249952092,-0.169817179441,0.948753595352,0.386498719454,-0.424559414387,-0.0617472678423,-0.0947613045573
2017/07/09/10:24:49.911569,547458,1499567092,718983527,,0.662139357511,-0.0157462481864,-0.0302724096006,0.724090215639,0.680936505416,-0.106477964132,0.0261013095988,0.000284071748143,0.0215852669017,-0.0210951144905,0.0263365849023,-0.0245011454665,0.0232606403048,-0.00419548153877,0.399935275316,0.720675289631,-0.0890055149794,0.0660990327597,-0.0673163235188
2017/07/09/10:24:49.921601,547459,1499567092,728988716,,0.662610647508,-0.0156550074417,-0.030094782529,0.723594591591,0.681448395948,-0.106419952272,0.0267159959249,-0.012037996114,0.0102859347471,-0.0306887534404,0.0214553947763,-0.0100273417216,0.0205857617383,0.343355119228,0.00127406418324,0.952024519444,0.0613252669573,0.248373538256,-0.165106713772
2017/07/09/10:24:49.931478,547460,1499567092,738990250,,0.66229530783,-0.0156636453143,-0.0302170731924,0.723887118108,0.681151569421,-0.106397597894,0.0264486459957,-0.00376879298561,0.0253845937692,-0.0269783723954,0.0313780888064,-0.0179111207939,0.0309464397786,1.1835038662,-0.388560175896,1.1216044426,0.192017108202,0.578223764896,-0.216922551394
2017/07/09/10:24:49.941145,547461,1499567092,749028134,,0.662213547964,-0.0151071790616,-0.0306672636927,0.723744394776,0.681370719515,-0.106067714693,0.0260313948521,-0.00574433114616,0.0491946936641,-0.036599382213,0.0764644561362,-0.000594323180641,0.0139114615702,1.08943676949,-0.389562815428,1.10426425934,0.186263173819,0.473150372505,-0.193614721298
2017/07/09/10:24:49.951490,547462,1499567092,758987193,,0.661869867991,-0.0143946551622,-0.031127708773,0.723660197823,0.681499175585,-0.105930943035,0.0255622196335,-0.00896627133974,0.0454812009686,-0.0325285717737,0.0736315170381,0.00708925734925,0.0242016722127,0.11301650852,-0.382965475321,1.23171377182,-0.0118514597416,0.0668407380581,-0.132518753409
