time,.header.seq,.header.stamp.secs,.header.stamp.nsecs,.header.frame_id,.pose.position.x,.pose.position.y,.pose.position.z,.pose.orientation.x,.pose.orientation.y,.pose.orientation.z,.pose.orientation.w,.twist.linear.x,.twist.linear.y,.twist.linear.z,.twist.angular.x,.twist.angular.y,.twist.angular.z,.wrench.force.x,.wrench.force.y,.wrench.force.z,.wrench.torque.x,.wrench.torque.y,.wrench.torque.z
2017/07/09/10:23:29.362050,539403,1499567012,169175911,,0.780208618805,0.400024261618,0.164944857316,0.621888466014,0.780635687591,0.0545206252039,0.0298355580731,-0.00187744464546,-0.00109607230158,-0.00956285988526,0.0228571007453,0.0121536914946,-0.0256880031872,7.23582267761,2.44147634506,-0.23377610743,-0.736508369446,2.88749027252,0.0123180001974
2017/07/09/10:23:29.372156,539404,1499567012,179182832,,0.779940705094,0.399851438618,0.164436334649,0.622020807995,0.78057383415,0.0540441857884,0.0295606130499,-0.013014178645,-0.00133685512832,-0.0223270280864,-0.00596907347235,0.036682946879,-0.00289371113516,7.80102205276,2.73650312424,-0.130664587021,-0.835638165474,3.10161185265,0.0203787684441
2017/07/09/10:23:29.381822,539405,1499567012,189182278,,0.779618436175,0.399952532689,0.163927316908,0.62155407607,0.780988761269,0.0535560550897,0.029305874093,-0.00128926224477,-0.00714660585392,-0.0048551508183,-0.0176706485727,0.0080191923955,0.0101505371319,8.18939304352,2.64350056648,-0.0600524991751,-0.755616605282,3.21256089211,0.0375569462776
2017/07/09/10:23:29.391832,539406,1499567012,199175908,,0.779769223716,0.399330286708,0.164438309837,0.622016857052,0.780604381401,0.0537010584938,0.0294622741322,0.00265821162789,-0.009802237023,-0.00098414222413,-0.00530436479778,0.00791480645432,-0.0098868891393,7.77918434143,2.74546480179,-0.121925547719,-0.822203934193,3.0353474617,0.00225554406643
2017/07/09/10:23:29.401659,539407,1499567012,209180274,,0.779774237964,0.400125547972,0.164488623023,0.621508833141,0.780986342646,0.053912437831,0.0296740960421,0.00506564100715,-0.0110549620984,0.011404648487,-0.00295016740441,-0.00719677367492,-0.0085452456762,7.33219909668,2.58903598785,-0.14760813117,-0.716832637787,2.88333272934,0.0146381407976
2017/07/09/10:23:29.411747,539408,1499567012,219179355,,0.779568973492,0.399923315296,0.164267305827,0.621751717803,0.780816612766,0.0538234760149,0.0292104787073,-0.00322941860118,0.00375642336076,7.62324308895e-05,0.0082046317673,0.00185668987632,-0.00762261800537,7.91567659378,2.81022047997,-0.0862424299121,-0.867631554604,3.14195585251,0.0330131053925
2017/07/09/10:23:29.421851,539409,1499567012,229180280,,0.780225034582,0.399341639307,0.164551716561,0.622013989557,0.780568243212,0.0540843937986,0.0297773879291,0.00168458880694,0.00849074772249,-0.00446971290365,0.0259537511089,-0.00692199062546,-0.00571703713969,7.63301277161,2.64574766159,-0.0155790448189,-0.75305056572,3.05278944969,0.0334068834782
2017/07/09/10:23:29.431984,539410,1499567012,239182071,,0.780256929438,0.400437620371,0.164888660522,0.621755445734,0.780738066057,0.0545628332305,0.0298518866915,0.0165131374313,-0.00620228449473,0.015239200984,0.00576193558396,-0.0287075304496,-0.026929463543,7.85617494583,2.74616384506,-0.155675336719,-0.897660970688,3.08164453506,-0.0122300311923
2017/07/09/10:23:29.441960,539411,1499567012,249174933,,0.779724427767,0.399670427487,0.164176226472,0.622234362404,0.780430942609,0.0538678676683,0.0291581017107,0.0103951722019,0.014089601652,0.00992203551382,0.00869882250436,-0.026298119421,0.0056976448356,7.36366415024,2.6544034481,-0.205384582281,-0.780903339386,2.89178228378,-0.00137795507908
2017/07/09/10:23:29.451975,539412,1499567012,259185688,,0.780529181693,0.400333007144,0.165249335772,0.621783599184,0.780689622609,0.0548252672737,0.030050940172,-0.0126409492187,0.000560601775291,-0.00222967447489,-0.00841972149474,0.0298964586748,0.00775424229097,7.44581842422,2.57186675072,-0.332714140415,-0.717255115509,2.89400696754,0.0458490401506
2017/07/09/10:23:29.461859,539413,1499567012,269175384,,0.78007957249,0.399455481348,0.164645078555,0.622325959367,0.780319444443,0.0541574207835,0.0296469002698,0.00917064777064,-0.00665590477684,0.0135633918905,-0.00634431489745,-0.0288462220047,-0.00275027873563,7.60035133362,2.45706558228,-0.27756947279,-0.666463553905,2.96888780594,0.0389885306358
2017/07/09/10:23:29.471863,539414,1499567012,279179900,,0.779813237141,0.399195473671,0.164436928216,0.621820895329,0.780761602933,0.0535953728382,0.0296248127153,-0.00783801910696,-0.00597750309496,-0.00842941002655,0.00557798581102,0.027015296076,-0.0152564614368,7.48219156265,2.61392641068,-0.241427049041,-0.701822340488,2.94886398315,0.0549106299877
2017/07/09/10:23:29.482030,539415,1499567012,289180231,,0.780381378791,0.399206516048,0.164497132122,0.622329918635,0.780312741331,0.0541215611423,0.0298052798576,0.00460247283392,-0.00740262809452,-0.00426290331351,-0.00256316726324,0.00019670564424,-0.00726591074706,7.39985895157,2.54910135269,-0.279574543238,-0.682955682278,2.89504289627,0.0533973574638
2017/07/09/10:23:29.491928,539416,1499567012,299181810,,0.779892078171,0.399438294063,0.164492641092,0.622153867308,0.780471321478,0.05400214746,0.029544031769,0.00355605450153,0.0180573442342,0.00551620605181,-0.00706989475277,-0.0217226232502,0.0386238347364,7.41617155075,2.80059242249,-0.379166543484,-0.807833492756,2.87961244583,0.0236994028091
2017/07/09/10:23:29.501892,539417,1499567012,309199294,,0.779997553958,0.399360436667,0.164799892252,0.62239077033,0.780279490562,0.054074819066,0.0294882952881,-0.00782106597345,-0.000223496025148,-0.00590404537189,0.00686346958007,0.0147296557568,-0.0161848096788,7.76803207397,2.66526627541,-0.389162093401,-0.759516596794,2.99276208878,0.0401382744312
2017/07/09/10:23:29.511959,539418,1499567012,319179365,,0.779874221778,0.399253423422,0.164423738381,0.622269424544,0.780388165498,0.0540573632746,0.0292040391839,0.00350991648141,0.00167561496865,0.0107244349926,0.00480036049023,-0.00639107948998,0.0117626523896,7.97688055038,2.79303240776,-0.38647583127,-0.829097986221,3.08812665939,0.0319957584143
2017/07/09/10:23:29.521954,539419,1499567012,329182201,,0.780347392674,0.400156361443,0.164984935053,0.621755270884,0.780742324744,0.0544542967257,0.0299421951379,-0.000124104163019,-0.00166232387433,0.000151502992704,0.0135933413544,0.00845844303782,0.00525657984434,7.90759038925,2.54202628136,-0.442770123482,-0.703975617886,3.02692699432,0.037119731307
2017/07/09/10:23:29.532098,539420,1499567012,339182593,,0.77919241935,0.400153197096,0.164531793691,0.621622588707,0.780944530746,0.053546041375,0.0290485552109,-0.000483336856775,-0.014699581472,-0.00170700472142,-0.0205559887644,0.00765146438925,-0.0137139355669,7.91953849792,2.74904847145,-0.459149211645,-0.781310856342,3.00768232346,0.033067420125
2017/07/09/10:23:29.542067,539421,1499567012,349176654,,0.780035966399,0.39958929093,0.16496836771,0.621758156184,0.780782732517,0.05395119219,0.0297386731854,-0.0109602639587,0.0117537079734,0.000392013165437,-0.00158256427006,0.00965563887092,0.0209722264359,7.90026330948,2.5730547905,-0.356031954288,-0.674646258354,3.0285141468,0.0582878738642
2017/07/09/10:23:29.551824,539422,1499567012,359180846,,0.780084857929,0.399798077635,0.164853762346,0.62191831219,0.780638548751,0.0542268361286,0.0296735473204,0.00369514307101,0.01002396175,0.00134263171434,-0.0122479818604,-0.0167114109708,0.0190845696359,8.31659030914,2.87566876411,-0.319020658731,-0.821277976036,3.16771936417,0.0364456325769
2017/07/09/10:23:29.561966,539423,1499567012,369175716,,0.780072563012,0.400203182788,0.165098737614,0.621803672683,0.780715084037,0.0544432940135,0.0296661074633,0.00883893646568,-0.0236806188396,0.00555910299972,-0.0127818495324,-0.00997567897176,-0.0353791492119,7.78896522522,2.60781502724,-0.354520469904,-0.709917247295,2.97028303146,0.0352798849344
2017/07/09/10:23:29.571831,539424,1499567012,379187592,,0.780061293429,0.399901021724,0.165286885085,0.622218896503,0.780389372224,0.054313560156,0.0297675954274,0.00716735220853,-0.00909493888112,0.00923100745427,-0.000591798026214,-0.0149802530184,-0.0247688512637,7.56563186646,2.55541372299,-0.521494746208,-0.642944812775,2.88914728165,0.0808579921722
2017/07/09/10:23:29.581822,539425,1499567012,389203383,,0.780600293207,0.39917042379,0.165120431534,0.622037445184,0.780518911413,0.0543221330878,0.0301455066879,0.00780358490529,-0.0134891525827,0.00931691902748,-0.027883331593,-0.0214137357996,0.0105538460632,7.80669784546,2.61389422417,-0.448857545853,-0.664345979691,2.98711133003,0.031704813242
2017/07/09/10:23:29.591923,539426,1499567012,399183817,,0.78032601881,0.399039086484,0.16468682404,0.62234234323,0.780306835333,0.0540745858873,0.0297857300978,0.0126740669079,-0.00750974495027,-0.00073159857636,-0.00688288523355,-0.0185861682747,-0.0104813285182,7.96520185471,2.79062247276,-0.404218733311,-0.802147626877,3.08672952652,0.0132575035095
2017/07/09/10:23:29.601691,539427,1499567012,409183073,,0.780272808486,0.399107865516,0.164949551281,0.622021613849,0.780561405664,0.0540128837404,0.0299267820376,-0.000656790255797,0.00241455798517,0.00411571670298,-0.0173279858662,-0.0114741690569,0.0274599132867,7.91362762451,2.77293300629,-0.352840155363,-0.718370556831,3.06893277168,0.0494301468134
2017/07/09/10:23:29.611789,539428,1499567012,419183574,,0.780139687633,0.398432766419,0.164514386775,0.622383543543,0.780305789765,0.0535597990943,0.0298822205855,-0.00252163214346,-0.0208197574523,-0.00903502127709,-0.0236975034067,0.00525320206612,-0.00969890280196,7.84216451645,2.76319289207,-0.440855115652,-0.714460670948,3.02812981606,0.00669598579407
2017/07/09/10:23:29.621676,539429,1499567012,429176019,,0.780321485302,0.399019018126,0.164573018623,0.622140529051,0.780484015261,0.0537584614026,0.0299314527267,-0.0120226532709,-0.0116251364067,-0.0250950058584,-0.0209744809675,0.0418436382721,-0.00403192832672,7.78755903244,2.92473483086,-0.395464509726,-0.767439782619,3.01096391678,0.0265312790871
2017/07/09/10:23:29.632020,539430,1499567012,439177148,,0.780645082499,0.398651624889,0.164835400384,0.622076459525,0.780507289182,0.0539180331631,0.03036602933,0.00298689062196,-0.0060687996224,-0.000123233128353,-0.00794607561025,3.76004184319e-05,-0.0236787982287,7.51280975342,2.83283019066,-0.31127601862,-0.696803808212,2.92149090767,0.0257009863853
2017/07/09/10:23:29.642016,539431,1499567012,449176377,,0.780241355166,0.399662995765,0.164799306016,0.622084698372,0.780502315565,0.0542583797163,0.0297118104362,0.0107911705962,-0.0195318198124,0.00451409765219,0.00153938022987,-0.00910735219032,-0.0182773306384,7.31170272827,2.93093395233,-0.323198586702,-0.82244604826,2.85615825653,-0.0198787152767
2017/07/09/10:23:29.651934,539432,1499567012,459183783,,0.780044720298,0.399077811494,0.164587947232,0.622096628736,0.780528398902,0.0536563222736,0.0298697523101,0.011602630758,-0.0320453041117,-0.00365150386924,-0.00552550127852,-0.00968809409805,-0.0475622259581,7.11646270752,3.14617681503,-0.308972269297,-0.904860138893,2.77947831154,-0.0139469206333
2017/07/09/10:23:29.661807,539433,1499567012,469182848,,0.780151276704,0.398735010546,0.164326012852,0.622267660568,0.780393159817,0.0537011852546,0.0297599970553,0.00302630788475,-0.0219875817686,-0.01086696542,-0.00763805819161,0.0123833259331,-0.0315021443988,7.17565250397,3.31579971313,-0.313774466515,-0.962781071663,2.77187013626,-0.0462150648236
2017/07/09/10:23:29.671788,539434,1499567012,479212816,,0.780722793041,0.397554854614,0.16444529677,0.622846429729,0.779924270748,0.0535822546661,0.0301562407841,-0.00645512409496,-0.0362875021985,-0.0155317546607,-0.0186952346301,0.0351151503585,-0.0385742739708,7.01396608353,3.23922395706,-0.222150206566,-0.944296777248,2.72554850578,-0.0390618294477
2017/07/09/10:23:29.681938,539435,1499567012,489182303,,0.780516674513,0.396893216152,0.164273128102,0.623197123048,0.779669443682,0.0532162347768,0.0301485782262,0.00506194616302,-0.0349302309206,-0.00811815714304,-0.0282414355414,0.00361425664445,-0.0154605555907,7.40668487549,3.55883216858,-0.2635166049,-0.990950524807,2.87947154045,-0.0272360369563
2017/07/09/10:23:29.691933,539436,1499567012,499183293,,0.780793164139,0.397142272709,0.164743084734,0.622875727396,0.779892692887,0.0534618997494,0.0305784413961,0.0121941006606,-0.0295170760285,0.00991993990397,-0.0160326893582,-0.0218733706674,-0.0229783994548,6.79512500763,3.66619420052,-0.177335858345,-1.00884056091,2.66969680786,-0.0224069952965
2017/07/09/10:23:29.701963,539437,1499567012,509181386,,0.780391571439,0.397386405207,0.164139347941,0.622754967741,0.780027497625,0.053183213125,0.0300815382544,0.00335869222106,-0.0337590423681,0.00153867431597,-0.0184356975001,-0.000956106591713,-0.0403264579212,6.97377872467,3.76198124886,-0.16384716332,-1.02312326431,2.73180437088,-0.032190144062
2017/07/09/10:23:29.712087,539438,1499567012,519180221,,0.780989798675,0.396164847813,0.164308870791,0.623389918066,0.779486999786,0.0533238698117,0.0306853731588,0.000110717154076,-0.0321316805976,-0.0114443963826,-0.0252233607027,0.0104889258681,-0.0463075154103,6.89952945709,3.56142377853,0.00299956835806,-0.893507838249,2.74965429306,0.0050003528595
2017/07/09/10:23:29.721611,539439,1499567012,529175774,,0.780584845273,0.395967861777,0.163895826709,0.623431440282,0.779496120869,0.052993001742,0.0301791084223,0.0128164019421,-0.0606679826188,-0.00429158047675,-0.0336107245705,-0.00555210313945,-0.0727761429488,6.23982334137,3.9188644886,0.00537402927876,-0.972928106785,2.47876429558,-0.0330080837011
2017/07/09/10:23:29.731920,539440,1499567012,539183256,,0.780920573648,0.395300588483,0.164048727635,0.624005238329,0.77902310658,0.0530426359924,0.0304457011715,-0.00197974819955,-0.0495269213888,-0.0160971517682,-0.0364742053549,0.0301444381359,-0.0428861742746,6.79855394363,4.1886048317,-0.0153684914112,-1.145601511,2.65808057785,-0.054937414825
2017/07/09/10:23:29.741973,539441,1499567012,549175332,,0.780916950387,0.394593038289,0.163992909481,0.624085605198,0.778978011919,0.0526783666738,0.0305843753574,0.0144373599608,-0.0693520397054,-0.0172461744186,-0.0413928654506,0.0115667811206,-0.0809812195363,6.48477506638,4.15170049667,0.0460631251335,-1.12792873383,2.52649641037,-0.0670800507069
2017/07/09/10:23:29.751901,539442,1499567012,559176593,,0.781016302933,0.394023981782,0.163881499671,0.624033108917,0.779035610643,0.0523447104653,0.0307608129351,-0.00176209495798,-0.0397122220112,-0.0109694567724,-0.0218841142114,0.029787895237,-0.0607295967065,6.37343263626,4.17737674713,0.108094103634,-1.09152150154,2.46869897842,-0.0566248446703
2017/07/09/10:23:29.761936,539443,1499567012,569182936,,0.780474856551,0.39413841809,0.163237976448,0.624343711209,0.778824478847,0.0521455744544,0.0301363648571,0.00880981345865,-0.0514725209359,-0.00307806969992,-0.0112575317867,0.00663113448196,-0.0671138968274,5.75741195679,4.07682991028,0.412328124046,-1.07456707954,2.24040794373,-0.055896922946
2017/07/09/10:23:29.771831,539444,1499567012,579181408,,0.780689359431,0.392646087676,0.163352946784,0.625100686873,0.778229284026,0.0517122147293,0.0305640246493,-0.00801985149202,-0.0460383121417,-0.0179400865359,-0.0204037746961,0.0407267762878,-0.0560726455604,5.31663894653,3.67018723488,0.495819360018,-1.00602853298,2.04711461067,-0.0578296221793
2017/07/09/10:23:29.781736,539445,1499567012,589181952,,0.781025390414,0.392301358804,0.163278331958,0.624931608224,0.778350069687,0.051791921637,0.0308099158372,0.00937300264612,-0.0549775677941,-0.0099019670162,-0.0415981020292,-0.00103780335476,-0.0512170410152,4.08692026138,2.36123681068,0.409834563732,-0.738935649395,1.55432236195,-0.108709834516
2017/07/09/10:23:29.791996,539446,1499567012,599180810,,0.781156095367,0.391228737326,0.163446351826,0.625872811702,0.777583582159,0.0517828561209,0.031073013055,0.0140540375368,-0.0803529541134,-0.00649241840416,-0.0687571540726,-0.0221104818318,-0.0703352077358,4.47714090347,2.15800285339,0.322392880917,-0.907563149929,1.68287611008,-0.223959058523
2017/07/09/10:23:29.802214,539447,1499567012,609179744,,0.780524804204,0.390974545681,0.16263275732,0.625578469442,0.777887060574,0.0509448636758,0.0307883163949,0.00753508063128,-0.104684826176,-0.023410993122,-0.0761311378647,0.00410829488454,-0.113556000434,5.22926330566,2.29887485504,0.597523629665,-0.983829855919,2.02540016174,-0.179271489382
2017/07/09/10:23:29.811834,539448,1499567012,619179296,,0.781162283316,0.389356658265,0.163090629789,0.62591520072,0.777596050718,0.0507774248777,0.0315625812916,0.00926127802904,-0.0822388944882,-0.021227697704,-0.048867690864,0.00835925179324,-0.0815659838944,5.45893764496,2.18126606941,0.703774929047,-0.749521076679,2.13384604454,-0.0587694272399
2017/07/09/10:23:29.821991,539449,1499567012,629177403,,0.781382798818,0.388165184714,0.163018202324,0.626554925732,0.777087324886,0.0504845571645,0.0318672877796,0.0077552473503,-0.102704205518,-0.00196471941231,-0.0772412940147,0.0094800494575,-0.095338066099,5.49674987793,2.39182424545,0.57075047493,-0.66271173954,2.09473443031,-0.0415593385696
2017/07/09/10:23:29.832056,539450,1499567012,639194453,,0.781537579726,0.386520045031,0.162780023499,0.626922830882,0.776829219554,0.049513875888,0.0324423158928,0.00164758587926,-0.116044246395,-0.00555135705849,-0.113838876925,0.0312768087952,-0.097317576115,5.18022584915,2.02886223793,0.541917383671,-0.275762677193,1.9512963295,0.0525154769421
2017/07/09/10:23:29.842211,539451,1499567012,649177538,,0.780751301297,0.386091396581,0.16232837423,0.627344827554,0.776556814803,0.0488436944787,0.0318162573901,0.00321687799889,-0.136003933537,-0.0184127097412,-0.154750723401,0.0413388391842,-0.103286587999,4.5289940834,1.85071825981,0.266196668148,-0.213813215494,1.6439435482,-0.0232411697507
2017/07/09/10:23:29.851967,539452,1499567012,659182362,,0.781540064086,0.384935208103,0.162651286441,0.627243292213,0.776596311399,0.0489603264012,0.0326635566561,0.00331737144258,-0.142562153099,-0.0112231302045,-0.131729975798,0.0347355555907,-0.110780855185,4.15892791748,0.555951595306,0.291667997837,0.404774010181,1.5130456686,0.128449976444
2017/07/09/10:23:29.861943,539453,1499567012,669183271,,0.782043581309,0.383604040289,0.162916990428,0.628174225054,0.775815075774,0.0490223927172,0.0332402796574,0.0268273500512,-0.137183899496,0.00515530916298,-0.0823718738542,-0.0265985509147,-0.148415796352,3.69798254967,-0.470300883055,0.44547444582,0.766058146954,1.34331357479,0.223161756992
2017/07/09/10:23:29.872080,539454,1499567012,679178038,,0.781884090428,0.381559774088,0.162153275927,0.628935709417,0.77526204581,0.0480812546558,0.033118374012,0.0322754430454,-0.138150500705,-0.00480849837232,-0.0689383383179,-0.0298714084445,-0.156910815969,3.62260699272,-0.732512533665,0.413228303194,0.749618768692,1.30320954323,0.21428462863
2017/07/09/10:23:29.882018,539455,1499567012,689179836,,0.782165082235,0.381293556461,0.162245000997,0.62865174632,0.775471429395,0.0480155463964,0.0336979427432,0.0232339056764,-0.141752970778,-0.0101869792145,-0.0683190678153,-0.0104295161228,-0.131284717754,3.91016554832,-0.00769100338221,0.508064627647,0.351447433233,1.39295172691,0.164471596479
2017/07/09/10:23:29.891763,539456,1499567012,699191012,,0.782522654122,0.379499792509,0.162347873987,0.629348525169,0.774908544253,0.0477721570938,0.033985333872,0.025891219534,-0.140578735032,-0.00335024814415,-0.0964056804659,-0.0198062252054,-0.106476796531,3.9104654789,1.01268517971,0.415224254131,-0.294857352972,1.30009961128,-0.0459324754775
2017/07/09/10:23:29.902004,539457,1499567012,709174905,,0.782683300907,0.378248519251,0.162445120772,0.629917680365,0.774445056419,0.0474234566093,0.034490380036,0.0320509748536,-0.121879380073,-0.00125827540972,-0.0879260178097,-0.0301664373146,-0.091052548496,4.27039957047,1.42978608608,0.279880434275,-0.511265933514,1.39830827713,-0.0887779071927
2017/07/09/10:23:29.911861,539458,1499567012,719187668,,0.782750175477,0.376539732686,0.162526549797,0.630392150154,0.774072513899,0.0469849743952,0.0347835080425,0.0244690229692,-0.152849091408,-0.00757726433431,-0.112186811377,-0.00754986932436,-0.14310239527,4.0309844017,1.65473914146,0.285380959511,-0.571900963783,1.30250358582,-0.080953553319
2017/07/09/10:23:29.922007,539459,1499567012,729182727,,0.783450012142,0.375146927348,0.162232758987,0.631148678022,0.773441778388,0.0470359162494,0.0350254801123,0.0225380045317,-0.147485966298,0.00617886098063,-0.0923988277168,-0.0180852387886,-0.151309320408,3.52187991142,1.66867041588,0.518240511417,-0.497871339321,1.15177965164,-0.0689897239208
2017/07/09/10:23:29.931871,539460,1499567012,739182168,,0.783500538756,0.373470664046,0.162181322234,0.63164632061,0.773047017552,0.0464228278991,0.0355830769297,0.0344094836064,-0.156548897934,-0.0014386564151,-0.087129013128,-0.0249185656116,-0.164241442414,3.73149943352,1.5381090641,0.410051584244,-0.350789666176,1.20285189152,-0.0348066315055
2017/07/09/10:23:29.941946,539461,1499567012,749178342,,0.78406017071,0.371590756873,0.162510939899,0.632488841612,0.772334383759,0.046451689615,0.0360514275857,0.0188097465815,-0.152434508934,-0.00818888823105,-0.0637861492819,-0.00505546480518,-0.155263858036,3.67588567734,1.15637993813,0.350399523973,-0.0896612778306,1.22835838795,0.0145101696253
2017/07/09/10:23:29.951913,539462,1499567012,759174475,,0.784144095466,0.370534661273,0.162668176866,0.632806062967,0.772085821677,0.0462412922006,0.0360792673709,0.0256199375143,-0.192004993195,-0.00447653977214,-0.0753152033528,-0.00542644473784,-0.196918229861,4.01270055771,1.18718707561,0.291054725647,-0.152854889631,1.3271074295,-0.00322899222374
2017/07/09/10:23:29.961901,539463,1499567012,769195386,,0.784657704741,0.368288159171,0.162669993885,0.634011501869,0.771065908394,0.0463822793622,0.0365440086962,0.0179518182812,-0.171400215687,0.00208316215667,-0.0452462501728,0.000978463771393,-0.197407302403,4.13964605331,1.33408582211,0.373560845852,-0.222223222256,1.38173127174,0.0133712477982
2017/07/09/10:23:29.972074,539464,1499567012,779182930,,0.784400427394,0.3670203886,0.162222634544,0.634909995515,0.770372193558,0.0459565519762,0.0361106122675,0.0405002506851,-0.163773059771,0.0182102702848,-0.00170548887682,-0.0408963127144,-0.238455098171,4.00864744186,1.34616744518,0.472811430693,-0.29702013731,1.3288205862,0.0426737442613
2017/07/09/10:23:29.981897,539465,1499567012,789196149,,0.785081301786,0.365207804884,0.162605494437,0.635558653464,0.769802485157,0.0462705824385,0.036446742712,0.0398933349045,-0.168454888138,0.0111365734598,0.00600304942725,-0.0388516728357,-0.230905355239,3.89072084427,1.22355997562,0.322498649359,-0.312120586634,1.24294686317,-0.00588669627905
2017/07/09/10:23:29.991990,539466,1499567012,799175824,,0.784496885636,0.364008791932,0.162026268991,0.636128151929,0.76940313968,0.0455261017941,0.0358769707308,0.0269462119733,-0.163229871288,-0.0028792892303,0.000919459733312,-0.0009610006562,-0.212938614204,3.82054114342,1.24718213081,0.238064646721,-0.404663056135,1.21074151993,-0.0480194538832
2017/07/09/10:23:30.001895,539467,1499567012,809178330,,0.785433136912,0.362444566571,0.162467036155,0.637338922908,0.768345475644,0.0460104039096,0.0364330912337,0.0265821472073,-0.166639121124,0.00389650761401,-0.010732007704,-0.0106517181441,-0.222883437242,3.79434704781,1.26887452602,0.334533274174,-0.359915733337,1.25012087822,-0.0208847224712
2017/07/09/10:23:30.011855,539468,1499567012,819179985,,0.785447860325,0.36023046405,0.162379174334,0.638284446534,0.767576899249,0.0456771527913,0.0365002296587,0.0275491278712,-0.161100489172,-0.00350956735509,0.0190745087992,-0.00833070617928,-0.259219504202,3.72331643105,1.03804767132,0.329082757235,-0.221806749701,1.22959673405,0.00974930822849
2017/07/09/10:23:30.021954,539469,1499567012,829185819,,0.785290537639,0.35913364802,0.161888364924,0.639152952991,0.766879149908,0.0455094494547,0.0361768175576,0.029738160062,-0.173868144987,0.00957873971234,0.00459710258078,-0.0224313199715,-0.248422630804,3.64280748367,0.82746052742,0.390396893024,-0.105377912521,1.18688583374,0.0684089958668
2017/07/09/10:23:30.031942,539470,1499567012,839182982,,0.786540706743,0.357565764402,0.16287365445,0.639773468532,0.766260755501,0.0464257567969,0.0371350595557,0.0205506663362,-0.157312125493,0.00281888320751,-0.00172316848812,-0.0025089094269,-0.216443790259,4.091340065,1.06027162075,0.256466567516,-0.210554435849,1.36373496056,0.029650490731
2017/07/09/10:23:30.041982,539471,1499567012,849176381,,0.786366913909,0.355266972813,0.162693802694,0.640941040817,0.765328054707,0.0459111495217,0.0368743437169,0.018380269569,-0.185924637241,-0.00753926857665,-0.0141368949663,0.0153099890532,-0.242387130906,3.90957069397,0.81422239542,0.289041340351,-0.043903440237,1.29900169373,0.0878886654973
2017/07/09/10:23:30.051940,539472,1499567012,859179743,,0.786623055058,0.353511063496,0.163099106532,0.641785884366,0.764615939243,0.0457041797999,0.0372084941115,0.0158361138644,-0.172809394181,0.00535118031765,-0.00220895550045,0.0107598846526,-0.23145844287,4.27348566055,1.09889280796,0.211536020041,-0.252115219831,1.39489507675,0.010018851608
2017/07/09/10:23:30.061725,539473,1499567012,869176797,,0.786744694563,0.352425535665,0.162762873478,0.642507180297,0.764025431626,0.0458032876679,0.0367657712431,0.0382049977112,-0.17480464909,0.0159486866356,0.00143978757486,-0.0397701215175,-0.251611568931,4.04603242874,0.899576604366,0.346036612988,-0.10419844836,1.347828269,0.0694505870342
2017/07/09/10:23:30.071921,539474,1499567012,879176105,,0.7877403632,0.350528579342,0.16295417674,0.643832451882,0.762838202556,0.046545789726,0.0372979903441,0.0263223090412,-0.194684073649,0.00828620746406,-0.00562106942001,-0.0147581681106,-0.275741092526,4.12602424622,0.831776618958,0.245115727186,-0.173193663359,1.33912837505,0.0376289263368
2017/07/09/10:23:30.081989,539475,1499567012,889183409,,0.787444081409,0.348355968039,0.162867632507,0.644770266236,0.762089155552,0.0458958931361,0.037215450567,0.0394545841638,-0.193818975536,0.00643530625357,0.0102873301536,-0.0339206011002,-0.279009005275,4.59062051773,1.03257513046,0.279389858246,-0.281193941832,1.5408796072,-0.0056676492095
2017/07/09/10:23:30.092120,539476,1499567012,899205939,,0.788158863014,0.347531274556,0.163570132555,0.645357808952,0.761535164885,0.0466150193704,0.0374770734874,0.0281907199491,-0.194059728914,-0.00175412985696,0.00741907274649,-0.0058320301646,-0.270187332717,4.88145542145,1.18285024166,0.139436587691,-0.339549928904,1.66171145439,0.000357456505299
2017/07/09/10:23:30.101917,539477,1499567012,909175169,,0.788067878382,0.345338681155,0.162838154306,0.646429602724,0.760663944201,0.0461056250111,0.037328327811,0.0141842298134,-0.178255552713,0.00346121895685,0.00461491568754,0.0133263212692,-0.235408389023,4.31436157227,0.975869297981,0.14537845552,-0.260770857334,1.41048550606,0.0108421966434
2017/07/09/10:23:30.111749,539478,1499567012,919180609,,0.787367828367,0.343041285172,0.162411779274,0.647482631455,0.759843374622,0.045175275961,0.036925363205,0.024668682951,-0.203761295981,0.00649682135737,0.00353910856605,-0.00603954674648,-0.291101139547,4.35705947876,0.865680873394,0.0357229672372,-0.217128738761,1.44810533524,0.0058628320694
2017/07/09/10:23:30.121981,539479,1499567012,929182167,,0.788034513041,0.34126265179,0.162626945505,0.648770295532,0.758715574675,0.0455698409777,0.0370293123627,0.0191870960021,-0.195512899151,-0.00276992139195,0.0112819774805,0.00940440273614,-0.264381071189,3.48098921776,0.667780280113,-0.00440848432481,-0.112015008926,1.07318937778,0.00751391798258
2017/07/09/10:23:30.131859,539480,1499567012,939183972,,0.788330409107,0.339464258888,0.162478903716,0.649511484441,0.758074335225,0.0456453637902,0.0370760652762,0.0192945826979,-0.194587394329,-0.00729792972621,0.00146621399155,0.00614686617073,-0.271950525868,3.20479273796,0.569566369057,-0.0222731232643,-0.0459425374866,0.990854144096,0.040526740253
2017/07/09/10:23:30.142005,539481,1499567012,949183526,,0.789019496454,0.33706305569,0.162489564117,0.650371372262,0.757311533099,0.0457236441995,0.0374922437058,0.0273532500548,-0.22227197741,-0.000957196564641,-0.0054810725481,-0.00435058875684,-0.296558688625,3.09701657295,0.425677388906,0.0889228433371,0.0537005439401,0.965636730194,0.0726515874267
2017/07/09/10:23:30.152184,539482,1499567012,959185922,,0.788986793251,0.334504854823,0.162813883125,0.651754420774,0.756119717357,0.0456419304215,0.0376292733452,0.0250900630408,-0.224143641044,-0.00397212579402,0.00176693680492,0.00348062865684,-0.311585486702,3.30829572678,0.669494390488,-0.0212103370577,-0.135021314025,1.03197717667,0.0178925730288
2017/07/09/10:23:30.161844,539483,1499567012,969186671,,0.78935474364,0.333226083887,0.16280180283,0.652793032861,0.755220883683,0.0458779773192,0.0373882908832,0.0209911542875,-0.217228951208,-0.00813051160721,-0.0127008716859,0.00741707720743,-0.286920292767,2.83857393265,0.834112465382,0.0775249749422,-0.20949062705,0.858003377914,-0.0145610645413
2017/07/09/10:23:30.172039,539484,1499567012,979199145,,0.789922441184,0.330818197038,0.162809540327,0.65395854985,0.754182149965,0.0458385727692,0.0380305797897,0.0207544827925,-0.188745596642,-0.0047855026143,0.0147226213772,-0.000340689704676,-0.269877390948,3.13253116608,0.86449354887,0.147426888347,-0.238217160106,0.972656548023,-0.0287968665361
2017/07/09/10:23:30.181620,539485,1499567012,989176051,,0.789249398882,0.328523693734,0.1623248224,0.655011480038,0.753343330232,0.0452335646268,0.0372520126178,0.0175933640187,-0.211382948037,-0.00616693639374,0.0136586349827,0.00993276479714,-0.309480282774,3.05052471161,0.650670051575,0.272484511137,-0.106857769191,0.95837110281,0.00806582719088
2017/07/09/10:23:30.191973,539486,1499567012,999192024,,0.78991857898,0.326345946605,0.162856826234,0.656274217054,0.752184574495,0.0457054368113,0.0378619990004,0.0184123044408,-0.246999543888,0.00291829439442,-0.0104545825121,0.00805656125735,-0.350833331235,3.39571261406,0.800214111805,0.445443093777,-0.212813839316,1.09788036346,-0.0305946022272
2017/07/09/10:23:30.202003,539487,1499567013,9184356,,0.789806984138,0.323598325184,0.162609644885,0.657477338745,0.751191088303,0.044988513082,0.037570355093,0.0119472676855,-0.264526415261,-0.00895346432731,-0.0144129521929,0.0230783344135,-0.364368673906,3.00487828255,0.585171103477,0.571005284786,-0.0893881618977,0.960904836655,0.00704671442509
2017/07/09/10:23:30.211988,539488,1499567013,19191987,,0.790474881358,0.321493192877,0.162779784682,0.658708458208,0.75005166635,0.0455201184731,0.0381258928406,0.0279242069677,-0.237828372276,0.00437212826817,0.0133082592925,-0.0135252741846,-0.32923289175,2.71644234657,0.5186008811,0.342111110687,-0.0684161037207,0.823348522186,0.0197265595198
2017/07/09/10:23:30.221816,539489,1499567013,29184879,,0.790542641687,0.319398816085,0.16243118625,0.659718959053,0.749190927875,0.0451451017355,0.0380232618984,0.0151904484099,-0.232899476788,-0.00583374982336,-0.00461181196934,0.00843595618336,-0.301044515261,2.48253130913,0.615302205086,0.489010065794,-0.0772756487131,0.761732757092,0.0105927102268
2017/07/09/10:23:30.231922,539490,1499567013,39192208,,0.790201373242,0.317228810312,0.162588889251,0.660721482917,0.748338240763,0.0448029261698,0.0378113373201,0.012762601126,-0.235920734499,-0.0151771690855,0.00932322444436,0.0196286917941,-0.321219607566,2.00698065758,0.464118480682,0.337306857109,-0.0015465170145,0.589900135994,0.0542417429388
2017/07/09/10:23:30.242017,539491,1499567013,49193591,,0.790108459929,0.314986093276,0.162332588387,0.662550078306,0.74675035613,0.0447218718459,0.0372995111888,0.00634034307478,-0.249516772752,-0.0108463676743,-0.0106373955457,0.0274238234099,-0.339908085981,2.29687094688,0.549808084965,0.495393961668,-0.129239559174,0.691399633884,-0.0290706064552
2017/07/09/10:23:30.251911,539492,1499567013,59189482,,0.790722671004,0.312032434815,0.162150516937,0.663590033267,0.745793548174,0.0447814718887,0.0378796914767,0.0171162270933,-0.264541151956,-0.00369996915683,0.00109650765635,0.0110625903546,-0.388157532303,1.75071954727,-0.412391453981,0.549758732319,0.0178893581033,0.45268920064,-0.0421501584351
2017/07/09/10:23:30.261620,539493,1499567013,69184292,,0.790560355598,0.309524492332,0.161953001301,0.664833623466,0.744716982489,0.0443328759505,0.0377818105813,0.0130620032714,-0.264915574611,-0.00898171754491,-0.0167529763493,0.0106548134817,-0.346854253626,1.38669252396,-0.540543854237,0.61411511898,0.121550530195,0.310555517673,0.0246888026595
2017/07/09/10:23:30.271962,539494,1499567013,79191660,,0.790708705485,0.30633937134,0.161719015603,0.666224771632,0.743485566549,0.0440387297833,0.0378728963295,0.0140545462457,-0.272988526839,-0.0046105860772,-0.021362125374,0.0120237751542,-0.359393570826,1.71443772316,0.118157207966,0.461019814014,-0.268849462271,0.421010941267,-0.113439179957
2017/07/09/10:23:30.281949,539495,1499567013,89190703,,0.791269577588,0.304040813572,0.161668350942,0.667761497544,0.742073966077,0.044242752389,0.0382542825027,0.0161035821867,-0.257218523742,-0.00415925031911,0.00823546640219,0.00520934072246,-0.3474946692,1.4287058115,-0.0908943042159,0.648805975914,-0.147062331438,0.293137699366,-0.0662141665816
2017/07/09/10:23:30.291932,539496,1499567013,99192530,,0.791281067129,0.301171568361,0.162131207171,0.669127125363,0.740845484443,0.0442680854492,0.0381732222178,-0.00994810168705,-0.261146397421,-0.0281526614894,0.0199835850754,0.0631610591648,-0.370489575637,1.65227115154,0.0182130634785,0.760321199894,-0.21244969964,0.394877493382,-0.0971720814705
2017/07/09/10:23:30.301690,539497,1499567013,109187909,,0.791564749945,0.298833273677,0.161853790812,0.670369480748,0.739718362276,0.044490705418,0.0379747406166,0.0126050975289,-0.27614730334,-0.00741421554162,-0.00178099013322,0.0139543720865,-0.380024818626,1.20724546909,-0.223802298307,0.95729970932,-0.165194645524,0.269488841295,-0.0671948939562
2017/07/09/10:23:30.311789,539498,1499567013,119184540,,0.791508737095,0.295756452983,0.161904272408,0.671644684616,0.738576444464,0.0439175303953,0.0383341079671,0.0272498875702,-0.285551107138,0.00781194004076,-0.00449835577068,-0.0311308826779,-0.380700524204,0.640845477581,-0.279297918081,1.04045760632,-0.155907660723,0.0575527213514,-0.0854983329773
2017/07/09/10:23:30.321803,539499,1499567013,129185650,,0.791459014951,0.294209281723,0.161639362366,0.672604237598,0.737709774272,0.0441706495864,0.0379049102775,0.0253947531524,-0.283091898366,0.00747429123912,0.00396503365859,-0.0282767816685,-0.394772258399,0.787241220474,-0.157622233033,0.778293669224,-0.200658291578,0.130604669452,-0.1023035869
2017/07/09/10:23:30.332045,539500,1499567013,139211678,,0.792166142906,0.289987680061,0.161827586263,0.674740562964,0.735720045912,0.0440314818564,0.0387610028287,0.0086872358671,-0.282805281523,-0.00840545990364,0.002032528427,0.0160612342884,-0.391789206013,0.431416332722,-0.416594684124,0.810220122337,-0.0630425810814,-0.0493141300976,-0.045674379915
2017/07/09/10:23:30.342120,539501,1499567013,149185214,,0.791515734797,0.28835952027,0.16145691066,0.675559764877,0.735038150895,0.0435790711794,0.0379313242934,0.00373746598333,-0.289995272909,-0.0149366212413,-0.00163939998728,0.0289180388062,-0.40440750245,-0.178206801414,-0.143628939986,0.728419482708,-0.136744111776,-0.267191529274,-0.109603375196
2017/07/09/10:23:30.351966,539502,1499567013,159189572,,0.791890502986,0.28490816643,0.161694026718,0.677439272385,0.73327780403,0.0435598198135,0.0384998239647,0.00428635844057,-0.29592439809,-0.000332350884678,0.0129091744355,0.00939761718327,-0.418163262769,-0.205965802073,-0.473128437996,1.0332018137,0.00848728045821,-0.268091917038,-0.046984795481
2017/07/09/10:23:30.361740,539503,1499567013,169185070,,0.792042305378,0.2815710033,0.161911744251,0.679175377981,0.731659355965,0.0436923535537,0.038553482525,0.0141322322917,-0.310218360096,0.0105671090987,-0.0107983394388,-0.0143107541995,-0.409671047738,-0.583447515965,-0.539005219936,0.912340164185,-0.0652001202106,-0.395177721977,-0.105899035931
2017/07/09/10:23:30.371997,539504,1499567013,179189019,,0.792324170105,0.279680640042,0.162179624155,0.680217010472,0.730667073656,0.0439612877357,0.0387020841822,0.00520672954166,-0.311131441805,-0.00795251799323,-0.00757395626975,0.011646653091,-0.412964571862,-0.594681024551,-0.487242847681,1.30928528309,-0.0148622505367,-0.411319792271,-0.0586820393801
2017/07/09/10:23:30.382196,539505,1499567013,189189355,,0.792060371059,0.276029685917,0.161441050279,0.681907056292,0.729140438427,0.0431444658316,0.0386722471299,0.00258994918059,-0.292250923377,-0.0167846316035,0.00518400283623,0.0210076153264,-0.414447969167,-0.00869071669877,0.711964488029,1.10246300697,-0.815232992172,-0.208040043712,-0.297184348106
2017/07/09/10:23:30.391929,539506,1499567013,199183140,,0.792721642806,0.273499741212,0.162014451092,0.683047836375,0.728011453541,0.0436018606943,0.03929191367,0.00854298837935,-0.283311285475,0.00441063984701,0.00364395436739,-0.00568026140384,-0.397661820593,-0.137581437826,1.66095983982,1.51174247265,-1.17879378796,-0.285677164793,-0.342551380396
2017/07/09/10:23:30.402067,539507,1499567013,209191167,,0.792266226658,0.270307077641,0.161764875792,0.684565807718,0.726635520591,0.0429968975578,0.0390095106332,0.0131933331942,-0.307228875701,-0.000531593350279,-0.0228586035452,-0.00824039643652,-0.411211105512,-0.269169479609,1.92344927788,1.27252662182,-1.31063997746,-0.306500136852,-0.358589142561
2017/07/09/10:23:30.411890,539508,1499567013,219191560,,0.792293852021,0.267284814273,0.161701923068,0.686180070103,0.725115828076,0.0427419296788,0.0392055444338,-0.0192758569976,-0.294951303851,-0.0313476494798,-0.0133854254162,0.0664117124459,-0.389496964098,-0.829687058926,1.39176273346,1.57042253017,-0.98037302494,-0.555895805359,-0.323966503143
2017/07/09/10:23:30.421942,539509,1499567013,229183686,,0.792449071117,0.263813896005,0.161524002572,0.687604696997,0.723758108593,0.0424683985306,0.0396284751179,0.00257502371402,-0.327792594002,0.00190669352338,-0.0335333475558,-0.00105738959207,-0.451538115141,-1.93721330166,0.112529151142,1.52600157261,-0.285386919975,-0.936216652393,-0.124890424311
2017/07/09/10:23:30.432054,539510,1499567013,239191300,,0.792390273848,0.26064718876,0.161253811465,0.688928997725,0.722513125462,0.042077983058,0.0397625825424,0.00465668606974,-0.317588856534,-0.0010140249231,-0.0553692200302,-0.0124265504055,-0.375036695089,-2.47678756714,-0.683068156242,1.48545730114,0.136033609509,-1.10827720165,-0.0661561638117
2017/07/09/10:23:30.442007,539511,1499567013,249189978,,0.79242247437,0.258273775223,0.161407507928,0.690207502638,0.721275131894,0.042328200161,0.0398008905075,0.0130648611992,-0.313472326817,0.00800598167274,-0.0465770122215,-0.0346219580893,-0.39761792054,-2.51374721527,-0.771462261677,1.31204593182,0.316025048494,-1.0714315176,-0.00253020226955
2017/07/09/10:23:30.452243,539512,1499567013,259196009,,0.79211153184,0.255739901902,0.160981276542,0.691534692886,0.720042179691,0.0421057838938,0.0393208718466,-0.00635305758645,-0.303809307231,-0.0149811850951,-0.0171209369683,0.0136552304381,-0.413057684282,-2.21908736229,-0.313500463963,1.08523905277,0.170443564653,-0.988383889198,-0.0532112941146
2017/07/09/10:23:30.461771,539513,1499567013,269186708,,0.792325153045,0.252297582927,0.161182536107,0.693071778852,0.718535921248,0.0419652677859,0.0399569209853,-0.0101877553634,-0.285557138922,-0.0142553260329,0.0138107992843,0.0279889799097,-0.384602201144,-1.41285252571,-0.192145615816,0.875583648682,-0.110621698201,-0.70972263813,-0.120349645615
2017/07/09/10:23:30.471754,539514,1499567013,279189989,,0.792076194975,0.250313717166,0.161059305205,0.69417024982,0.717507058821,0.041871964395,0.0394718051897,0.00148758204915,-0.313854612534,-0.00406678871876,0.0123961697242,0.000787854113641,-0.434061690303,-1.68415212631,0.58833694458,0.784589409828,-0.374884277582,-0.814267635345,-0.162125080824
2017/07/09/10:23:30.482102,539515,1499567013,289184948,,0.792141677091,0.246445969382,0.160543219106,0.696212959921,0.715533643114,0.0416555346733,0.0395466362907,-0.0141599450679,-0.289572445884,-0.0276467547535,0.0231708228145,0.043615090118,-0.406888064775,-3.11338496208,0.139307841659,0.89995855093,-0.28732702136,-1.39717674255,-0.169867306948
2017/07/09/10:23:30.491854,539516,1499567013,299189934,,0.792284044786,0.244183143341,0.16079786981,0.697418263766,0.714348336403,0.0418451594118,0.0395373529348,0.00966620532717,-0.310519604509,-0.00261616974954,0.00711565542838,-0.0192602044445,-0.428587165747,-3.59824824333,-0.00574830174446,0.777264237404,-0.132702618837,-1.53388535976,-0.127615690231
2017/07/09/10:23:30.501927,539517,1499567013,309185742,,0.792377941797,0.241702835392,0.160726720229,0.698416403131,0.71335167265,0.0418103980233,0.0399475854361,0.00814464433742,-0.304503833669,0.00144159480673,-0.0134760154526,-0.0283337183297,-0.419778757413,-4.51991558075,-0.0760902166367,0.905508756638,0.0105271562934,-1.85955584049,-0.109426647425
2017/07/09/10:23:30.512054,539518,1499567013,319192152,,0.791838511793,0.238702288677,0.160189002573,0.699888809676,0.711951706197,0.041363407215,0.0396167979252,0.000230925165624,-0.291994321285,-0.00580969703115,-0.0152146456345,-0.0131725129082,-0.385443613655,-4.46099615097,-0.284319102764,0.532649040222,0.0710141658783,-1.76565814018,-0.0819488167763
2017/07/09/10:23:30.521755,539519,1499567013,329194961,,0.791795400507,0.235480674871,0.160297899168,0.701209939825,0.710651637067,0.0410549868266,0.0399169022023,-0.0112930229615,-0.286634596294,-0.0250758560626,-0.0158370566568,0.0152445616672,-0.356108219088,-3.77160453796,-0.52953517437,0.730310320854,0.0766795352101,-1.48021626472,-0.0978068783879
2017/07/09/10:23:30.531892,539520,1499567013,339191526,,0.791412754805,0.232840020441,0.159836959493,0.702583217009,0.709334775065,0.0406391877048,0.0396163663622,-0.0105382529392,-0.301547682589,-0.0107582583103,-0.00945413523368,0.0108551457073,-0.394262777724,-4.50034093857,0.217796340585,0.658885955811,-0.135601788759,-1.74548888206,-0.169349446893
2017/07/09/10:23:30.542062,539521,1499567013,349192426,,0.791793171745,0.230360477043,0.15999332812,0.703782221756,0.708101379653,0.040910444765,0.0401167793111,-0.016875000586,-0.296031159775,-0.024883416342,-0.00203897201843,0.0267044041788,-0.416232655923,-5.13626718521,0.0964243337512,0.725933372974,-0.0446927733719,-2.02028131485,-0.129764169455
2017/07/09/10:23:30.551953,539522,1499567013,359224019,,0.791932292133,0.228600679607,0.159484570577,0.704836162883,0.70704909511,0.0412187258758,0.0398569596668,-0.0271727190115,-0.282144285402,-0.0307689523463,-0.0125146425224,0.0569759691536,-0.374533716597,-5.02106285095,1.06841242313,1.00697076321,-0.372159183025,-1.97113442421,-0.197374030948
2017/07/09/10:23:30.561857,539523,1499567013,369191326,,0.791437825619,0.224475160006,0.159258696272,0.706307755139,0.705611707331,0.040397459182,0.0401188085553,-0.00442125070561,-0.284369162771,-0.0128721267003,0.0206214231253,-0.00298497737333,-0.396252372931,-5.36746883392,0.193931460381,0.907864630222,-0.185481503606,-2.06707334518,-0.152651369572
2017/07/09/10:23:30.572242,539524,1499567013,379188257,,0.791293634269,0.221132522464,0.158966718522,0.70853612884,0.703385575105,0.0403840724689,0.0399301083452,-0.0127340328479,-0.332043643802,-0.0223768867741,0.0104035760706,0.00344419155717,-0.461984422413,-6.19193315506,-0.41981613636,1.15139973164,0.0106751546264,-2.33269739151,-0.109934285283
2017/07/09/10:23:30.581717,539525,1499567013,389184507,,0.791511367154,0.218673985468,0.158876142679,0.709821068973,0.70206186717,0.0407785446474,0.0400036873834,-0.0360139977926,-0.300417952584,-0.0454407137607,-0.000889336101363,0.0630319647663,-0.404516146256,-5.27796888351,-0.499504864216,1.33649170399,0.13361735642,-2.03517913818,-0.0779165700078
2017/07/09/10:23:30.592234,539526,1499567013,399205631,,0.791084622519,0.215823155635,0.158453685586,0.710816748973,0.701084809844,0.0402514675587,0.0399932262445,-0.0263222574724,-0.288556647477,-0.0365652323241,0.0094774599404,0.0463676864778,-0.400392557792,-5.3302488327,-0.635358691216,1.20440709591,0.187946289778,-2.05245113373,-0.075554355979
2017/07/09/10:23:30.602174,539527,1499567013,409192279,,0.790517274487,0.213339267793,0.158085719871,0.712185119785,0.69973712169,0.0399171635498,0.0395845391549,-0.0155274635971,-0.275594829912,-0.0240209445183,0.00634830766434,0.0258659031263,-0.39070783329,-5.83625364304,-0.0395787060261,0.697184503078,0.00530061870813,-2.23339128494,-0.0925131440163
2017/07/09/10:23:30.612064,539528,1499567013,419184128,,0.790321492915,0.210864932358,0.157607100712,0.713307949028,0.698623959371,0.0395959306501,0.0393509278413,-0.0377203020524,-0.285354685862,-0.0492416216256,-0.00650604875318,0.0841571390187,-0.371513455758,-5.91194057465,0.237384691834,0.240624666214,-0.0354805029929,-2.33799672127,-0.0998543351889
2017/07/09/10:23:30.622099,539529,1499567013,429184759,,0.790300450543,0.208557072995,0.157254515076,0.714693231191,0.697208976683,0.0396579763837,0.0392488602599,-0.0309941502112,-0.248498892159,-0.0531473811124,-0.000251466875431,0.0787315428599,-0.33219337631,-6.33552026749,0.187120378017,0.354854106903,-0.00923130661249,-2.50660681725,-0.0793220326304
2017/07/09/10:23:30.632127,539530,1499567013,439193708,,0.789989852957,0.205302840247,0.15654812533,0.715964011202,0.695930041945,0.0392061903565,0.0392401072949,-0.0298374333109,-0.257796090096,-0.0561355481543,0.0212837826463,0.070175625734,-0.376132861794,-7.27326011658,-0.510980308056,0.42256835103,0.18915784359,-2.87064290047,-0.0385638177395
2017/07/09/10:23:30.641846,539531,1499567013,449184495,,0.789594058191,0.203497214721,0.156182434961,0.716776791896,0.695136104997,0.0387054295951,0.0389707050157,-0.0345823473384,-0.27424020711,-0.0666975433013,0.0155188863642,0.0816783697314,-0.379819069562,-7.63347959518,-0.175606161356,0.637127935886,0.28318810463,-3.01412248611,-0.00951431691647
2017/07/09/10:23:30.651884,539532,1499567013,459184121,,0.788856735598,0.201432036039,0.15496314806,0.717860083208,0.6940865091,0.0382619647134,0.0381685849743,-0.0322779645249,-0.265502362618,-0.0596238102058,0.0100678044651,0.0803437803,-0.374861338266,-8.50038814545,-0.0588594377041,0.380163818598,0.242867484689,-3.31334447861,-0.0132876262069
2017/07/09/10:23:30.662021,539533,1499567013,469211727,,0.78906269223,0.198756392929,0.154688515204,0.719351352735,0.692542798217,0.0383712665838,0.0380230174623,-0.0400700281342,-0.22917956781,-0.0720787309169,0.0339875343735,0.104850077429,-0.32554593942,-8.01397895813,-0.0933484882116,0.613317906857,0.138398736715,-3.18167233467,-0.0555190779269
2017/07/09/10:23:30.672224,539534,1499567013,479193999,,0.788242797277,0.196685307368,0.153662186729,0.720534060646,0.691383378326,0.037788616709,0.0373056573514,-0.0496140311667,-0.237837960143,-0.0771822603799,0.0311128209093,0.117661219823,-0.341058738036,-7.90438890457,-0.180771782994,0.349890828133,0.19745464623,-3.10716056824,-0.0253396630287
2017/07/09/10:23:30.681934,539535,1499567013,489196440,,0.787583028133,0.194286005772,0.152824281735,0.722026097692,0.689878327572,0.0374375124419,0.0366693340588,-0.0497134685549,-0.241271944349,-0.0784380425009,0.0343904897655,0.11780361377,-0.332956756626,-8.56556987762,-0.250804960728,-0.209279850125,0.18596278131,-3.35449409485,-0.0123314410448
2017/07/09/10:23:30.691960,539536,1499567013,499211018,,0.786955698698,0.191949110203,0.151574548438,0.72288516967,0.689047525621,0.0365922547961,0.0362152701943,-0.0515916553978,-0.238355613127,-0.0997115498227,0.0463844612614,0.141683186187,-0.346475487012,-8.63544940948,0.12080296129,-0.219868183136,0.0551542192698,-3.39927506447,-0.0532507933676
2017/07/09/10:23:30.701807,539537,1499567013,509203497,,0.786734700307,0.189819413021,0.150768559551,0.723594970651,0.688327969463,0.0364370227119,0.0358785211441,-0.0600303758209,-0.220378136421,-0.119747342475,0.0458322503884,0.172696398635,-0.310375471493,-8.74261856079,0.162007808685,-0.293823957443,0.0889283940196,-3.43657469749,-0.0380993410945
2017/07/09/10:23:30.711878,539538,1499567013,519200905,,0.786584668302,0.188101887536,0.14965848494,0.724722741112,0.687176053959,0.0362609531276,0.0353717777127,-0.0291870270088,-0.230689312228,-0.0881341060314,-0.00905376112359,0.0945550960995,-0.279827355885,-9.50130271912,0.668272435665,-0.191508993506,-0.0431568920612,-3.71029949188,-0.0842310339212
2017/07/09/10:23:30.722173,539539,1499567013,529202053,,0.786173654584,0.185389501716,0.148729284433,0.725698130395,0.686196092195,0.0354026859429,0.035267498145,-0.042577398718,-0.23462786191,-0.10696526682,0.0224647963789,0.131834729699,-0.33538457634,-9.54269504547,0.241567671299,0.0891264379025,0.13006362319,-3.73220825195,-0.0413669198751
2017/07/09/10:23:30.731939,539540,1499567013,539210283,,0.785944194865,0.183661789528,0.14781045113,0.726661557924,0.685213809473,0.0350688899077,0.034859553986,-0.0453594441479,-0.214799892761,-0.112705982201,0.00593356872198,0.149046818443,-0.270228553459,-10.2383565903,-0.11247266829,0.444653511047,0.237048745155,-4.01683282852,-0.0032347291708
2017/07/09/10:23:30.741896,539541,1499567013,549197755,,0.784681202418,0.181179045038,0.145669135186,0.727174998004,0.684798318427,0.0334363040314,0.0339086851592,-0.0568016877506,-0.243146497748,-0.120943016107,-0.0196201387967,0.180029280261,-0.294224257497,-10.427863121,0.279037386179,0.135283127427,0.0250795260072,-4.07401657104,-0.124752208591
2017/07/09/10:23:30.751742,539542,1499567013,559203420,,0.784534773195,0.179710405485,0.144689111413,0.728278650169,0.683659586402,0.0334881011671,0.0331409823197,-0.0584918402347,-0.228596175325,-0.137870325295,-0.022271773538,0.189879195304,-0.25919841373,-10.6918945312,0.652956664562,0.00959736853838,0.0548963323236,-4.27003145218,-0.052291020751
2017/07/09/10:23:30.761688,539543,1499567013,569205057,,0.78379851399,0.176135561091,0.143447235193,0.729562902191,0.682347931654,0.0320553769511,0.0333425362542,-0.0467585259114,-0.21146372494,-0.141069563033,-0.00386605602867,0.177247875025,-0.255310570592,-10.0983867645,0.182559505105,-0.09143653512,-0.0111752450466,-3.94288873672,-0.0526643916965
2017/07/09/10:23:30.772065,539544,1499567013,579205586,,0.783462365281,0.174328083801,0.141943389549,0.730391213722,0.681520134541,0.031464627993,0.0326949280033,-0.0525019654016,-0.218675104112,-0.147334663655,-0.0276243480542,0.186040489515,-0.253969253287,-9.35997962952,0.202506437898,-0.310000687838,-0.068618170917,-3.70287537575,-0.0610164701939
2017/07/09/10:23:30.782228,539545,1499567013,589210304,,0.783868800773,0.172394788417,0.140891364886,0.731189587617,0.680669965834,0.0311757839559,0.0328367944225,-0.0512709916803,-0.234219217702,-0.150866873243,-0.0536905526038,0.197755956043,-0.241162880019,-8.53691959381,0.14733915031,-0.623873710632,-0.0293479375541,-3.48978328705,-0.0506265684962
2017/07/09/10:23:30.791899,539546,1499567013,599205225,,0.782191775913,0.170496058766,0.138767708833,0.731570360222,0.680399491655,0.0294608172129,0.0315182494873,-0.0333533269431,-0.239681789337,-0.139550965252,-0.0822599124405,0.153776589829,-0.229913017476,-8.3505449295,0.360330581665,-0.79708480835,0.0742146968842,-3.33956098557,-0.0139940902591
2017/07/09/10:23:30.802174,539547,1499567013,609200543,,0.782715231181,0.167446037974,0.137936268775,0.732497290833,0.679383132268,0.0290340552261,0.0323001880703,-0.039865799496,-0.241972124347,-0.150380689469,-0.0764623813494,0.1750015559,-0.238181373941,-8.78952217102,-0.0130619853735,-0.76690787077,0.0845025926828,-3.56471586227,-0.0439731813967
2017/07/09/10:23:30.811934,539548,1499567013,619203063,,0.78205460401,0.165559478651,0.135930868327,0.732949898302,0.678981798029,0.0277665825067,0.0315781795018,-0.0355638443951,-0.22750347228,-0.161744212812,-0.0912940319684,0.178850068917,-0.204539128961,-8.44688415527,0.210723459721,-0.79023462534,0.0501356124878,-3.40858006477,-0.0382463112473
2017/07/09/10:23:30.822031,539549,1499567013,629199124,,0.781824893926,0.163480873933,0.134437024859,0.733806326114,0.678095933842,0.0270862926755,0.0313131443791,-0.0387147900512,-0.224673908911,-0.167205732846,-0.0930093316691,0.191858309062,-0.196831291594,-8.14468860626,0.191960185766,-0.20098978281,0.0194590464234,-3.31220126152,-0.033860757947
2017/07/09/10:23:30.831907,539550,1499567013,639210428,,0.781414347321,0.161944326664,0.132612356174,0.73426285927,0.677670134876,0.0259543333337,0.030783345758,-0.0390745163922,-0.198656666744,-0.162046914465,-0.0695756294697,0.196587423882,-0.173778302811,-7.97341585159,0.350706934929,-0.359507381916,-0.0554724521935,-3.30234932899,-0.0476997494698
2017/07/09/10:23:30.842442,539551,1499567013,649199096,,0.781048552578,0.159721810992,0.131163331271,0.735047846308,0.676869139033,0.0247893653787,0.0306320033153,-0.0412540855369,-0.209031693685,-0.165422554876,-0.0890073243167,0.203364996286,-0.173214011847,-7.83856344223,0.193169951439,-0.526724457741,-0.0453603193164,-3.24231743813,-0.0138813070953
2017/07/09/10:23:30.851837,539552,1499567013,659201825,,0.780999792969,0.156618726429,0.129716215259,0.735560128623,0.676333275226,0.0238787303334,0.0308934336073,-0.0334481901045,-0.219762698767,-0.166274716605,-0.114671433164,0.18695237114,-0.15423836198,-7.85396575928,-0.266160935163,-0.603877961636,-0.00370808690786,-3.31111693382,-0.00606434419751
2017/07/09/10:23:30.861780,539553,1499567013,669197064,,0.780560841093,0.155551254372,0.127753553061,0.736025492095,0.675891812937,0.0228969325286,0.0302069970656,-0.028484207305,-0.232749305143,-0.171369803579,-0.135054605858,0.19169855411,-0.172436431606,-6.96799135208,0.791344940662,-1.10132861137,-0.157252430916,-2.97034215927,-0.0213004015386
2017/07/09/10:23:30.872115,539554,1499567013,679204608,,0.780548968311,0.153659553608,0.126327324478,0.736268038508,0.675653843749,0.021873471753,0.0303777901154,-0.0330108362842,-0.219539718116,-0.177946621353,-0.121075204268,0.196283572952,-0.165419682451,-6.43132972717,0.504644453526,-1.12084853649,-0.233141437173,-2.84482049942,-0.0414588302374
2017/07/09/10:23:30.881876,539555,1499567013,689197582,,0.780030691211,0.151779466937,0.124409675866,0.736601555868,0.67536611524,0.0202803605552,0.0297903550424,-0.0329267601332,-0.227155651179,-0.16983794439,-0.140033430814,0.196396482656,-0.148443783558,-5.96174049377,0.798150777817,-1.16386961937,-0.203740850091,-2.70232963562,-0.0437380932271
2017/07/09/10:23:30.891981,539556,1499567013,699213835,,0.780304137305,0.149387875436,0.123244016196,0.73730004941,0.674592906434,0.0196406245539,0.0304514958032,-0.0207117082359,-0.211246699691,-0.167596559579,-0.119856065687,0.181719562539,-0.154366538409,-6.06992435455,0.478425621986,-0.77529668808,-0.136271044612,-2.78304505348,-0.012192890048
2017/07/09/10:23:30.901995,539557,1499567013,709210437,,0.779982792419,0.147146025657,0.121413339672,0.737942952445,0.673939591988,0.0186685200271,0.029951822112,-0.0170384925498,-0.231757898894,-0.165002730364,-0.148634351713,0.166164113152,-0.166886386303,-7.00246763229,0.307389259338,-0.791375398636,-0.118094101548,-3.16896915436,-0.00213232263923
2017/07/09/10:23:30.911769,539558,1499567013,719206746,,0.779592136629,0.145815018982,0.11930936517,0.737921192556,0.674015879958,0.0173630543698,0.0295538742666,-0.0179417684374,-0.209086035218,-0.165743882181,-0.135146239052,0.168503905813,-0.129293555617,-7.08829593658,0.797780036926,-1.05419433117,-0.218354418874,-3.17281484604,-0.0399460196495
2017/07/09/10:23:30.921919,539559,1499567013,729199389,,0.780017716261,0.143294517285,0.118334796055,0.738739181896,0.673106623242,0.0168349711018,0.0301409791934,-0.0206621447633,-0.203737158376,-0.171644192828,-0.127028945551,0.174597625945,-0.135363959107,-6.04171562195,0.540039181709,-0.759078621864,-0.209575459361,-2.84270811081,-0.0267166234553
2017/07/09/10:23:30.932028,539560,1499567013,739201681,,0.779855137193,0.141262956728,0.116783727463,0.739056977241,0.672788074545,0.0158213857091,0.0300112461414,-0.00837583698399,-0.229166031742,-0.156590117452,-0.158452552601,0.145844754976,-0.139290899706,-5.25254631042,0.5384567976,-1.12730205059,-0.17450748384,-2.57463407516,-0.00707902759314
2017/07/09/10:23:30.942002,539561,1499567013,749203394,,0.779383768983,0.138869498166,0.115256019047,0.7397532521,0.672056289689,0.0142970246345,0.0300177378305,-0.0112072674449,-0.221439248739,-0.161937054336,-0.153412014995,0.155818743173,-0.144590885631,-4.80953931808,0.578692317009,-1.59080564976,-0.163406103849,-2.42084670067,0.00273986533284
2017/07/09/10:23:30.951873,539562,1499567013,759204074,,0.779822652762,0.136765267614,0.113762006951,0.739766182849,0.672036639534,0.0134843701903,0.0305110078225,-0.00858241486977,-0.217319912028,-0.162699316884,-0.164733313709,0.156077732574,-0.119115181797,-4.05262613297,0.463087022305,-1.83123171329,-0.214662402868,-2.15706777573,-0.0267712287605
2017/07/09/10:23:30.961657,539563,1499567013,769198567,,0.779394355718,0.135235105743,0.112129133795,0.740164086122,0.67163523031,0.0123353567291,0.0301841348465,-0.0128681535316,-0.225893208495,-0.170371023848,-0.165375095779,0.159798191325,-0.132289609256,-3.88297319412,0.856914401054,-1.75422394276,-0.293227881193,-2.06582117081,-0.029079400003
2017/07/09/10:23:30.972040,539564,1499567013,779205575,,0.778943487586,0.132680568986,0.110527716453,0.740707666303,0.671067318667,0.0110592541923,0.029974986127,-0.00923254552183,-0.219419816278,-0.162570595289,-0.129977904055,0.146478700311,-0.149070649448,-3.96387553215,0.470041573048,-1.36420273781,-0.295645564795,-2.06018686295,-0.0570206232369
2017/07/09/10:23:30.981798,539565,1499567013,789197099,,0.778631281541,0.130612873235,0.108759988628,0.741479009339,0.670239835759,0.00997460840612,0.02979846404,-0.00976839141036,-0.202448378066,-0.164674061791,-0.124029721256,0.151638711177,-0.13939545196,-3.36806440353,0.355591118336,-1.23555541039,-0.231860756874,-1.84221947193,-0.0299219116569
2017/07/09/10:23:30.991836,539566,1499567013,799197670,,0.77928461712,0.129573173072,0.107489934873,0.741448967596,0.670262553135,0.00951658276854,0.0301823287578,0.00110548325069,-0.213185823831,-0.157746303613,-0.135045931074,0.120735217579,-0.158677125006,-3.49472618103,1.15468621254,-0.896159172058,-0.374668002129,-1.90808403492,-0.0442964099348
2017/07/09/10:23:31.001991,539567,1499567013,809203619,,0.779372874194,0.126220924985,0.106375911362,0.742644893694,0.668935797516,0.00908527981373,0.0303466367498,0.00544093537971,-0.17652723,-0.154484391873,-0.0884811728583,0.118938505198,-0.12170522697,-3.03028559685,-0.037423402071,-0.885773539543,-0.153046533465,-1.72318935394,-0.0145815983415
2017/07/09/10:23:31.011947,539568,1499567013,819219481,,0.779390628588,0.125227806584,0.104641941713,0.742542872013,0.669064671994,0.00825465017156,0.0302391908542,0.00933482848668,-0.185904898255,-0.142128051523,-0.0779147279282,0.10724620261,-0.147469431048,-2.75567984581,0.686750531197,-1.54641294479,-0.285931408405,-1.66009676456,-0.0264637619257
2017/07/09/10:23:31.022269,539569,1499567013,829211056,,0.779341537859,0.124161769684,0.102949235891,0.742640195682,0.668989622242,0.00765427787013,0.0296620484837,0.0130143718107,-0.195826214817,-0.146650968188,-0.0880975870303,0.0938929469402,-0.152391943997,-2.16943764687,0.653084397316,-1.80321884155,-0.289678990841,-1.42290961742,-0.0337778665125
2017/07/09/10:23:31.031818,539570,1499567013,839204614,,0.779487539509,0.122488248308,0.101836486054,0.743332848154,0.668216416346,0.0069841562146,0.029905172504,0.0034786613854,-0.199259285837,-0.155384553396,-0.0869567923647,0.114511793912,-0.158412363585,-1.9609786272,1.0624884367,-1.9021846056,-0.353176891804,-1.32159686089,-0.0165678262711
2017/07/09/10:23:31.041901,539571,1499567013,849200195,,0.779210510041,0.120185787743,0.100146577352,0.744152719406,0.667330271149,0.00625091348966,0.0294612540251,0.00462543478357,-0.180809809056,-0.152967119507,-0.0678581568381,0.112028705097,-0.167925693444,-1.81490731239,0.0654744803905,-1.98362624645,-0.217353105545,-1.18051075935,-0.0412245467305
2017/07/09/10:23:31.051923,539572,1499567013,859203788,,0.780042132789,0.118267057327,0.0991693447959,0.744676177179,0.666716865598,0.00612826254602,0.0301406149124,0.00638764634422,-0.179326331927,-0.148503516002,-0.0587011941396,0.10016615954,-0.17944955756,-2.19854998589,-0.0296450480819,-1.27176845074,-0.211966991425,-1.38217794895,-0.0230235159397
2017/07/09/10:23:31.061760,539573,1499567013,869200895,,0.780028365807,0.116443662539,0.0979751239183,0.745377145866,0.665947469049,0.00544674226386,0.0299534953997,0.00953220053801,-0.185614149777,-0.139241622635,-0.0524216285447,0.0878176596731,-0.187908787978,-2.19257426262,0.465872943401,-0.913210272789,-0.356545090675,-1.39538574219,-0.0482281446457
2017/07/09/10:23:31.072124,539574,1499567013,879200930,,0.779310092554,0.114979625339,0.095582237701,0.745661558642,0.665683345595,0.00442205359689,0.0288958267376,0.0175788575559,-0.196611059857,-0.126777071189,-0.0620288135918,0.0677933793814,-0.189884175735,-2.33408665657,1.12035119534,-1.19660723209,-0.58356577158,-1.40687537193,-0.088821195066
2017/07/09/10:23:31.081699,539575,1499567013,889197648,,0.779738550752,0.113570539279,0.0950037366146,0.746604029172,0.664625538096,0.00428846616922,0.0289296870586,0.00130554943613,-0.171798546027,-0.138589965473,-0.0398873508225,0.107692305214,-0.158193611525,-1.0923525095,1.35632836819,-0.918458759785,-0.60162293911,-1.01435542107,-0.0709309503436
2017/07/09/10:23:31.091859,539576,1499567013,899198043,,0.779896704243,0.111859715684,0.0941155611446,0.747000182362,0.664175686362,0.00391423965203,0.0290871780036,0.0081114235897,-0.163854814616,-0.13931070084,-0.0155276640794,0.0905382355696,-0.188376867972,-1.02934670448,0.982030689716,-0.798550188541,-0.474717140198,-0.965686738491,-0.114302739501
2017/07/09/10:23:31.101969,539577,1499567013,909203749,,0.779832850886,0.110526453842,0.0923967859345,0.747442309665,0.663710146766,0.00369078941134,0.0283762731087,-0.00176981657734,-0.165874540968,-0.136162394324,-0.0256908104533,0.105312583639,-0.17006571708,-0.599993824959,0.692378878593,-1.73868095875,-0.433190107346,-0.729514718056,-0.102119460702
2017/07/09/10:23:31.111658,539578,1499567013,919198372,,0.779548319941,0.109300465265,0.0907304277177,0.748127018622,0.662965713856,0.00330896719386,0.0277754747129,0.00610827973882,-0.160138080017,-0.12903164269,0.00223593986851,0.0807707717728,-0.193612570824,-1.2279292345,1.19714868069,-1.77263092995,-0.522696137428,-0.982711315155,-0.113300092518
2017/07/09/10:23:31.122342,539579,1499567013,929203606,,0.779985516495,0.107573880892,0.0900684008543,0.749137823006,0.66182542678,0.00331418172161,0.0277244081696,-0.0093119473287,-0.169839504243,-0.145538043596,0.0191176622557,0.107902321214,-0.233850048245,-1.25629520416,0.697631061077,-1.08233082294,-0.451523095369,-1.03538131714,-0.105556368828
2017/07/09/10:23:31.132027,539580,1499567013,939197050,,0.779602794681,0.10529905304,0.0885823872738,0.749755927464,0.661138861271,0.0026377448134,0.0274681206539,-0.00765891039386,-0.161161579431,-0.134922529386,0.0250098367129,0.0905554307462,-0.230670833723,-1.30521225929,0.592693388462,-0.913621068001,-0.503635704517,-0.986200630665,-0.133103847504
2017/07/09/10:23:31.141913,539581,1499567013,949212748,,0.780193192089,0.105094066486,0.0872081003131,0.750039292399,0.660823617678,0.00327211405759,0.027248843035,0.00676874459313,-0.157952762264,-0.124792852149,0.0391670234421,0.051322181185,-0.220092474874,-1.03176367283,1.17206084728,-0.829659938812,-0.612263977528,-0.932024717331,-0.139711454511
2017/07/09/10:23:31.151781,539582,1499567013,959197023,,0.779983836942,0.103580761154,0.0863784590095,0.750827451744,0.659959057948,0.0028512756072,0.0265339361297,0.0229409532946,-0.143488286652,-0.106823789293,0.0607985171513,0.00980528915138,-0.221464176639,-0.964127421379,0.984744429588,-1.02086985111,-0.574726581573,-0.834086000919,-0.135587871075
2017/07/09/10:23:31.161654,539583,1499567013,969197689,,0.780399358319,0.102185020027,0.0852255192833,0.751522508398,0.659170882458,0.00330243435454,0.0263962311212,0.00109911638311,-0.137268555839,-0.120002565882,0.0703759174117,0.0617486799383,-0.225271164911,-0.797956883907,0.803230702877,-1.13705146313,-0.46953099966,-0.789450645447,-0.143000841141
2017/07/09/10:23:31.171966,539584,1499567013,979203184,,0.780139875086,0.100106577412,0.0842551880861,0.752872013647,0.657651573146,0.00328101202176,0.0258335898636,0.0149421935821,-0.117957634213,-0.109048879429,0.0804082800539,0.0324975903227,-0.20857362432,-0.808466017246,0.00393941998482,-1.59320533276,-0.331803500652,-0.721208691597,-0.144980803132
2017/07/09/10:23:31.182001,539585,1499567013,989204846,,0.779866612502,0.0996369529831,0.083049916138,0.753270079305,0.657226912227,0.0030392915372,0.0250546637542,0.00199638465503,-0.123739563978,-0.115962424735,0.0905991487078,0.0529190047854,-0.223731190488,-0.430651396513,0.75526702404,-1.6385024786,-0.39595836401,-0.600115835667,-0.139972314239
2017/07/09/10:23:31.191985,539586,1499567013,999204901,,0.780078476796,0.0984474121988,0.0820471281485,0.754174122209,0.65620497129,0.00332915159876,0.0246037760158,0.00347796818404,-0.13817663018,-0.114793626638,0.0993103799894,0.0360734306818,-0.251536564161,-0.533332467079,0.497854977846,-1.18942666054,-0.378014057875,-0.632100462914,-0.177120253444
2017/07/09/10:23:31.201916,539587,1499567014,9205899,,0.779732669912,0.0969885939802,0.0807406498016,0.754341367419,0.656031131742,0.00272704802992,0.0241830270047,-0.0025175464464,-0.127866948633,-0.106932049919,0.103211429857,0.0488877648898,-0.227793037428,-0.870313405991,1.11052441597,-1.26684355736,-0.553668141365,-0.726810872555,-0.198496684432
2017/07/09/10:23:31.211768,539588,1499567014,19203576,,0.780150623144,0.0950747977654,0.0799542924182,0.755741126456,0.654418058704,0.00336983616883,0.0241039090073,-0.0126211776672,-0.14317448298,-0.114194618548,0.0771352362178,0.069150127409,-0.231788154935,-0.432459980249,0.66072010994,-0.985424101353,-0.661466896534,-0.621554434299,-0.243969321251
2017/07/09/10:23:31.222293,539589,1499567014,29206594,,0.780065931145,0.0944193271359,0.0789959628841,0.75630166257,0.653791476675,0.00346989043063,0.0235044693916,-0.00123091752122,-0.146678267561,-0.103971875399,0.0671000970147,0.0339831194556,-0.253025717881,-0.720324993134,1.47041225433,-1.22760307789,-0.757472157478,-0.657288610935,-0.245535999537
2017/07/09/10:23:31.231930,539590,1499567014,39203291,,0.779545222199,0.0927765910496,0.077509447873,0.756860818095,0.653168653869,0.00301300304422,0.0228764824302,-0.00450232863695,-0.151555720051,-0.10368228566,0.0670556379235,0.0391176986831,-0.248033676476,-0.5891020298,1.03228008747,-1.38501918316,-0.647591173649,-0.600230813026,-0.273005008698
2017/07/09/10:23:31.241868,539591,1499567014,49200144,,0.779521913186,0.0916494568012,0.0766819868758,0.75799667178,0.651868698278,0.00335844774924,0.0222927477965,-0.00910768956929,-0.139484545746,-0.107524107514,0.0816288897078,0.0516620352688,-0.225703828545,-0.0532338991761,1.09206318855,-1.35526192188,-0.599858403206,-0.360782235861,-0.246507525444
2017/07/09/10:23:31.251611,539592,1499567014,59199362,,0.779515831892,0.0902781298182,0.075617024005,0.758538706523,0.651249554768,0.00349188746924,0.0219284026569,-0.0222334846094,-0.130613423331,-0.119204298261,0.079392977294,0.0786010031376,-0.215869928685,0.730657577515,0.484103262424,-1.29177200794,-0.552711904049,-0.084792688489,-0.293773323298
2017/07/09/10:23:31.261986,539593,1499567014,69204626,,0.780152964567,0.0886408087514,0.0753658975681,0.759335330973,0.650302340587,0.00390977987135,0.022392735091,-0.0122558328591,-0.151743825922,-0.106073322653,0.073131365027,0.0427435692136,-0.258892926862,0.297556817532,0.835566163063,-0.983677566051,-0.567931890488,-0.26772993803,-0.266713917255
2017/07/09/10:23:31.272386,539594,1499567014,79205061,,0.779438955159,0.0876233853359,0.0738856211279,0.760084266669,0.649463611913,0.00368869934909,0.0213381784801,-0.00273506374385,-0.132354265203,-0.0974205073034,0.0924032472917,0.0249190430678,-0.252472965549,0.494366586208,0.881210803986,-0.99357265234,-0.574953556061,-0.117326438427,-0.275058925152
2017/07/09/10:23:31.281921,539595,1499567014,89198137,,0.778992220296,0.0860383090881,0.072563829675,0.760794325506,0.648652080497,0.0032243527378,0.0207864449682,-0.00547046746299,-0.123137634146,-0.0995561521325,0.0929773798741,0.0329591229216,-0.222590088301,0.377047479153,0.380870103836,-1.38104856014,-0.415814995766,-0.149557545781,-0.294730603695
2017/07/09/10:23:31.291813,539596,1499567014,99201140,,0.778818644249,0.0849314770595,0.0720131837369,0.761437178547,0.647909836356,0.00321555284445,0.0203942957522,-0.0226993359929,-0.13452249814,-0.108746058458,0.0872829964061,0.0737811826895,-0.230441421153,0.551966249943,0.958305239677,-1.13729918003,-0.655252218246,-0.0746979117393,-0.315372645855
2017/07/09/10:23:31.301777,539597,1499567014,109203931,,0.778644476154,0.0838140407904,0.0708550546054,0.761935222915,0.647346257911,0.00324294414333,0.019672868688,-0.0133325954671,-0.144102834813,-0.0983499611017,0.0645720963211,0.0479042212106,-0.227597615987,1.14568114281,0.84458220005,-1.38448369503,-0.699102640152,0.15242421627,-0.363205969334
2017/07/09/10:23:31.311845,539598,1499567014,119204821,,0.779049593352,0.081901297527,0.0702967612938,0.762789192848,0.64632561318,0.00368812333989,0.0200560905302,-0.0108898844106,-0.142298656276,-0.0960336079364,0.0730569291678,0.0404155183109,-0.223994125502,1.21704185009,0.722177743912,-1.17503881454,-0.665923893452,0.152082800865,-0.347182095051
2017/07/09/10:23:31.322309,539599,1499567014,129201362,,0.778512093023,0.0809638985647,0.0689443172485,0.763237528308,0.645827362146,0.00370485894794,0.0190201920522,-0.0115950491365,-0.147735178455,-0.0913042838984,0.0524456013468,0.0388382138766,-0.186991064632,0.25483700633,0.588449656963,-0.882328629494,-0.661096274853,-0.16686911881,-0.340705633163
2017/07/09/10:23:31.331968,539600,1499567014,139201968,,0.778445856377,0.0800081871498,0.0678660935635,0.763611796314,0.645396300833,0.00358794553203,0.0186484864871,-0.000920386859196,-0.129301611615,-0.0887822052206,0.0974212237104,0.0124542923169,-0.176281084499,0.244109407067,0.834225952625,-0.889822244644,-0.599893271923,-0.197726383805,-0.290310680866
2017/07/09/10:23:31.342288,539601,1499567014,149199037,,0.777979878644,0.0779883367346,0.0669020728298,0.764413531206,0.644462794546,0.0036670014892,0.0180613635823,-0.0206169363886,-0.140499947303,-0.0974871909213,0.0860684734622,0.0527075235252,-0.179340841997,0.291753202677,0.686851561069,-1.02623903751,-0.656548500061,-0.133429989219,-0.287799179554
2017/07/09/10:23:31.351762,539602,1499567014,159201738,,0.778401884426,0.0775414067181,0.0666085141962,0.764125293505,0.644803194701,0.00403526142075,0.0180303243249,-0.0317857181956,-0.14018355632,-0.10632723558,0.0696094495891,0.0802297835215,-0.137377488031,0.456499755383,1.04545748234,-0.455023705959,-0.694356501102,-0.121682174504,-0.299450844526
2017/07/09/10:23:31.361863,539603,1499567014,169204712,,0.777830264791,0.0753950947693,0.0654834544814,0.765000230998,0.643782238196,0.00376593932718,0.0174612157843,-0.0209450360342,-0.140149315101,-0.100866684245,0.0745655863405,0.0543527133366,-0.103913588068,0.719374775887,0.311824381351,-1.23419499397,-0.57762992382,0.0417092479765,-0.284061580896
2017/07/09/10:23:31.372382,539604,1499567014,179216241,,0.777507092568,0.0740881838098,0.0641491844405,0.765421424435,0.643299655952,0.0036874013739,0.0167928180702,-0.0317392312741,-0.126348485084,-0.121167808627,0.0723457052839,0.0841464831891,-0.0522952673181,0.854527413845,0.374581992626,-1.3929772377,-0.563439011574,0.113431364298,-0.293337523937
2017/07/09/10:23:31.381886,539605,1499567014,189198099,,0.777543531616,0.0733213255055,0.0629381705841,0.764815572892,0.644028363798,0.00382975950081,0.0164298212923,-0.0289223718256,-0.144048091085,-0.1113532353,0.0806589477202,0.0696161170297,-0.0742501462754,1.25503647327,0.771590173244,-1.14099764824,-0.560823321342,0.14538128674,-0.223101958632
2017/07/09/10:23:31.392167,539606,1499567014,199197322,,0.777170965249,0.0721061078273,0.0620082700257,0.764831753561,0.644023482495,0.00365886917756,0.0158982834374,-0.0188456052111,-0.12602794431,-0.100008759911,0.0718893714813,0.0537460951215,0.0135526196318,0.777594029903,0.907262921333,-1.05481946468,-0.713285923004,0.0900378972292,-0.258137524128
2017/07/09/10:23:31.401726,539607,1499567014,209220571,,0.776665154591,0.0707519869497,0.0606592061027,0.764983697592,0.643861345284,0.00368647421362,0.0151301148586,-0.0199501924286,-0.140979832801,-0.0983491539616,0.0583309628749,0.0443902723844,0.00748171838236,0.407192587852,0.634945034981,-0.97241550684,-0.551340222359,-0.0444792285562,-0.190454795957
2017/07/09/10:23:31.411659,539608,1499567014,219204300,,0.776573963591,0.0694017531349,0.0595339436693,0.765110839218,0.643717134551,0.00368979631695,0.0148337385785,-0.0285396682537,-0.147959190131,-0.112444470227,0.0544828811119,0.0599238480656,0.00983635455883,0.256458997726,0.503197073936,-1.0825086832,-0.556834518909,-0.0891684740782,-0.178021341562
2017/07/09/10:23:31.422193,539609,1499567014,229204734,,0.776231584497,0.068348797527,0.0590140806551,0.764924615851,0.643955318816,0.00382858524234,0.0140435525628,-0.027860563715,-0.110320249534,-0.107610067898,0.0967608001103,0.0654714638032,0.0346601068508,0.583668529987,0.466321051121,-0.548435032368,-0.548707067966,0.0790952667594,-0.204448163509
2017/07/09/10:23:31.431878,539610,1499567014,239209127,,0.776408339259,0.0670685683186,0.0581390080627,0.765092010436,0.643756576584,0.00417278982992,0.013938202776,-0.0385436635712,-0.127954401692,-0.112829866928,0.0984724070955,0.0752015882673,0.000631090106901,1.25005543232,0.417102396488,-0.289997309446,-0.540277600288,0.270637601614,-0.171944960952
2017/07/09/10:23:31.441817,539611,1499567014,249200980,,0.775868199107,0.0653846347976,0.056745834607,0.765242759171,0.64358347308,0.00381115300745,0.0137589181177,-0.0361877806049,-0.12895668525,-0.107691793838,0.08888226393,0.0715467240432,-0.0228745317935,1.10239934921,0.140086770058,-0.809088110924,-0.440160214901,0.312024265528,-0.171047568321
2017/07/09/10:23:31.451853,539612,1499567014,259209886,,0.775122595897,0.0642398180631,0.0557603755158,0.76580481203,0.642936898185,0.00351916005831,0.0127573640016,-0.0403491709749,-0.141743324047,-0.123492295829,0.0759276435173,0.0789881293533,-0.118695279331,1.22228205204,-0.0687769204378,-0.755075216293,-0.368847727776,0.372934043407,-0.145890504122
2017/07/09/10:23:31.462044,539613,1499567014,269201882,,0.774641786907,0.0632590326297,0.0541956494719,0.766334958263,0.642316676258,0.00349080369348,0.0121586773417,-0.0325523591797,-0.136382808043,-0.109150441928,0.0697408586556,0.0610213458576,-0.168614595771,0.862776577473,0.0914837419987,-1.04139375687,-0.458659648895,0.316737890244,-0.162902757525
2017/07/09/10:23:31.472162,539614,1499567014,279213332,,0.774610961873,0.0629637414557,0.0533437248044,0.766721233567,0.641867238979,0.00371599195395,0.0114537734569,-0.0420190827347,-0.140943228495,-0.123229430907,0.0677430196201,0.0767506390015,-0.205082758879,1.44578659534,0.451075851917,-0.642268002033,-0.482248395681,0.509676277637,-0.154113218188
2017/07/09/10:23:31.482099,539615,1499567014,289231381,,0.773725095434,0.0612625178494,0.0517817446269,0.767736726878,0.640670496776,0.00356609579653,0.0104362696472,-0.0451775959262,-0.106376570834,-0.11786450379,0.0948317092507,0.097113702665,-0.194518214502,1.17917859554,0.115371569991,-0.759531259537,-0.531365573406,0.489397078753,-0.186284214258
2017/07/09/10:23:31.491770,539616,1499567014,299210235,,0.773703980022,0.0593471139905,0.0513977952476,0.7680613102,0.640277865254,0.00353995399167,0.0106558793758,-0.0521223064268,-0.117980411439,-0.11824324146,0.0857520657857,0.105925296923,-0.185425875542,1.43693137169,-0.573293149471,-0.301559835672,-0.149441793561,0.504747211933,-0.0589406564832
2017/07/09/10:23:31.501708,539617,1499567014,309196972,,0.772980869072,0.0589438058348,0.050027697885,0.768148993915,0.640190137954,0.00331944174761,0.00962765391739,-0.0506914250234,-0.141192605493,-0.109766965028,0.0818048731237,0.0904527218363,-0.117568550839,1.68305289745,0.210814967752,-0.503189980984,-0.265160143375,0.492589712143,-0.049821279943
2017/07/09/10:23:31.511791,539618,1499567014,319202523,,0.772865741312,0.057555386133,0.0489763083806,0.768118688959,0.640230972376,0.00359401089504,0.00922305632213,-0.0509873902274,-0.139785173254,-0.116320600063,0.0814305646062,0.0970286956771,-0.051948922407,1.42872321606,-0.00911071151495,-0.722499012947,-0.382824003696,0.398649543524,-0.0795331820846
2017/07/09/10:23:31.522106,539619,1499567014,329197271,,0.771992891181,0.0556905800199,0.0477845920385,0.768462530567,0.639828768459,0.00293120744073,0.00871172707988,-0.0641324680651,-0.0967185723996,-0.130591155539,0.111472425879,0.142605210201,0.0046807570912,1.82145881653,-0.493332237005,-0.91416066885,-0.318607658148,0.626974463463,-0.0642719194293
2017/07/09/10:23:31.531952,539620,1499567014,339205317,,0.771555184382,0.0539332223631,0.046850944261,0.768846360637,0.639372821716,0.00291512128605,0.00831688969124,-0.0600021299218,-0.137370736986,-0.129091849573,0.0554950382825,0.115379470166,-0.0177661704442,2.09082770348,-0.72377371788,-0.765700638294,-0.199587613344,0.768522083759,-0.0634736791253
2017/07/09/10:23:31.542043,539621,1499567014,349202832,,0.771072706481,0.0534357009395,0.0454901051561,0.768876587025,0.639347963057,0.00284777666887,0.00740717403697,-0.0490950184725,-0.145741954162,-0.113517122624,0.04866293739,0.082030852661,-0.0537679682192,1.49140393734,-0.173528090119,-0.854240357876,-0.358508974314,0.554508626461,-0.0773205682635
2017/07/09/10:23:31.551875,539622,1499567014,359206227,,0.769853133567,0.0517655244953,0.0438339104389,0.769564777091,0.638531984367,0.0021660737569,0.00650130192185,-0.0676355012927,-0.121781841327,-0.132544021179,0.100600675007,0.123415825705,-0.105182723971,1.53071820736,-0.0707792192698,-1.30776906013,-0.392334312201,0.584724605083,-0.0821285322309
2017/07/09/10:23:31.561970,539623,1499567014,369211139,,0.769147146678,0.050311657038,0.0424774661712,0.769949318339,0.638074970371,0.00170915176294,0.00595467675317,-0.0803370512824,-0.114924834897,-0.149441920317,0.100163641809,0.154256144942,-0.134429819625,0.89745682478,-0.552697479725,-1.05361509323,-0.339682519436,0.368653267622,-0.0830730050802
2017/07/09/10:23:31.572279,539624,1499567014,379204536,,0.767932898561,0.0494057694974,0.0405704232908,0.770769123734,0.637097188216,0.00135390091141,0.00450528788136,-0.0859239712077,-0.120575109831,-0.151468298026,0.0939293736485,0.160723948282,-0.132997133084,1.31833183765,-0.336979746819,-0.950932860374,-0.302241235971,0.533404052258,-0.0714617967606
2017/07/09/10:23:31.582136,539625,1499567014,389201304,,0.76735359541,0.0483510632412,0.039542539755,0.771095362877,0.636706138222,0.00136503027646,0.00392066231115,-0.09647506402,-0.105482955481,-0.163851915683,0.110019521409,0.187979838134,-0.174184982588,3.99351143837,0.836062788963,-0.23090299964,-0.479831457138,1.47155976295,-0.123491168022
2017/07/09/10:23:31.592011,539626,1499567014,399205195,,0.766085399055,0.0475926976909,0.0376374709032,0.771655960433,0.636034280972,0.000490681025092,0.00268912416035,-0.0981532063973,-0.108839217727,-0.159529868653,0.126783554893,0.177369648487,-0.223116005461,4.03134822845,0.305738538504,-0.588732361794,-0.293329507113,1.48767566681,-0.130290105939
2017/07/09/10:23:31.601795,539627,1499567014,409209907,,0.765468573282,0.0462225808312,0.0365733262383,0.772580811901,0.634913272901,0.00064721566952,0.00189897019111,-0.102181322365,-0.1343355296,-0.157241597546,0.111743966684,0.17446274848,-0.256026110873,3.89111065865,0.411696642637,-1.11290824413,-0.388480633497,1.46270382404,-0.168813079596
2017/07/09/10:23:31.611742,539628,1499567014,419208967,,0.764237805807,0.0451236382643,0.0346691529907,0.77335710162,0.633970068348,0.000152162196618,0.00085009395655,-0.10694655776,-0.123954915232,-0.15874113603,0.107748284701,0.18911768789,-0.232868609108,3.53163909912,0.415693789721,-1.2781304121,-0.444254517555,1.38847410679,-0.210491195321
2017/07/09/10:23:31.622393,539629,1499567014,429199486,,0.763212010423,0.0439871112879,0.0326446459,0.773800732433,0.633429070803,-0.000177184413175,-8.57541878515e-05,-0.0996857887651,-0.102388965212,-0.16458840093,0.125823493338,0.165154850372,-0.220274279688,3.41629171371,0.632438957691,-0.884468972683,-0.453213393688,1.38999581337,-0.180914402008
2017/07/09/10:23:31.631662,539630,1499567014,439197074,,0.762356608323,0.0430155776762,0.031116646409,0.774364010983,0.632739665184,-0.000489733969472,-0.000809171226589,-0.103736070827,-0.0911964491964,-0.179716705509,0.127662640476,0.170428570665,-0.159522308744,3.41777324677,0.517861008644,-0.685351788998,-0.459266960621,1.44790148735,-0.213348120451
2017/07/09/10:23:31.641986,539631,1499567014,449204907,,0.761438349911,0.042651666218,0.029671815905,0.774464423656,0.632614641812,-0.000665850025,-0.0017686435887,-0.109956041124,-0.108650456385,-0.184767538654,0.126744147243,0.169076966472,-0.183213363,3.27787780762,0.561013281345,-0.305063873529,-0.482587039471,1.37339270115,-0.192235887051
2017/07/09/10:23:31.651751,539632,1499567014,459204914,,0.760396264372,0.0417138474222,0.0278634417922,0.775150445836,0.631769199609,-0.000861854221973,-0.00295329522418,-0.103439084065,-0.104300321165,-0.173389828308,0.114870869944,0.156608055373,-0.205084760615,3.41721916199,-0.172508478165,0.0266293138266,-0.155331671238,1.43169391155,-0.196177214384
2017/07/09/10:23:31.662011,539633,1499567014,469200455,,0.759188367497,0.0402918333027,0.0262596654865,0.775843241982,0.630912743753,-0.0011335426589,-0.00388442040937,-0.113009989507,-0.109425093042,-0.179866196859,0.128430518465,0.170565158387,-0.200135263922,2.69946861267,-1.51096200943,0.204049021006,0.698959589005,1.03663897514,-0.0706990659237
2017/07/09/10:23:31.672316,539634,1499567014,479235822,,0.759036835548,0.0395163976341,0.0245698376449,0.776376828656,0.630254816532,-0.000590247912405,-0.00418781219538,-0.112622181891,-0.106676958091,-0.183105629873,0.135909749773,0.159553416158,-0.190350209828,2.84689998627,-3.05616164207,0.218789741397,1.47932970524,1.05772864819,-0.00862134248018
2017/07/09/10:23:31.681982,539635,1499567014,489229075,,0.757019794119,0.0376705344572,0.0223927594195,0.777380765252,0.629002324896,-0.00140146046121,-0.00576688832201,-0.099954194964,-0.096643219292,-0.172898365017,0.144620750842,0.132373613121,-0.203112537977,3.09801149368,-3.13931274414,0.176492080092,1.45939743519,1.17367768288,-0.0195795372128
2017/07/09/10:23:31.691858,539636,1499567014,499235094,,0.756846196814,0.0378021773305,0.0210417912944,0.777686476564,0.62861773475,-0.000758256960582,-0.00655078426209,-0.0760344499062,-0.0782540452872,-0.175293484308,0.158112401315,0.0888081308678,-0.156813270059,4.06213712692,-2.49510121346,-0.0917783007026,1.01387238503,1.57570266724,-0.0644081607461
2017/07/09/10:23:31.701990,539637,1499567014,509236274,,0.75643623127,0.0358919954024,0.0196421943205,0.77849400541,0.627615297596,-0.000169251254615,-0.00678919119993,-0.0757345383956,-0.0744628195843,-0.183463736031,0.154801109782,0.096571358677,-0.144580142243,4.92102050781,-1.71665596962,-0.43150344491,0.421804070473,1.98512816429,-0.129622608423
2017/07/09/10:23:31.711757,539638,1499567014,519237597,,0.755029702895,0.0360432694482,0.016933721027,0.778711488735,0.627323518534,-0.000563824847037,-0.00856168836255,-0.068567904384,-0.0816870400827,-0.177765242209,0.174864621569,0.0667507836872,-0.203876926994,5.80746078491,-0.910195887089,-0.421287596226,-0.131476148963,2.4067606926,-0.150579601526
2017/07/09/10:23:31.722051,539639,1499567014,529231814,,0.754984133477,0.0350657139812,0.0159477856667,0.77935661303,0.626518652696,7.99780194406e-05,-0.00881142180295,-0.0788927896696,-0.0861190811693,-0.187420505833,0.165699599565,0.0903337268093,-0.168202803888,6.01976156235,-0.643182635307,-0.555982589722,-0.280299067497,2.48648047447,-0.194133996964
2017/07/09/10:23:31.731710,539640,1499567014,539238006,,0.753833996769,0.0331386037839,0.0139760033977,0.779988137717,0.625723257945,-0.000215520607156,-0.00942671937077,-0.063635608934,-0.113046651121,-0.169379677889,0.119259428599,0.0448404977335,-0.164535793762,5.48244190216,-0.592562437057,-0.164556547999,-0.198819875717,2.33641052246,-0.143885865808
2017/07/09/10:23:31.742059,539641,1499567014,549236545,,0.753520918012,0.0323512726732,0.0125348847417,0.779828165153,0.625920016245,-0.000106264483715,-0.00959972947956,-0.0710969579677,-0.130177687765,-0.170312679,0.0845555319565,0.0510806046133,-0.129614620769,4.96966934204,-0.96625161171,0.190174221992,-0.00562741607428,2.25032711029,-0.149431437254
2017/07/09/10:23:31.751695,539642,1499567014,559228551,,0.752282033681,0.0309193601567,0.0111847798961,0.779699737631,0.626069070521,-0.000669428010327,-0.0102659603588,-0.0709984361522,-0.12563830753,-0.168012300303,0.0653601503072,0.0577277433523,-0.0778120318283,4.54934263229,-1.31967520714,0.354232102633,0.291982322931,2.07348918915,-0.15278762579
2017/07/09/10:23:31.761848,539643,1499567014,569245155,,0.75133933601,0.0303368064569,0.00872487000997,0.779147851269,0.626735357285,-0.000561587864716,-0.0114499961159,-0.0833360371473,-0.149594611869,-0.160697643625,0.0482704324558,0.0731172214161,0.0225446106187,4.17700576782,-1.4225628376,0.552288234234,0.354210346937,1.97988927364,-0.121699824929
2017/07/09/10:23:31.772222,539644,1499567014,579243003,,0.750701311169,0.0288952605255,0.00749646635069,0.779799473974,0.625916577082,-0.000244744520903,-0.0118810363192,-0.0816403614524,-0.130978584267,-0.15963819379,0.0889020113795,0.0706455122165,0.0724149531715,4.45344495773,-1.09224486351,0.261624842882,0.195780023932,2.06770324707,-0.200438350439
2017/07/09/10:23:31.781801,539645,1499567014,589235369,,0.750043715943,0.0280632683203,0.00584864383563,0.780101599166,0.625530230895,-0.000507341328,-0.0123760987791,-0.066470416059,-0.10778307185,-0.142367652811,0.101040415119,0.0499712807995,-0.0346716169869,4.0023560524,-0.790106058121,0.104212746024,0.0873941332102,1.84211683273,-0.19037206471
2017/07/09/10:23:31.791779,539646,1499567014,599235514,,0.749507668685,0.0272856017253,0.00466455664574,0.780510870506,0.625009201617,-0.000311824532106,-0.0128911474129,-0.0816868195117,-0.122899479164,-0.154483738995,0.101670204327,0.0730479182743,-0.189071609253,4.30339384079,-0.739452540874,-0.138115733862,-0.00888434052467,1.93468391895,-0.242012768984
2017/07/09/10:23:31.801640,539647,1499567014,609238912,,0.749596827248,0.0253605983348,0.00342110536438,0.78183873369,0.623352790747,0.000639363452445,-0.0126128499957,-0.0705400906771,-0.116732012364,-0.159633480583,0.104784204046,0.0449334546322,-0.234224414958,4.2202796936,-0.729131102562,-0.36789599061,-0.0518376678228,1.88862812519,-0.253447890282
2017/07/09/10:23:31.811787,539648,1499567014,619235840,,0.748560555741,0.0247483165976,0.00183297537169,0.782383729754,0.622649985982,0.000642587608404,-0.0135011648651,-0.0693152917664,-0.126608217287,-0.164986147945,0.0973981432189,0.0376754169662,-0.268450318123,4.43170881271,-0.701270222664,-0.409625649452,-0.0333979278803,1.94907450676,-0.239715054631
2017/07/09/10:23:31.822055,539649,1499567014,629232330,,0.748237261743,0.0239757441974,0.000274612020834,0.78247302103,0.622527766312,0.00106644560488,-0.0139288988799,-0.0478188777312,-0.129325335716,-0.159095195553,0.0705740413563,-0.0199339383528,-0.23420461722,4.57913684845,-0.854704380035,-0.161129578948,0.017167493701,1.98722565174,-0.240846991539
2017/07/09/10:23:31.831841,539650,1499567014,639235813,,0.747578239096,0.0222430205927,-0.00132613466467,0.783882077014,0.620747070269,0.00144995850095,-0.0141372454715,-0.0283328451678,-0.118583838282,-0.137308994018,0.072705040448,-0.0625569665869,-0.197866791673,4.58284854889,-1.01835787296,0.198064342141,0.0507369190454,2.02335715294,-0.235844224691
2017/07/09/10:23:31.842043,539651,1499567014,649232227,,0.747659553297,0.020949436333,-0.00274334023928,0.784314862777,0.620208271468,0.00188524789684,-0.0137237702587,-0.0278874537322,-0.11426291889,-0.147052282431,0.0824106416073,-0.0751340760776,-0.213872270295,4.6972117424,-1.17176258564,0.365476876497,0.116362378001,2.06365418434,-0.260080575943
2017/07/09/10:23:31.851740,539652,1499567014,659230931,,0.747230866572,0.0193509951201,-0.004024694748,0.784873689008,0.61950077762,0.00217736214938,-0.0136871445258,-0.0393387607991,-0.117741838445,-0.158131741062,0.070872386148,-0.0492168554223,-0.206694657369,5.58950281143,-1.58302211761,0.147192597389,0.245281010866,2.4213385582,-0.24550794065
2017/07/09/10:23:31.861955,539653,1499567014,669229779,,0.747269867015,0.0190646164989,-0.00535433576337,0.785696011534,0.618435462334,0.00363306775792,-0.0143581755929,-0.0246584019678,-0.107365889573,-0.146986736519,0.0942961038693,-0.0763238786706,-0.218040288687,5.54918909073,-1.60343623161,-0.0465855374932,0.190462142229,2.38161659241,-0.249238207936
2017/07/09/10:23:31.872321,539654,1499567014,679233802,,0.746870468204,0.0171515087225,-0.00649169511839,0.786419980903,0.617528395457,0.00342271828264,-0.0138050512869,-0.0150930829848,-0.109255443586,-0.14022050494,0.0923683885235,-0.101555658155,-0.20449637948,5.62516117096,-1.50114893913,-0.230352506042,0.15078291297,2.36291122437,-0.218074962497
2017/07/09/10:23:31.882162,539655,1499567014,689236504,,0.747292995562,0.0163980707927,-0.00751134551375,0.786900890432,0.616908734014,0.00476205290996,-0.0137085880335,-0.0070226477718,-0.0958798854746,-0.143666197329,0.0995322860651,-0.107380937685,-0.195556740817,5.43722820282,-1.51800274849,-0.45842191577,0.112722948194,2.30342960358,-0.241125151515
2017/07/09/10:23:31.892164,539656,1499567014,699244226,,0.746773086393,0.0160359814067,-0.00934874320525,0.787101397899,0.616638471063,0.00520653047136,-0.0141872291557,-0.0256478197476,-0.0993150634648,-0.152560872813,0.105252022719,-0.0825065802601,-0.215677855554,5.78851461411,-1.68227052689,-0.554501891136,0.183141097426,2.44771742821,-0.192046120763
2017/07/09/10:23:31.901720,539657,1499567014,709233336,,0.746848340319,0.0152832425563,-0.0109466476856,0.788015524751,0.615460634249,0.00622275289626,-0.0141780742069,-0.00793391078696,-0.100844627504,-0.143548519254,0.0881930529977,-0.119649676616,-0.213705082572,5.87714576721,-1.7227563858,-0.427886068821,0.224186986685,2.47654724121,-0.150042772293
2017/07/09/10:23:31.911851,539658,1499567014,719231996,,0.747219307061,0.0137396662809,-0.0117024213578,0.788407846677,0.614967234451,0.00691177378938,-0.0134385725646,0.0167899986945,-0.0777810638937,-0.131220085933,0.106685597163,-0.15903400526,-0.181589069921,6.15292167664,-1.95146632195,-0.60182338953,0.34765034914,2.55006146431,-0.118448264897
2017/07/09/10:23:31.922115,539659,1499567014,729229608,,0.7467814674,0.0133889469242,-0.0133403902357,0.788791643671,0.614458959487,0.00728856921018,-0.0139573185131,0.0141105727981,-0.100354809291,-0.123291434349,0.0969548019591,-0.172532055301,-0.204874850415,5.91878175735,-2.17762875557,-0.402115523815,0.470913887024,2.44548463821,-0.0515831187367
2017/07/09/10:23:31.931941,539660,1499567014,739228762,,0.747266372372,0.0128769300176,-0.014899552224,0.789067390488,0.614094489661,0.00845704907682,-0.0137509766005,-0.0161572343093,-0.088809755468,-0.150971461311,0.0991724327213,-0.0974477352467,-0.174499134552,5.84251308441,-1.99569416046,-0.273643344641,0.386609256268,2.45435571671,-0.0718806833029
2017/07/09/10:23:31.942025,539661,1499567014,749230583,,0.747126313047,0.0119193903635,-0.0160012760028,0.789924893507,0.612982922315,0.00910045492543,-0.013703331304,0.0062455732548,-0.090962947105,-0.129692820936,0.0809081478701,-0.138012632318,-0.185645886925,5.82539844513,-1.96744155884,-0.130459040403,0.345873296261,2.42033839226,-0.0769943296909
2017/07/09/10:23:31.951938,539662,1499567014,759232677,,0.746371873814,0.010175945574,-0.0173973477741,0.790682277921,0.61200050967,0.00929074282533,-0.0138055656963,-0.0183411077469,-0.119259802028,-0.130524372795,0.0567084495284,-0.0949254821916,-0.244150185559,5.46170949936,-1.77963590622,0.00175616564229,0.210798501968,2.2915160656,-0.111159481108
2017/07/09/10:23:31.961732,539663,1499567014,769232376,,0.746712229164,0.0099961375994,-0.0184138563801,0.791065275414,0.611493246016,0.0101015155941,-0.013773143915,-0.0178381520324,-0.117850874989,-0.124469301548,0.0408336520365,-0.0888624609086,-0.207117737318,5.71186208725,-1.97395551205,0.10267611593,0.272755742073,2.38302135468,-0.108451940119
2017/07/09/10:23:31.972174,539664,1499567014,779232484,,0.746216277761,0.00768624107431,-0.0191378124938,0.791853193646,0.61048717401,0.00995511478674,-0.0132221697043,-0.0414086994109,-0.0912774403162,-0.141203886748,0.0682436935747,-0.0262118465605,-0.166527785073,5.83407020569,-1.91232967377,0.039586301893,0.356078058481,2.3981192112,-0.06114930287
2017/07/09/10:23:31.981807,539665,1499567014,789228483,,0.744946959979,0.00777824434164,-0.0210871909573,0.792194243633,0.610017193082,0.00969254649879,-0.0146068148772,-0.0545088825144,-0.0963008468327,-0.121479109517,0.0492233074957,0.0149016040508,-0.171958400097,5.63245344162,-1.78246366978,0.11695215106,0.23041793704,2.3375916481,-0.0947798788548
2017/07/09/10:23:31.991968,539666,1499567014,799234236,,0.744380017612,0.00676763413535,-0.0223142857996,0.792440989224,0.609686406776,0.0098840678014,-0.0149019862497,-0.0677574781459,-0.0751608873989,-0.136506878687,0.0854912475922,0.0563851182366,-0.177412242801,5.87536859512,-1.79803180695,-0.0932723805308,0.234066903591,2.41534161568,-0.0731926709414
2017/07/09/10:23:32.001747,539667,1499567014,809247260,,0.743026608418,0.00616626748806,-0.0232849428865,0.793134194563,0.608764544298,0.00926757078576,-0.016062102998,-0.0860273680095,-0.0827853347394,-0.127494772757,0.0997399222372,0.100993976383,-0.196245502541,5.38287067413,-1.67260599136,-0.123017780483,0.238275632262,2.21749925613,-0.0661813318729
2017/07/09/10:23:32.011756,539668,1499567014,819235604,,0.74257609922,0.00502386881842,-0.0240202538812,0.793493733353,0.608290568638,0.00946503225424,-0.0161459716228,-0.104423891649,-0.0922886670445,-0.117679644775,0.0968590506666,0.132666407043,-0.188988032053,5.28141498566,-1.77644741535,-0.323400855064,0.227443009615,2.19311261177,-0.0692737102509
2017/07/09/10:23:32.022198,539669,1499567014,829235221,,0.741566868317,0.00501189014681,-0.0254241420508,0.79433996938,0.607147001093,0.00949727621139,-0.0175023956381,-0.0976820051919,-0.0712138153513,-0.115339790739,0.0945657178181,0.126431911721,-0.153361090146,5.37025642395,-1.97851014137,-0.252847999334,0.424948602915,2.18900251389,-0.0301203392446
2017/07/09/10:23:32.032010,539670,1499567014,839240017,,0.740828612028,0.00358387042338,-0.0264575189538,0.794950237145,0.606347126973,0.00934571470672,-0.0176051041237,-0.0933861361511,-0.060754524927,-0.120879422967,0.100587604299,0.118244317093,-0.179096246555,5.57951402664,-2.03336143494,-0.372757107019,0.435639858246,2.27171993256,-0.0483154430985
2017/07/09/10:23:32.042207,539671,1499567014,849228202,,0.739366659802,0.00281188867251,-0.0280127593048,0.79520295287,0.606002498395,0.00854110718392,-0.0184468201495,-0.101046345256,-0.0880667151617,-0.115099341518,0.0745796114012,0.1155265232,-0.16766843424,5.82070207596,-2.16577959061,-0.438325047493,0.512235403061,2.36774158478,-0.0354913175106
2017/07/09/10:23:32.051840,539672,1499567014,859234869,,0.738640139582,0.00295781379118,-0.0291297926167,0.795415322545,0.605692355781,0.008532217041,-0.0194534336711,-0.115155222985,-0.0712966637513,-0.133533657224,0.0915500125951,0.153000979692,-0.170983951234,5.92144632339,-2.25395178795,-0.683480978012,0.463351428509,2.41098189354,-0.0581571944058
2017/07/09/10:23:32.061896,539673,1499567014,869228209,,0.7374145386,0.00198129603044,-0.0301689867948,0.795959273911,0.604954943395,0.00822463503237,-0.0202658855255,-0.107254467153,-0.056849498377,-0.123834517416,0.0952902787641,0.149533637805,-0.123164953835,5.88920116425,-2.20999026299,-0.570408940315,0.52727162838,2.36455988884,-0.0207239165902
2017/07/09/10:23:32.072286,539674,1499567014,879235235,,0.736499633311,0.00198133779568,-0.0315663891049,0.795833996326,0.605097643585,0.0081117103011,-0.0209592980669,-0.0862899774464,-0.0685559227576,-0.111399356884,0.0632887837739,0.102137256307,-0.118133648679,5.32154512405,-1.90081548691,-0.274782657623,0.374296158552,2.1615357399,-0.0436306223273
2017/07/09/10:23:32.082003,539675,1499567014,889235128,,0.735836881245,0.00086898841752,-0.0321515497836,0.79666614058,0.604001978423,0.00780977663276,-0.021063663083,-0.109951936737,-0.0405322754014,-0.12804609796,0.0800002000157,0.153748292786,-0.0916795567435,5.65899085999,-2.01996994019,-0.237896695733,0.411826699972,2.30543327332,-0.0282470211387
2017/07/09/10:23:32.091921,539676,1499567014,899239220,,0.735053361558,0.000122005100307,-0.0335690597806,0.796905313691,0.603665695803,0.00784376438537,-0.0216361753027,-0.103407714213,-0.0588394042258,-0.124074248017,0.0600129984937,0.129672664769,-0.118737822468,5.29513311386,-1.81200480461,-0.143302127719,0.361812353134,2.13892865181,-0.0330989658833
2017/07/09/10:23:32.101949,539677,1499567014,909227347,,0.734132883362,0.000917090222812,-0.0347112723303,0.796767376331,0.603817743448,0.00740776669794,-0.0226054352948,-0.0925647709042,-0.0479191149113,-0.120800324694,0.0869067406775,0.0977254337359,-0.135183369534,5.25810813904,-1.81880927086,-0.189631834626,0.309484243393,2.13802146912,-0.0361228100955
2017/07/09/10:23:32.111931,539678,1499567014,919235709,,0.733197522256,-7.52224893893e-05,-0.0361774057723,0.797215174456,0.603212701884,0.00743955252202,-0.0229576776152,-0.0779892449885,-0.0342397793979,-0.114842804954,0.0884886313918,0.0705336522116,-0.116479477796,5.58481740952,-2.07990217209,-0.413877934217,0.402628362179,2.28077554703,-0.0485523715615
2017/07/09/10:23:32.122309,539679,1499567014,929236236,,0.732824923298,0.000164130998918,-0.0370981403843,0.797674900471,0.602581211577,0.00801977263009,-0.0233734862741,-0.0912008486631,-0.0498691803385,-0.129525501667,0.0768357981402,0.0763191141141,-0.116860029585,5.5507850647,-1.88174748421,-0.698426246643,0.258227914572,2.25739836693,-0.0835593193769
2017/07/09/10:23:32.132051,539680,1499567014,939235697,,0.732083129521,-0.000670354548704,-0.0384074113777,0.797871969297,0.602314696903,0.00790881233934,-0.0235537086743,-0.0680933737452,-0.0534992545397,-0.11608587284,0.063521792228,0.0167297457356,-0.101631747785,5.3505191803,-1.83968675137,-0.554638743401,0.350964426994,2.17891120911,-0.0239792764187
2017/07/09/10:23:32.141833,539681,1499567014,949234476,,0.731929854603,-0.000937991445942,-0.0389547552887,0.798299628082,0.601743706964,0.00832216865471,-0.023515025873,-0.0553632039449,-0.0521171808124,-0.106232822329,0.0602386959289,-0.00884292136615,-0.128172655641,5.20130300522,-1.75697588921,-0.459610342979,0.35305327177,2.20383930206,-0.0381589308381
2017/07/09/10:23:32.151812,539682,1499567014,959234348,,0.730257803658,-0.00197898745587,-0.0403848636251,0.798641644882,0.601264939767,0.00770893879788,-0.0243427099987,-0.0537967610779,-0.034762295179,-0.1011071038,0.0408725051133,0.00255713160545,-0.0946123348894,5.06790733337,-1.90433478355,0.15117585659,0.504621982574,2.38317656517,0.0101658329368
2017/07/09/10:23:32.162046,539683,1499567014,969230967,,0.729105295874,-0.0024380641473,-0.0420468077986,0.7989769569,0.600802687,0.00717259131896,-0.0249099893703,-0.10464718819,-0.0616074603842,-0.123195515693,0.0496931579932,0.083738056918,-0.106280002399,4.38575649261,-1.67442047596,0.215338081121,0.503434956074,2.10223078728,0.0120218768716
2017/07/09/10:23:32.171896,539684,1499567014,979270496,,0.728212437224,-0.00271707924047,-0.0425740539609,0.799104762911,0.600623015305,0.00684198974029,-0.0252340752852,-0.109489156897,-0.0291555856546,-0.129524160232,0.047004311071,0.135488752423,-0.0341024421638,3.68378090858,-1.20711755753,0.133304417133,0.206137478352,1.79007613659,-0.0397484079003
2017/07/09/10:23:32.182078,539685,1499567014,989233356,,0.727826874387,-0.00343964535177,-0.0434480213585,0.799397240664,0.600230384471,0.00713790093548,-0.0252306866196,-0.108803667166,-0.04481422642,-0.124010783709,0.0207538371104,0.123796920302,-0.0260322065272,2.99456858635,-1.14231276512,0.0609408803284,0.277272313833,1.38954281807,-0.05703137815
2017/07/09/10:23:32.192031,539686,1499567014,999236045,,0.72709033435,-0.00408019545846,-0.0440185876354,0.798840053568,0.600984057674,0.0065910722148,-0.0250856334195,-0.0902500124109,-0.0459135648971,-0.0934821773973,0.00167150485845,0.0883714268263,-0.0446007647405,3.48251676559,-1.22099924088,-0.281405955553,0.228156626225,1.52683258057,-0.100260429084
2017/07/09/10:23:32.201800,539687,1499567015,9236301,,0.725679223036,-0.00396759601851,-0.0454167552414,0.799444272517,0.600139550472,0.00620248723096,-0.0261324367739,-0.081777607508,-0.0391010824735,-0.0861231002102,0.0152018494692,0.0582342537094,-0.0310941428236,3.98032093048,-1.43654370308,-0.235862195492,0.320065796375,1.7149194479,-0.101880766451
2017/07/09/10:23:32.211661,539688,1499567015,19236471,,0.725144774569,-0.00440876600966,-0.0463589124093,0.79949561496,0.600058214622,0.0065962415366,-0.0263323056742,-0.0965213595032,-0.0196298491993,-0.104921063776,0.0666621631187,0.0800279544198,-0.0588443178806,5.15980815887,-1.875623703,-0.439601778984,0.572674512863,2.1824491024,-0.0530014336109
2017/07/09/10:23:32.222277,539689,1499567015,29229067,,0.72336339907,-0.00473681160884,-0.0479210171514,0.799340328558,0.600244680328,0.00571598366896,-0.0269942662327,-0.0913655898444,-0.0195219329707,-0.110213946252,0.063827914735,0.0631412638109,-0.0641259068148,4.70653104782,-1.7181391716,-0.404768258333,0.499040096998,1.98511898518,-0.048903092742
2017/07/09/10:23:32.231709,539690,1499567015,39229160,,0.723852056808,-0.00460364882847,-0.0485957023626,0.799919465401,0.599472562413,0.00677814193459,-0.0267498145513,-0.0780669362155,-0.00409266859639,-0.111796376391,0.0590136967551,0.044328320191,-0.0297172776375,4.13710403442,-1.41594743729,-0.371823757887,0.347634762526,1.78248786926,-0.0772202089429
2017/07/09/10:23:32.242047,539691,1499567015,49237519,,0.723535956764,-0.00430526783965,-0.0489837491592,0.800064974031,0.599265673187,0.00716859078078,-0.0269314235599,-0.0389094550926,-0.0128380110823,-0.0775702650029,0.0487544062976,-0.0480153557232,-0.0728335574396,3.57057523727,-1.12210249901,-0.0247654076666,0.271528840065,1.6265181303,-0.0472842678428
2017/07/09/10:23:32.251967,539692,1499567015,59230454,,0.722056400873,-0.00435007049532,-0.0506524870835,0.800107664748,0.599185903001,0.00681590927951,-0.0275231145986,-0.0489245423029,-0.00054168462317,-0.0897169317909,0.0644543982842,-0.0304210788712,-0.06166992968,3.27216458321,-0.993399202824,0.13695512712,0.162756606936,1.55438554287,-0.0707546770573
2017/07/09/10:23:32.261881,539693,1499567015,69265849,,0.722231457628,-0.00522968112299,-0.0508535505392,0.800179955228,0.599111504296,0.00740699305825,-0.0268808691195,-0.0568651490482,-0.0331167103009,-0.0888610369417,0.0320915733331,-0.0401007288248,-0.0655878380498,3.66370725632,-1.42090988159,-0.178511470556,0.352308690548,1.74181485176,-0.0759282559156
2017/07/09/10:23:32.272257,539694,1499567015,79235586,,0.722324424371,-0.00518108060794,-0.0516062383224,0.800248170797,0.599021741549,0.00805665378955,-0.0266628696447,-0.0384739482582,-0.0342426956175,-0.0848589648829,0.0247746736114,-0.0749010078796,-0.0719192544491,3.86112427711,-1.47064423561,-0.349161475897,0.448927938938,1.7508944273,-0.0314528420568
2017/07/09/10:23:32.282290,539695,1499567015,89232779,,0.721657063472,-0.00569035384122,-0.0521212203143,0.800437187968,0.598774479194,0.0080996073408,-0.0265297482878,-0.0419730252939,-0.0086932357522,-0.0894281846136,0.0181645631383,-0.0485826354642,-0.00765729456082,4.1737909317,-1.61845874786,-0.813391804695,0.485752046108,1.80311942101,-0.0530950315297
2017/07/09/10:23:32.291879,539696,1499567015,99235827,,0.721647758749,-0.00486127438357,-0.0534691785577,0.800545436178,0.598617280244,0.00895857066293,-0.0265348906142,-0.0258593741123,-0.0237568584882,-0.0738879101585,0.00341668028972,-0.102883449131,-0.0467270957462,3.64858698845,-1.33663368225,-0.527040481567,0.301530539989,1.5615862608,-0.0819031596184
2017/07/09/10:23:32.301949,539697,1499567015,109228892,,0.721165857082,-0.00507022008657,-0.0542670469838,0.80068444514,0.598430106925,0.00929084461436,-0.0264481878829,-0.0301724510729,-0.000369306426274,-0.0871312553809,0.0407444762392,-0.096593642273,-0.0459433717258,3.19648337364,-1.23762249947,-0.499990940094,0.330985665321,1.37766981125,-0.0448806136847
2017/07/09/10:23:32.312119,539698,1499567015,119235864,,0.721938299595,-0.00550908383664,-0.0541472802776,0.800623209909,0.598557298369,0.0100888933867,-0.0250968235905,0.00158191212835,-0.0198635685204,-0.0672888726798,-0.0130078206305,-0.163471435669,-0.0243343068553,3.17726945877,-1.31472969055,-0.628998219967,0.37685739994,1.3765784502,-0.0572561472654
2017/07/09/10:23:32.322222,539699,1499567015,129235853,,0.721254402165,-0.00609872369234,-0.055657774888,0.800820013013,0.598295066949,0.010277647718,-0.0249937908217,-0.0035189206766,-0.0246317790249,-0.0773831777532,-0.0018901998193,-0.163219986406,-0.0602434643898,3.15588212013,-1.18826603889,-0.380937576294,0.260134160519,1.39086425304,-0.0677842274308
2017/07/09/10:23:32.331882,539700,1499567015,139233359,,0.720725966712,-0.00607884481448,-0.0566101880717,0.800704613852,0.598444468428,0.0106207400762,-0.0249707717902,-0.00413110026689,-0.00611962660129,-0.0830494506854,0.00216437381384,-0.149802137731,-0.00255068532615,3.60738539696,-1.21077895164,-0.445890516043,0.267193257809,1.57593631744,-0.0744887515903
2017/07/09/10:23:32.342046,539701,1499567015,149230460,,0.721591832641,-0.00530613249403,-0.0567166807074,0.800812685128,0.598305785987,0.0118074677078,-0.0242860762355,-0.0026792402738,0.00798919204359,-0.0744435486404,0.00299308102442,-0.137547344058,0.011326671187,3.70964336395,-1.3743429184,-0.72424441576,0.37752327323,1.54377615452,-0.0504830405116
2017/07/09/10:23:32.352177,539702,1499567015,159230209,,0.721412217029,-0.00552883823375,-0.0575331179159,0.800622330254,0.598567073407,0.0121429368253,-0.0239560434232,-0.00178445450515,0.00876478725915,-0.074570782536,0.00814534625966,-0.145451746848,-0.00419480835282,3.82009720802,-1.30291998386,-0.730236768723,0.228343695402,1.63725352287,-0.0889818817377
2017/07/09/10:23:32.361969,539703,1499567015,169235510,,0.720938869673,-0.005582332942,-0.0582006253216,0.800903249982,0.598196054206,0.0122999004495,-0.0237524177538,-0.0232467819216,-0.000546625086335,-0.0702771378888,0.0109997039922,-0.102701425016,-0.0247350945049,3.30263209343,-1.26151967049,-0.765090107918,0.28938922286,1.40968561172,-0.0738199800253
2017/07/09/10:23:32.372068,539704,1499567015,179235745,,0.720994878911,-0.00529408194824,-0.0586951942446,0.800578488267,0.598623984241,0.0131029941066,-0.0234887453999,-0.00230913970997,0.00201097196708,-0.0720404204484,0.00527484958737,-0.142771565272,0.0197197292052,3.25171089172,-1.12020134926,-0.867906868458,0.237133860588,1.40925347805,-0.0597335509956
2017/07/09/10:23:32.381914,539705,1499567015,189237194,,0.721491083585,-0.00507159556011,-0.0593841287965,0.800710637355,0.598441645118,0.0141393206123,-0.023025034798,0.0106160268901,-0.000981212558817,-0.0616759662186,-0.015160107998,-0.170577562263,0.0285541022214,2.88620710373,-1.22255778313,-0.791255235672,0.36481577158,1.23374938965,-0.0559874549508
2017/07/09/10:23:32.391926,539706,1499567015,199227823,,0.721242066669,-0.00621549901862,-0.0600561803842,0.800884389976,0.59824305863,0.0143382749235,-0.0219966035124,0.0116127710925,-0.0157418771078,-0.0442960823834,-0.0191758150372,-0.167258535841,-0.0216995357499,2.87268471718,-1.26922142506,-0.770529210567,0.435274541378,1.23781192303,-0.0509082786739
2017/07/09/10:23:32.402133,539707,1499567015,209235972,,0.721632379275,-0.00553276333939,-0.0605769008963,0.800627071416,0.598590718994,0.0148608153573,-0.0215545776647,-0.00207206732165,-0.0170459493559,-0.0606603555207,-0.038731723885,-0.13919740849,-0.0118245937445,2.98874330521,-1.10391163826,-0.922779619694,0.31258636713,1.32014930248,-0.0895588696003
2017/07/09/10:23:32.411986,539708,1499567015,219235549,,0.7219959632,-0.00622892206169,-0.060793381763,0.800871998373,0.598274432842,0.0156510482148,-0.0206588944442,-0.00415256158347,0.00562023457545,-0.0736001336,-0.0179551421383,-0.119629340641,0.0166812305483,1.89156031609,-1.35718512535,-0.502048313618,0.297161102295,0.846910655499,-0.0848120599985
2017/07/09/10:23:32.422410,539709,1499567015,229229440,,0.721611666797,-0.00547937711093,-0.0619244090656,0.800409778451,0.598880728983,0.0159547813615,-0.0207726735315,0.0096296421211,0.00690636998757,-0.0665401045677,-0.0136455612113,-0.142969871913,0.0251055550617,1.69599246979,-0.177524939179,-0.960725426674,0.0594769045711,0.811669707298,-0.09971319139
2017/07/09/10:23:32.431894,539710,1499567015,239237183,,0.721757074954,-0.00487089939785,-0.0624847557275,0.800384317036,0.598912724116,0.0163298866341,-0.0205384696804,0.0160386146671,0.0202084923844,-0.0651516463311,0.00597353802504,-0.155304669508,0.0161607783102,1.63865482807,-0.35530886054,-0.609035491943,0.0481195822358,0.795505166054,-0.103532329202
2017/07/09/10:23:32.442050,539711,1499567015,249237877,,0.722119048881,-0.0060477537829,-0.0627003045816,0.800735763506,0.598472281016,0.0167737124193,-0.0192823357124,0.0341563918029,0.0197651549918,-0.0525409069086,0.00673639637841,-0.17719221913,0.013972968232,2.17268061638,-0.696465373039,-0.6292552948,0.210807994008,0.944875121117,-0.0515528470278
2017/07/09/10:23:32.451583,539712,1499567015,259236426,,0.722795592524,-0.00517406108041,-0.0632751471671,0.800447404567,0.598836291438,0.0178687685563,-0.0189672267088,0.0364460630597,0.00160369042965,-0.0459575314424,-0.0283681262839,-0.186248833348,0.00255404968743,2.51167702675,-0.168892532587,-0.821383953094,-0.0625735372305,1.05913865566,-0.121504530311
2017/07/09/10:23:32.461887,539713,1499567015,269234230,,0.72204529155,-0.00489576602967,-0.0641677376587,0.800324954093,0.598980081776,0.0180087399924,-0.0194554561896,0.0311099745826,-0.00435973067176,-0.049873254954,-0.0212125185512,-0.169112603014,-0.0145835773834,1.4476402998,-0.471528828144,-0.674579203129,0.10144328326,0.749897658825,-0.0799470171332
2017/07/09/10:23:32.472221,539714,1499567015,279236970,,0.723396610063,-0.00549302843432,-0.0635777903978,0.800488601435,0.598785342235,0.0189231943216,-0.0177771092929,0.0208133915431,0.00451813556198,-0.063775419506,-0.0077004554736,-0.148794077389,0.0255530481894,2.36563563347,-0.731788873672,-0.0558435022831,0.221022740006,0.944980740547,-0.0927003547549
2017/07/09/10:23:32.481905,539715,1499567015,289230006,,0.723565701475,-0.0058096523071,-0.0646865245247,0.80054947274,0.598706654117,0.0194063976364,-0.0171544671214,0.0448922909825,-0.00148141909665,-0.0433078472346,-0.0242898842301,-0.181439145687,0.00289753323402,1.88945531845,-0.664055407047,-0.308327555656,0.105157181621,0.871279597282,-0.0954104959965
2017/07/09/10:23:32.491915,539716,1499567015,299241807,,0.723914953594,-0.00534419408931,-0.065243367603,0.800590677748,0.598631288546,0.0201683074252,-0.0169819448816,0.0356864223372,0.0138941142257,-0.0491124125778,-0.00652142340159,-0.158047761972,0.00296675856822,1.67895114422,-0.591045498848,-0.35407486558,0.0765560418367,0.856110095978,-0.0978584066033
2017/07/09/10:23:32.502134,539717,1499567015,309232487,,0.723523806794,-0.00561629988515,-0.0654336387853,0.800465084759,0.598804557448,0.0202302111276,-0.0167179130862,0.036792424811,0.00912599787118,-0.0373851448297,-0.012342620016,-0.152579037162,-0.00564061231694,1.1485272646,-0.823888421059,0.125901684165,0.140739709139,0.721024572849,-0.111892595887
2017/07/09/10:23:32.511942,539718,1499567015,319236335,,0.724907456284,-0.0059674848672,-0.065574491664,0.800409223271,0.598890073975,0.021089838743,-0.015197805701,0.0425432632415,0.0115608991834,-0.0307780362301,-0.0288369568624,-0.153405113309,0.0279070262273,1.26169621944,-0.90049725771,-0.202188760042,0.0717006400228,0.739165425301,-0.100198216736
2017/07/09/10:23:32.522427,539719,1499567015,329234962,,0.725035444659,-0.00536407940446,-0.0658984776395,0.80003736587,0.59937514363,0.0214272307366,-0.0151830232055,0.0374260235774,-0.0153400567596,-0.0276591946645,-0.0466572262026,-0.149399245514,0.00973766096083,1.21612870693,-0.336970597506,0.1049252823,0.0387966185808,0.569299757481,-0.105847209692
2017/07/09/10:23:32.531930,539720,1499567015,339237213,,0.725408943813,-0.00484354893364,-0.0664774252698,0.800081418304,0.599300496834,0.0219402214216,-0.0150753196696,0.0361906688129,0.0105301768725,-0.0263104975338,-0.00570123494938,-0.147812364503,0.0167124661443,1.63068401814,-0.00893402099609,-0.119256876409,-0.072915032506,0.715585708618,-0.102151222527
2017/07/09/10:23:32.542097,539721,1499567015,349237912,,0.725670853937,-0.00474554125665,-0.066811554289,0.800127663878,0.599224010443,0.0226080930137,-0.0146690468856,0.0296113454587,0.0184693063886,-0.0315513619957,0.00207957844093,-0.123198810883,0.0279866990699,1.34759938717,-0.167454600334,0.0982180684805,0.0364793166518,0.534767508507,-0.0971118286252
2017/07/09/10:23:32.551860,539722,1499567015,359238524,,0.725960717135,-0.00536147260302,-0.0663059925198,0.800168507244,0.599180452126,0.0227536299067,-0.0139792035287,0.0495012240691,-0.00412233943333,-0.0141807606668,-0.0517765331539,-0.152921393851,0.0142953866508,1.43793439865,-0.347645550966,0.328211545944,0.155928224325,0.629018366337,-0.0812392681837
2017/07/09/10:23:32.561734,539723,1499567015,369261664,,0.726069449119,-0.00516689044743,-0.0671154185991,0.800381065738,0.598890688276,0.0230782362789,-0.0136926299358,0.0364101051074,-0.00795410082701,-0.0104326370477,-0.0403525828921,-0.129131312119,0.00416938289667,0.575428664684,-0.246105641127,-0.242488414049,0.00142169743776,0.382771760225,-0.124776698649
2017/07/09/10:23:32.572226,539724,1499567015,379237078,,0.726788668649,-0.00479732042217,-0.0669143382963,0.800294186258,0.598981543777,0.0239306878829,-0.0133284595298,0.0212209026102,0.0208465753443,-0.0368670228318,-0.012662655458,-0.0904628656533,0.0275099530712,1.15730953217,-0.47987228632,0.0536648072302,0.101067610085,0.543809056282,-0.126625046134
2017/07/09/10:23:32.582080,539725,1499567015,389241852,,0.727207220817,-0.00458132238675,-0.0669681969799,0.79985119252,0.599581280158,0.0241008240433,-0.0126296709288,0.0310879491341,0.0137323082226,-0.0206431422512,-0.013442105348,-0.113287954107,0.0286862169479,1.38627743721,0.0268372893333,-0.164701804519,0.224585413933,0.557435452938,-0.0507741011679
2017/07/09/10:23:32.591696,539726,1499567015,399229033,,0.727336595064,-0.00531931501731,-0.0670092458821,0.79998219911,0.599401228396,0.0244429111054,-0.0122144423072,0.0259155785457,0.004154480785,-0.0181155095344,-0.015270696004,-0.0987576806576,0.0123200840291,1.4132758379,-0.751178026199,0.236915752292,0.231937691569,0.546703100204,-0.087632521987
2017/07/09/10:23:32.601827,539727,1499567015,409233328,,0.727513186086,-0.00535428468944,-0.0674147876052,0.799853158667,0.599579260614,0.0244973634908,-0.0118116042321,0.0483572367769,-0.0146184277367,-0.00248535130358,-0.0382231764421,-0.139846781664,-0.00976015473889,0.754614233971,-0.361285150051,-0.538316011429,0.0823253393173,0.463086843491,-0.104111239314
2017/07/09/10:23:32.611725,539728,1499567015,419236436,,0.728108203256,-0.00509538271502,-0.0673476302027,0.799968387699,0.599404800333,0.0251328636242,-0.0115240264676,0.033574796699,-0.0146731626307,-0.0105535053672,-0.0345970950194,-0.104173011747,-0.000746318038045,0.819557130337,-0.0215017646551,-0.0431580655277,0.087746784091,0.353187084198,-0.0954162627459
2017/07/09/10:23:32.621887,539729,1499567015,429275976,,0.728221333546,-0.0048248741572,-0.0675721532587,0.799622480233,0.599868080062,0.0251908414835,-0.0112958901528,0.0503921274349,0.00389920319921,0.0037570875382,-0.0158248659466,-0.134967420419,0.0150720123923,0.554081439972,-0.11118003726,-0.116186790168,0.0836842954159,0.390680134296,-0.104377903044
2017/07/09/10:23:32.632047,539730,1499567015,439248310,,0.729338953737,-0.00518365375241,-0.0669095961474,0.799994125341,0.599348500753,0.0261534746513,-0.0103329487076,0.0280442205574,0.00973727590813,-0.00942765016644,0.00477736655961,-0.0814886925109,-0.000377129887495,1.29289340973,-0.474133729935,0.138605087996,0.188893735409,0.552506089211,-0.0587908402085
2017/07/09/10:23:32.641935,539731,1499567015,449236253,,0.729102982339,-0.0047032099246,-0.0672620746087,0.799736327913,0.599692878216,0.026005019677,-0.0106769183531,0.0371740149707,-0.000965638664652,0.00421152865021,-0.018801541906,-0.0936549720626,-0.00141853677807,0.749538898468,-0.223163515329,-0.153799876571,0.198863074183,0.376336276531,-0.0726991072297
2017/07/09/10:23:32.651858,539732,1499567015,459236218,,0.729134999084,-0.00464793915823,-0.0674436038604,0.799906076098,0.599455495419,0.026221259748,-0.0107621545357,0.0185635864044,0.00173712828881,-0.00785525201424,-0.00767153853918,-0.0496220525169,0.00613211541432,0.890800833702,-0.766729831696,-0.2924734056,0.266965270042,0.479307770729,-0.0771391689777
2017/07/09/10:23:32.661758,539733,1499567015,469228648,,0.729258742253,-0.00515413078634,-0.0672631972207,0.799795465539,0.599615870476,0.0261254980837,-0.0102703226378,0.00808753678953,0.00843164616941,-0.0137158685311,0.0089091963514,-0.0230315900178,-0.00442933208988,1.02506089211,-0.681885540485,0.00395450741053,0.241966038942,0.437798202038,-0.0895094573498
2017/07/09/10:23:32.674082,539734,1499567015,479235991,,0.729883511754,-0.00483638551915,-0.0669494947855,0.799619446316,0.599823535979,0.0268275620304,-0.0100373639361,0.0118789248427,0.0110725889463,0.000735524649274,0.00246918474592,-0.0323597080099,0.0248682008122,0.987783253193,-0.9441370368,0.127492204309,0.299089789391,0.443337261677,-0.059059586376
2017/07/09/10:23:32.682077,539735,1499567015,489235878,,0.729597523699,-0.00475121314621,-0.0674171701423,0.799664502673,0.599783972145,0.026361873546,-0.0100459715786,0.019251346737,0.0194039666993,0.00721586207818,0.00277186143781,-0.0314575536905,0.0138919659294,0.845954716206,-0.624060869217,-0.235599562526,0.358984291553,0.325797915459,-0.045421384275
2017/07/09/10:23:32.691993,539736,1499567015,499236219,,0.729773260316,-0.00503110403985,-0.0674253131004,0.799904319036,0.599453888015,0.0266088691459,-0.0100042298215,0.0388620445551,-0.0080827659587,0.0112288522067,-0.0328122807202,-0.0754566513737,0.00755472053029,0.0774964317679,-0.626186430454,-0.0782127827406,0.213892385364,0.147459372878,-0.0902681723237
2017/07/09/10:23:32.701877,539737,1499567015,509235736,,0.730047956876,-0.00550359949909,-0.0670867356625,0.799927767163,0.599435859641,0.0265091004033,-0.0094596561111,0.00902947055903,-0.0137349739827,-0.000832729636971,-0.00318568478882,-0.0355923532881,-0.0395110312157,0.603465378284,-0.67092949152,-0.261071264744,0.220588505268,0.377063363791,-0.0974627882242
2017/07/09/10:23:32.711707,539738,1499567015,519247245,,0.72982369356,-0.00482076614695,-0.0674866672379,0.799520336521,0.599963865617,0.0266737628397,-0.00995498965943,0.00261854212449,-0.00306530665683,-0.00792224642761,-0.0130572768149,-0.0136332279035,0.010959832809,0.510339438915,-0.184989348054,-0.150480955839,0.102706491947,0.387007564306,-0.122223779559
2017/07/09/10:23:32.721933,539739,1499567015,529227989,,0.729760869524,-0.00470046170812,-0.0674826772411,0.799222229834,0.600375394911,0.0264244685631,-0.00974474140997,0.023504874443,-0.000375734589685,0.00947794735012,-0.00793222793996,-0.0481266836042,0.018762812123,0.485374867916,-0.641415536404,0.116010636091,0.349693626165,0.303362309933,-0.0425608530641
