time,.header.seq,.header.stamp.secs,.header.stamp.nsecs,.header.frame_id,.ch0,.ch1,.ch2,.ch3,.ch4,.ch5,.ch6,.ch7
2017/07/09/10:14:23.140367,193361,1499566463,140240907,0,230,238,144,56,28,25,31,60
2017/07/09/10:14:23.164226,193362,1499566463,163980960,0,194,252,156,63,31,26,35,61
2017/07/09/10:14:23.186101,193363,1499566463,185520887,0,238,275,155,60,36,29,39,67
2017/07/09/10:14:23.200671,193364,1499566463,200191974,0,259,302,165,62,41,33,42,86
2017/07/09/10:14:23.223032,193365,1499566463,222606897,0,269,390,227,68,51,36,42,87
2017/07/09/10:14:23.245513,193366,1499566463,245208978,0,326,437,252,83,80,50,47,103
2017/07/09/10:14:23.267568,193367,1499566463,267400979,0,350,442,265,105,92,62,49,130
2017/07/09/10:14:23.283252,193368,1499566463,282747030,0,379,453,263,115,94,68,62,141
2017/07/09/10:14:23.305410,193369,1499566463,305018901,0,393,551,348,129,98,70,61,139
2017/07/09/10:14:23.327746,193370,1499566463,327631950,0,425,537,342,136,99,70,70,235
2017/07/09/10:14:23.343000,193371,1499566463,342617988,0,581,608,358,139,115,104,90,274
2017/07/09/10:14:23.365264,193372,1499566463,365025043,0,593,625,343,123,122,104,94,279
2017/07/09/10:14:23.387770,193373,1499566463,387579917,0,599,616,346,113,121,102,85,276
2017/07/09/10:14:23.402997,193374,1499566463,402657032,0,651,546,267,101,124,102,86,279
2017/07/09/10:14:23.434239,193375,1499566463,433958053,0,645,501,221,85,123,102,84,232
2017/07/09/10:14:23.448842,193376,1499566463,448581933,0,521,363,164,73,100,60,60,190
2017/07/09/10:14:23.457711,193377,1499566463,457547903,0,194,252,156,63,31,26,35,61
2017/07/09/10:14:23.459153,193378,1499566463,459074020,0,238,275,155,60,36,29,39,67
2017/07/09/10:14:23.464505,193379,1499566463,464374065,0,259,302,165,62,41,33,42,86
2017/07/09/10:14:23.467027,193380,1499566463,466851949,0,497,465,207,80,96,52,51,185
2017/07/09/10:14:23.485247,193381,1499566463,485050916,0,527,526,231,85,98,50,55,186
2017/07/09/10:14:23.508206,193382,1499566463,507791996,0,490,525,236,89,94,47,57,183
2017/07/09/10:14:23.523077,193383,1499566463,522876977,0,488,526,240,92,92,48,50,161
2017/07/09/10:14:23.545079,193384,1499566463,544964075,0,548,561,243,91,94,52,56,191
2017/07/09/10:14:23.567898,193385,1499566463,567621946,0,570,583,230,87,117,72,66,188
2017/07/09/10:14:23.582718,193386,1499566463,582578897,0,510,559,210,87,123,78,67,209
2017/07/09/10:14:23.606116,193387,1499566463,605776071,0,496,540,196,81,122,83,63,211
2017/07/09/10:14:23.627811,193388,1499566463,627433061,0,525,521,195,80,123,83,64,213
2017/07/09/10:14:23.643070,193389,1499566463,642498970,0,460,522,211,82,142,83,67,237
2017/07/09/10:14:23.665212,193390,1499566463,664911985,0,456,407,203,87,121,71,65,245
2017/07/09/10:14:23.688054,193391,1499566463,687777042,0,489,377,209,85,118,63,65,239
2017/07/09/10:14:23.710492,193392,1499566463,710288047,0,491,375,203,85,117,61,70,234
2017/07/09/10:14:23.733359,193393,1499566463,733210086,0,516,430,222,93,132,66,71,234
2017/07/09/10:14:23.747934,193394,1499566463,747682094,0,503,426,221,93,117,68,72,176
2017/07/09/10:14:23.770286,193395,1499566463,769913911,0,496,388,196,84,109,70,64,155
2017/07/09/10:14:23.789410,193396,1499566463,789122104,0,482,380,205,85,115,70,66,140
2017/07/09/10:14:23.807865,193397,1499566463,807542085,0,525,389,217,83,115,69,61,162
2017/07/09/10:14:23.824245,193398,1499566463,824101924,0,521,348,188,67,108,68,60,152
2017/07/09/10:14:23.845561,193399,1499566463,845258951,0,522,403,202,62,104,71,61,172
2017/07/09/10:14:23.867627,193400,1499566463,867439031,0,512,407,210,71,119,64,63,169
2017/07/09/10:14:23.884630,193401,1499566463,884433031,0,537,410,185,67,106,65,61,161
2017/07/09/10:14:23.905531,193402,1499566463,905132055,0,471,420,175,68,108,64,62,159
2017/07/09/10:14:23.944503,193403,1499566463,944051980,0,485,436,183,77,104,63,65,176
2017/07/09/10:14:23.945740,193404,1499566463,945385932,0,470,456,211,96,101,62,59,175
2017/07/09/10:14:23.965059,193405,1499566463,964956045,0,574,543,335,108,122,74,80,233
2017/07/09/10:14:23.987877,193406,1499566463,987621068,0,590,541,338,108,126,79,90,259
2017/07/09/10:14:24.003212,193407,1499566464,2696990,0,634,534,342,109,154,99,96,270
2017/07/09/10:14:24.025320,193408,1499566464,25058984,0,581,514,341,108,152,100,96,286
2017/07/09/10:14:24.049563,193409,1499566464,49360036,0,607,575,332,95,163,97,93,285
2017/07/09/10:14:24.063256,193410,1499566464,62855005,0,556,539,204,72,149,92,84,272
2017/07/09/10:14:24.085236,193411,1499566464,84913015,0,519,573,219,80,161,96,76,268
2017/07/09/10:14:24.111825,193412,1499566464,110042095,0,478,560,216,81,139,78,71,259
2017/07/09/10:14:24.123230,193413,1499566464,122857093,0,523,575,214,79,134,72,71,258
2017/07/09/10:14:24.161835,193414,1499566464,161055088,0,503,424,186,82,120,78,76,261
2017/07/09/10:14:24.167963,193415,1499566464,167762041,0,452,405,190,85,121,72,73,255
2017/07/09/10:14:24.191402,193416,1499566464,191306114,0,479,384,184,97,108,71,74,301
2017/07/09/10:14:24.221819,193417,1499566464,221436023,0,541,572,241,103,102,71,77,334
2017/07/09/10:14:24.229636,193418,1499566464,229280948,0,599,570,250,103,103,72,83,337
2017/07/09/10:14:24.250561,193419,1499566464,250262022,0,583,573,243,109,105,79,88,343
2017/07/09/10:14:24.267847,193420,1499566464,267693042,0,642,564,242,108,107,84,89,371
2017/07/09/10:14:24.289797,193421,1499566464,289606094,0,647,606,242,93,118,91,94,391
2017/07/09/10:14:24.310196,193422,1499566464,310018062,0,637,497,194,87,134,94,101,392
2017/07/09/10:14:24.326753,193423,1499566464,326612949,0,564,489,186,90,188,105,111,439
2017/07/09/10:14:24.347887,193424,1499566464,347739934,0,651,509,176,77,199,107,107,443
2017/07/09/10:14:24.370260,193425,1499566464,370098114,0,622,590,235,107,211,121,118,430
2017/07/09/10:14:24.386729,193426,1499566464,386600971,0,591,564,238,114,207,115,116,380
2017/07/09/10:14:24.407600,193427,1499566464,407478094,0,637,540,241,125,202,116,112,361
2017/07/09/10:14:24.439042,193428,1499566464,438786983,0,643,531,246,127,156,109,103,306
2017/07/09/10:14:24.445424,193429,1499566464,445143938,0,678,575,273,138,140,120,103,309
2017/07/09/10:14:24.468477,193430,1499566464,467968940,0,722,521,226,115,114,110,105,349
2017/07/09/10:14:24.498343,193431,1499566464,498078107,0,715,516,211,115,111,112,103,352
2017/07/09/10:14:24.504991,193432,1499566464,504852056,0,679,532,216,109,102,111,105,349
2017/07/09/10:14:24.527622,193433,1499566464,527420997,0,696,540,203,100,98,110,115,354
2017/07/09/10:14:24.550248,193434,1499566464,550017118,0,637,480,171,98,99,84,118,365
2017/07/09/10:14:24.566605,193435,1499566464,566483974,0,542,444,180,113,108,76,108,383
2017/07/09/10:14:24.588411,193436,1499566464,587938070,0,605,425,200,176,143,94,127,500
2017/07/09/10:14:24.610361,193437,1499566464,610200881,0,602,392,192,178,156,114,123,557
2017/07/09/10:14:24.625161,193438,1499566464,624936103,0,584,456,214,188,170,138,122,554
2017/07/09/10:14:24.663701,193439,1499566464,663431882,0,567,505,232,191,181,149,126,552
2017/07/09/10:14:24.678767,193440,1499566464,678426027,0,599,526,256,188,185,150,136,563
2017/07/09/10:14:24.685312,193441,1499566464,685045003,0,585,526,257,127,159,137,147,489
2017/07/09/10:14:24.715784,193442,1499566464,715573072,0,689,580,255,139,164,126,158,430
2017/07/09/10:14:24.730404,193443,1499566464,730204105,0,728,702,343,159,168,104,159,449
2017/07/09/10:14:24.745401,193444,1499566464,745156049,0,754,693,348,157,164,89,160,475
2017/07/09/10:14:24.777374,193445,1499566464,777170896,0,804,669,325,155,147,97,151,418
2017/07/09/10:14:24.791065,193446,1499566464,790549993,0,866,684,335,171,151,93,140,461
2017/07/09/10:14:24.805138,193447,1499566464,804999113,0,759,647,337,172,151,82,124,491
2017/07/09/10:14:24.829216,193448,1499566464,828990936,0,889,503,260,150,144,79,142,570
2017/07/09/10:14:24.850453,193449,1499566464,850039958,0,961,494,255,147,133,85,150,576
2017/07/09/10:14:24.865221,193450,1499566464,864999055,0,954,532,260,145,135,90,167,649
2017/07/09/10:14:24.887753,193451,1499566464,887629032,0,969,604,298,128,127,91,168,644
2017/07/09/10:14:24.910161,193452,1499566464,909944057,0,1018,578,304,123,125,101,199,715
2017/07/09/10:14:24.924983,193453,1499566464,924876928,0,945,534,301,135,129,109,183,661
2017/07/09/10:14:24.948421,193454,1499566464,947877883,0,879,501,290,132,129,110,172,665
2017/07/09/10:14:24.970749,193455,1499566464,970223903,0,862,456,288,137,137,105,159,594
2017/07/09/10:14:24.994341,193456,1499566464,994107961,0,813,527,228,137,149,113,150,567
2017/07/09/10:14:25.015203,193457,1499566465,14925956,0,829,616,264,132,165,113,139,500
2017/07/09/10:14:25.030221,193458,1499566465,29999971,0,831,632,256,138,169,106,156,544
2017/07/09/10:14:25.054791,193459,1499566465,54421901,0,827,625,244,142,170,117,158,507
2017/07/09/10:14:25.068275,193460,1499566465,67955970,0,839,675,278,156,166,116,165,537
2017/07/09/10:14:25.106863,193461,1499566465,106513977,0,846,645,363,172,164,113,174,581
2017/07/09/10:14:25.108139,193462,1499566465,107999086,0,778,632,390,176,136,123,164,580
2017/07/09/10:14:25.127566,193463,1499566465,127330064,0,766,644,399,158,155,129,158,563
2017/07/09/10:14:25.158590,193464,1499566465,158370971,0,742,717,443,157,164,126,166,604
2017/07/09/10:14:25.173129,193465,1499566465,172893047,0,764,701,425,140,161,122,163,661
2017/07/09/10:14:25.187660,193466,1499566465,187482118,0,784,659,368,128,161,118,150,731
2017/07/09/10:14:25.222040,193467,1499566465,221596956,0,820,644,351,131,165,112,141,731
2017/07/09/10:14:25.232735,193468,1499566465,232450962,0,771,712,354,141,135,152,165,738
2017/07/09/10:14:25.247526,193469,1499566465,247383117,0,807,687,315,140,139,172,231,717
2017/07/09/10:14:25.270323,193470,1499566465,270118951,0,764,687,321,146,159,178,241,680
2017/07/09/10:14:25.292608,193471,1499566465,292431116,0,718,729,338,152,167,184,278,599
2017/07/09/10:14:25.308073,193472,1499566465,307784080,0,752,793,347,159,184,205,312,608
2017/07/09/10:14:25.330578,193473,1499566465,330099105,0,798,908,416,156,187,171,301,610
2017/07/09/10:14:25.352792,193474,1499566465,352452993,0,830,933,469,210,268,208,380,720
2017/07/09/10:14:25.367993,193475,1499566465,367716073,0,826,932,469,212,288,205,389,734
2017/07/09/10:14:25.390382,193476,1499566465,390041112,0,831,874,474,211,294,211,386,797
2017/07/09/10:14:25.413113,193477,1499566465,412620067,0,777,905,482,212,296,188,378,835
2017/07/09/10:14:25.428257,193478,1499566465,427735090,0,772,790,432,219,298,197,371,822
2017/07/09/10:14:25.450193,193479,1499566465,450046062,0,760,894,458,184,233,132,257,790
2017/07/09/10:14:25.472932,193480,1499566465,472522020,0,755,914,461,192,206,142,259,810
2017/07/09/10:14:25.487738,193481,1499566465,487539052,0,751,891,427,196,218,130,224,733
2017/07/09/10:14:25.510711,193482,1499566465,510324954,0,763,761,372,180,202,146,218,715
2017/07/09/10:14:25.532651,193483,1499566465,532397031,0,735,735,405,182,236,154,265,774
2017/07/09/10:14:25.547584,193484,1499566465,547451019,0,690,556,306,171,229,160,259,707
2017/07/09/10:14:25.570560,193485,1499566465,570272922,0,784,517,300,167,220,162,249,778
2017/07/09/10:14:25.609500,193486,1499566465,609236001,0,758,520,300,149,185,159,260,768
2017/07/09/10:14:25.610794,193487,1499566465,610655069,0,789,571,328,157,178,153,238,740
2017/07/09/10:14:25.630207,193488,1499566465,629960060,0,796,575,276,182,135,147,263,763
2017/07/09/10:14:25.661260,193489,1499566465,660924911,0,797,587,281,200,146,149,254,758
2017/07/09/10:14:25.670366,193490,1499566465,667838096,0,674,576,263,190,140,137,248,616
2017/07/09/10:14:25.690660,193491,1499566465,690071105,0,684,579,282,199,143,139,245,615
2017/07/09/10:14:25.713146,193492,1499566465,712853908,0,653,627,264,195,139,127,248,633
2017/07/09/10:14:25.728101,193493,1499566465,727684020,0,653,542,227,161,129,113,175,527
2017/07/09/10:14:25.750418,193494,1499566465,750072002,0,694,545,215,136,146,103,182,611
2017/07/09/10:14:25.772799,193495,1499566465,772505044,0,753,525,240,147,149,103,186,649
2017/07/09/10:14:25.788244,193496,1499566465,787998914,0,792,542,233,138,150,100,198,759
2017/07/09/10:14:25.826653,193497,1499566465,826219081,0,779,544,226,143,147,97,198,742
2017/07/09/10:14:25.832927,193498,1499566465,832679986,0,757,539,224,145,151,97,198,764
2017/07/09/10:14:25.847677,193499,1499566465,847379922,0,703,510,223,144,118,138,189,738
2017/07/09/10:14:25.885909,193500,1499566465,885713100,0,708,587,220,135,114,140,176,761
2017/07/09/10:14:25.893092,193501,1499566465,892719984,0,663,567,215,131,107,137,151,668
2017/07/09/10:14:25.907874,193502,1499566465,907701969,0,640,487,205,122,133,140,136,634
2017/07/09/10:14:25.939816,193503,1499566465,939682960,0,644,498,211,123,145,140,139,612
2017/07/09/10:14:25.953094,193504,1499566465,952912092,0,613,498,223,131,157,91,132,568
2017/07/09/10:14:25.967562,193505,1499566465,967319965,0,602,482,210,132,158,85,141,540
2017/07/09/10:14:25.990143,193506,1499566465,989964008,0,609,488,196,129,162,82,137,506
2017/07/09/10:14:26.013023,193507,1499566466,12671947,0,714,492,194,126,148,81,161,572
2017/07/09/10:14:26.027784,193508,1499566466,27478933,0,704,511,187,119,140,91,162,575
2017/07/09/10:14:26.050019,193509,1499566466,49891948,0,725,541,182,107,117,115,168,616
2017/07/09/10:14:26.072653,193510,1499566466,72407960,0,693,486,178,103,118,116,153,557
2017/07/09/10:14:26.103426,193511,1499566466,103127002,0,663,476,191,101,111,116,157,571
2017/07/09/10:14:26.110450,193512,1499566466,110239028,0,528,442,181,100,118,117,136,534
2017/07/09/10:14:26.133125,193513,1499566466,132735013,0,532,427,185,98,111,111,126,552
2017/07/09/10:14:26.155335,193514,1499566466,155086040,0,527,459,212,113,137,91,123,550
2017/07/09/10:14:26.178107,193515,1499566466,177798032,0,585,540,256,115,136,88,126,616
2017/07/09/10:14:26.192718,193516,1499566466,192521095,0,627,558,248,114,138,88,125,630
