time,.header.seq,.header.stamp.secs,.header.stamp.nsecs,.header.frame_id,.pose.position.x,.pose.position.y,.pose.position.z,.pose.orientation.x,.pose.orientation.y,.pose.orientation.z,.pose.orientation.w,.twist.linear.x,.twist.linear.y,.twist.linear.z,.twist.angular.x,.twist.angular.y,.twist.angular.z,.wrench.force.x,.wrench.force.y,.wrench.force.z,.wrench.torque.x,.wrench.torque.y,.wrench.torque.z
2017/07/09/10:15:47.803273,493247,1499566550,609349748,,0.785835597713,0.392973908351,0.168311068663,0.627392276798,0.775884926718,0.0577343072984,0.0323768631428,0.021001671451,-0.0959887937791,0.0140645156429,-0.0118771576084,-0.00764072310247,-0.144443745111,2.62666654587,1.69264686108,-1.65135228634,-0.742951571941,1.00974106789,0.0755475983024
2017/07/09/10:15:47.813253,493248,1499566550,619348101,,0.78575525581,0.392512962718,0.168294763181,0.627593475919,0.775737158219,0.0576583252653,0.0321528827565,0.0198877950197,-0.0995259417538,7.00877021626e-05,-0.018813259378,-0.00963104475685,-0.134607204134,3.74185276031,3.72376561165,-1.69269037247,-1.75512242317,1.38415193558,-0.136067554355
2017/07/09/10:15:47.823586,493249,1499566550,629344634,,0.78652385371,0.390704178846,0.168600648433,0.628309395711,0.775124245873,0.0575773737936,0.0330840255842,0.0171934055801,-0.0912164817954,-0.00502147097499,-0.0232049805879,0.000759418086894,-0.129982553284,3.96354699135,4.86644697189,-1.60428702831,-2.18583106995,1.51815080643,-0.17724737525
2017/07/09/10:15:47.833165,493250,1499566550,639375372,,0.786351684835,0.390023058216,0.168165476796,0.628761525263,0.774790956377,0.0573139055113,0.0327572053121,0.0253596243312,-0.096793959143,0.00861333658265,-0.0140676366717,-0.0251399470115,-0.151448327959,4.22634506226,5.04070138931,-1.65657949448,-2.2069811821,1.59002637863,-0.137895405293
2017/07/09/10:15:47.843523,493251,1499566550,649346861,,0.786504302401,0.38853443239,0.168030187186,0.62913877324,0.774515145163,0.0565649502971,0.0333331714273,0.0277190533734,-0.12026714064,0.007156421789,-0.0375591701582,-0.0114780995204,-0.163492069218,4.36377286911,5.06044864655,-1.71618402004,-2.06412291527,1.63633394241,-0.0991637259722
2017/07/09/10:15:47.853186,493252,1499566550,659346787,,0.786955728584,0.387920256886,0.167868958194,0.629688732003,0.774048805363,0.0568835274828,0.0332387124724,0.0306594199961,-0.138286214952,0.0106557658215,-0.0798662685042,-0.0229811078987,-0.13833951913,3.92932605743,4.91661262512,-1.73358464241,-1.78143262863,1.48671686649,0.00971625000238
2017/07/09/10:15:47.863451,493253,1499566550,669347163,,0.787301637751,0.386234772394,0.16830599864,0.630294180733,0.773547705884,0.0566247878477,0.0338648173924,0.0397604505608,-0.145199186603,0.0035855759188,-0.0921184290231,-0.0430444610902,-0.136636762592,3.72727251053,5.06793308258,-1.8201597929,-1.93069982529,1.40203821659,-0.115698136389
2017/07/09/10:15:47.873149,493254,1499566550,679349824,,0.787821960845,0.384903816313,0.168333980065,0.630912468684,0.773030131544,0.0566867681837,0.0340658611843,0.0404262249566,-0.132444718545,0.0130771284324,-0.0654636664239,-0.0455299418775,-0.151312436028,2.87564444542,5.15952539444,-2.07516503334,-1.95190346241,1.11695337296,-0.136971130967
2017/07/09/10:15:47.883432,493255,1499566550,689348088,,0.788374362566,0.383489336263,0.16833836841,0.632007620151,0.772106473909,0.0568032314594,0.034515995051,0.0484166707141,-0.11906333701,0.0202684227432,-0.0305448754362,-0.0703342177647,-0.168567752655,2.55756425858,5.59921741486,-2.16176462173,-2.26523065567,0.971926867962,-0.235544770956
2017/07/09/10:15:47.893105,493256,1499566550,699352277,,0.788805918127,0.383461297262,0.168498648494,0.632120336704,0.771966369493,0.0574612323487,0.0344965371329,0.0527126231146,-0.1079835952,0.0158657981921,0.0185724962024,-0.0660158235637,-0.20227510134,3.12516736984,5.99400234222,-2.2169482708,-2.51529550552,1.22576594353,-0.237490862608
2017/07/09/10:15:47.903123,493257,1499566550,709367242,,0.789100143918,0.381381126641,0.168654375884,0.63304748445,0.771215620186,0.0570919310216,0.0348978656225,0.0430950239815,-0.0869177733611,0.00980979088062,0.0313757608772,-0.0472684062482,-0.154137541057,2.65008044243,6.19136476517,-2.07710146904,-2.65595769882,1.02352166176,-0.284003794193
2017/07/09/10:15:47.913597,493258,1499566550,719366132,,0.789938307479,0.380873475845,0.169274813894,0.633575270222,0.770716880276,0.0576786890152,0.0353699908756,0.0293831889887,-0.112584312315,0.00379343933204,0.00236588446582,-0.0138822294156,-0.176819458158,2.52485179901,6.24201726913,-2.08784079552,-2.67207860947,0.989588856697,-0.27287375927
2017/07/09/10:15:47.923252,493259,1499566550,729349976,,0.789725430287,0.379418422813,0.169043981123,0.634188607976,0.770266876335,0.0569029482316,0.0354373139101,0.0419628755646,-0.140562605581,0.0173201889091,-0.0600506513658,-0.0471186358904,-0.16471002991,2.83418941498,6.0860581398,-2.23990154266,-2.45893621445,1.11406648159,-0.193084612489
2017/07/09/10:15:47.933338,493260,1499566550,739353248,,0.790280884917,0.37828534071,0.169204464366,0.634511011796,0.769983707872,0.0567138595559,0.0361165288421,0.0364234654951,-0.145513954111,-0.000294944531842,-0.0786436936635,-0.024768961945,-0.17372098348,2.59608769417,6.14009141922,-2.11726212502,-2.3858165741,1.0349047184,-0.189706906676
2017/07/09/10:15:47.943432,493261,1499566550,749347003,,0.791067935042,0.377436512183,0.16952054021,0.635143039442,0.769398979621,0.0573147946096,0.0365177207034,0.041564981461,-0.116847884543,0.01567604542,-0.04837719538,-0.046380705041,-0.166447151419,2.46593308449,6.13590717316,-2.03627157211,-2.23050284386,1.02138698101,-0.0505695790052
2017/07/09/10:15:47.953308,493262,1499566550,759352364,,0.790924580919,0.375521328955,0.169668395148,0.635695189398,0.768979212325,0.0565814044694,0.0368936560492,0.0432134586253,-0.124149410756,0.00750503811055,-0.0567714995374,-0.0537463968029,-0.160506909957,2.08077383041,6.3025970459,-2.22767663002,-2.3011264801,0.846628546715,-0.14110057056
2017/07/09/10:15:47.963094,493263,1499566550,769346355,,0.791144185416,0.374835710401,0.169202225877,0.636146695058,0.768617012238,0.0564893401166,0.036799800515,0.0329602396108,-0.135262577694,0.0124656593436,-0.0700268778167,-0.0357168669746,-0.152212060221,2.82798933983,6.54151582718,-2.18387889862,-2.42839312553,1.15981841087,-0.178977221251
2017/07/09/10:15:47.973363,493264,1499566550,779351944,,0.791771602216,0.373879337886,0.169762010562,0.636573240002,0.768215347305,0.0567714201704,0.0373723979614,0.0436604013331,-0.146388362986,0.00822477796388,-0.071072128806,-0.0479551537395,-0.16329546068,2.72845554352,6.55593681335,-2.20719075203,-2.39233469963,1.10293519497,-0.135782241821
2017/07/09/10:15:47.983213,493265,1499566550,789344014,,0.791929040847,0.371838211192,0.169296504715,0.638054322024,0.767027331489,0.0563421912077,0.0371660111556,0.0312683191936,-0.124331666526,0.005133344866,-0.0282289929847,-0.0153204175859,-0.175070954574,2.70441532135,6.66106081009,-2.11240172386,-2.44532060623,1.12240862846,-0.156234785914
2017/07/09/10:15:47.993405,493266,1499566550,799367937,,0.792348726132,0.370364186209,0.169380855673,0.638853024261,0.766352704671,0.0561844569014,0.0375985669793,0.0340644057592,-0.135849496253,0.00472760456653,-0.0160255152604,-0.0192978948969,-0.221959932981,2.41281414032,6.73821401596,-2.19077253342,-2.46549582481,0.998206734657,-0.109718412161
2017/07/09/10:15:48.003106,493267,1499566550,809346537,,0.79281241058,0.370105190994,0.169842168662,0.639029897517,0.766152352902,0.056680013226,0.037930704216,0.0331799438859,-0.126114650961,-0.00166836536593,-0.019856615155,-0.0179891819581,-0.198789332699,1.42537760735,7.10957384109,-2.43197631836,-2.67746663094,0.603554904461,-0.194203197956
2017/07/09/10:15:48.013554,493268,1499566550,819351684,,0.793434906834,0.368156823696,0.169874765474,0.639760206664,0.765522465186,0.0564751664323,0.0386366256456,0.0457307378114,-0.115093054494,0.0159301225859,-0.0355612559129,-0.0597157913911,-0.155967570971,1.41442751884,7.54530239105,-2.50532817841,-2.85649108887,0.610858201981,-0.246769547462
2017/07/09/10:15:48.023484,493269,1499566550,829372689,,0.793547054543,0.367472213343,0.169938382291,0.640068607412,0.765271597097,0.0563651852222,0.0386591047093,0.0412389601154,-0.124433938145,0.0189354854072,-0.0431433094241,-0.0621245900155,-0.15540899036,0.934870898724,7.65549278259,-2.59127950668,-2.91880369186,0.459593623877,-0.268683493137
2017/07/09/10:15:48.033455,493270,1499566550,839354762,,0.793688272068,0.366315481755,0.170169031739,0.640561844968,0.764859713654,0.056096153708,0.0390302797795,0.0248299732159,-0.123364828,-0.010241533588,-0.0555882136657,-0.0144725723327,-0.156840560687,0.851065695286,7.51743984222,-2.43830943108,-2.78005886078,0.499291449785,-0.202708929777
2017/07/09/10:15:48.043264,493271,1499566550,849352604,,0.79384129997,0.36520093553,0.169699646733,0.641372476786,0.764188496563,0.0559672723635,0.0390506359267,0.0250109964741,-0.139782106503,-0.00792184943374,-0.0786406586331,-0.0182143693,-0.156624598272,1.24087882042,7.43589258194,-2.26278090477,-2.61066126823,0.693822562695,-0.126473724842
2017/07/09/10:15:48.053086,493272,1499566550,859351219,,0.794250738645,0.363164459452,0.169942667943,0.642105242927,0.76356980351,0.0555550717367,0.0396944099128,0.0162254590138,-0.108441294553,-0.0103159802988,-0.0700913690885,-0.00633922353271,-0.117642394663,1.69013106823,7.64924144745,-2.20615172386,-2.70223140717,0.844432353973,-0.170138373971
2017/07/09/10:15:48.063349,493273,1499566550,869351212,,0.794190350287,0.362505187235,0.16941127957,0.64220042419,0.763524818566,0.0551218798641,0.039623792899,0.0275532418134,-0.122403381821,-0.00257152946852,-0.0620448768615,-0.0152789737456,-0.163566491094,1.54548430443,7.48272132874,-2.08956384659,-2.51418280602,0.771830201149,-0.08212248981
2017/07/09/10:15:48.073320,493274,1499566550,879351998,,0.794415745394,0.362233801735,0.169567383269,0.642367119165,0.763367838011,0.055261463586,0.0397517137837,0.0265460258269,-0.1122076316,0.00836762947668,-0.046206234369,-0.0108007798706,-0.154089479796,0.906095147133,7.75891971588,-2.30333375931,-2.61476826668,0.454728931189,-0.13609020412
2017/07/09/10:15:48.083192,493275,1499566550,889345582,,0.795063346518,0.360118071073,0.169640649594,0.643369986742,0.76249739861,0.0550501578804,0.0405247750087,0.019259097689,-0.104606876612,0.00186532009228,-0.0524743159304,0.00136929191925,-0.141299359934,0.302853405476,7.88301467896,-2.48972201347,-2.68240880966,0.220514625311,-0.134295448661
2017/07/09/10:15:48.093302,493276,1499566550,899355292,,0.795128674038,0.36026955626,0.169546808963,0.643447044064,0.762432183379,0.055191679713,0.0403354152501,0.0232214881718,-0.0938361734331,-0.000530442114726,-0.0442218727078,-0.0210971096785,-0.105624442462,0.0885074734688,8.05038166046,-2.36634540558,-2.73586821556,0.189118370414,-0.154310211539
2017/07/09/10:15:48.103651,493277,1499566550,909350388,,0.795209953189,0.358947126869,0.169193583626,0.643954392413,0.762029070965,0.054774591368,0.0404249877753,0.0325395890241,-0.12216922974,-0.00137047269835,-0.0369389224984,-0.0295023028989,-0.164524737136,-0.0609850734472,8.21353435516,-2.24132180214,-2.98265123367,0.127760887146,-0.26455950737
2017/07/09/10:15:48.113372,493278,1499566550,919374221,,0.795803305609,0.356907552412,0.169744839081,0.645367258162,0.76079277375,0.0549384612883,0.0409539127956,0.0348080471794,-0.144227414122,-0.00125255718985,-0.0508766930191,-0.0236186380198,-0.184185999287,1.77657365799,5.04063367844,-1.31676340103,-1.67079412937,0.86775135994,0.036562025547
2017/07/09/10:15:48.123130,493279,1499566550,929346031,,0.796491887159,0.354281093777,0.170284887814,0.646581655121,0.759739340238,0.0546509799328,0.0417321045336,0.0499898582233,-0.168196850277,0.0250200793111,-0.0228296647145,-0.0599892120929,-0.259139005853,4.44224691391,1.51744616032,-0.403649121523,-0.576988577843,1.75738310814,0.124513268471
2017/07/09/10:15:48.133308,493280,1499566550,939344805,,0.796676118343,0.353499450624,0.170284797997,0.647430091308,0.759033737617,0.0546128282447,0.0414668665121,0.047274366771,-0.199410684199,0.0342026423753,-0.0415505338957,-0.0287016883315,-0.315291285612,6.07754707336,1.36905574799,0.326721101999,-0.992845773697,2.23862481117,-0.0592004656792
2017/07/09/10:15:48.143395,493281,1499566550,949351044,,0.796891412601,0.351737650417,0.170446931561,0.648695488989,0.757976791811,0.0544219884611,0.0412746025178,0.0414219159409,-0.174937898398,0.0244696598825,-0.0226766312614,0.0109333177546,-0.327600937274,4.14699029922,0.579076826572,-0.283232182264,-0.577097177505,1.33810997009,0.0345370620489
2017/07/09/10:15:48.153484,493282,1499566550,959352283,,0.797318682127,0.350663495761,0.170690562338,0.64972456543,0.757068549981,0.0549171908559,0.0411011174513,0.0420246841594,-0.161797481183,0.0238925533074,0.0570952051572,0.00953150720188,-0.353351159811,0.0421490371227,-2.51140737534,-1.23153626919,1.21478199959,-0.292724490166,0.514362096786
2017/07/09/10:15:48.163322,493283,1499566550,969349555,,0.79831820852,0.348669663472,0.171328919671,0.651022582198,0.755876389086,0.0554120994154,0.0418327757758,0.0580955426579,-0.150181015032,0.0461982645204,0.0939224545332,-0.0552832299393,-0.339318669851,-1.84195530415,-4.44848155975,-1.52199661732,2.35071706772,-0.902638614178,0.855208456516
2017/07/09/10:15:48.173335,493284,1499566550,979348385,,0.799127459732,0.346494048636,0.171634105403,0.65180237152,0.755153403475,0.0554976614813,0.0426264620937,0.0898663282917,-0.181352692287,0.0442822527236,0.0522505617658,-0.140281298605,-0.328439530113,-1.32632887363,-3.82285261154,-1.1612226963,1.99077534676,-0.567450404167,0.75274181366
2017/07/09/10:15:48.183276,493285,1499566550,989353086,,0.799680663138,0.345190630625,0.172021437948,0.652578274514,0.75444116713,0.0558344941974,0.0429258689994,0.0927684548121,-0.189197207459,0.0447721393537,-0.024373806889,-0.163961970183,-0.248952122744,2.11427402496,-1.26787626743,-0.441665828228,0.565761804581,0.846852064133,0.391044557095
2017/07/09/10:15:48.193335,493286,1499566550,999351921,,0.800812262869,0.343045343487,0.17291544822,0.653580923564,0.753474636216,0.0561227638222,0.0442513764035,0.0834207656171,-0.181068777797,0.0452165738624,-0.0353799065747,-0.149792384469,-0.215993967749,3.97431707382,0.783928275108,-0.423219293356,-0.624877214432,1.50828969479,0.0490185320377
2017/07/09/10:15:48.203458,493287,1499566551,9355006,,0.801680747922,0.341882302808,0.173371352068,0.654509143847,0.752613392752,0.0570706004933,0.0439750864743,0.08690161853,-0.193869696698,0.0485679227528,-0.00715663570387,-0.136725067462,-0.272472915842,2.47076654434,1.08591532707,-0.850147664547,-0.733145177364,0.800057947636,0.0249356478453
2017/07/09/10:15:48.213524,493288,1499566551,19351949,,0.801643719198,0.340150710615,0.173204711603,0.655626083875,0.751680403807,0.0568668729461,0.0435564855771,0.0824879916533,-0.174297729471,0.0583122175779,0.0635920481947,-0.104232556436,-0.301615062254,1.58415472507,1.17027914524,-1.25971984863,-0.583325088024,0.398928642273,0.114896349609
2017/07/09/10:15:48.223348,493289,1499566551,29354350,,0.803029021883,0.337321024107,0.174030463201,0.657207188502,0.750181172006,0.0576218465444,0.0445717775069,0.0544973809962,-0.180549908511,0.0478733166621,0.0491311579985,-0.0569191100333,-0.313077993688,1.77477228642,0.893888950348,-1.29092311859,-0.375198364258,0.449592292309,0.203682631254
2017/07/09/10:15:48.233384,493290,1499566551,39352218,,0.803616628283,0.33527761372,0.17471750708,0.658187365088,0.749284386434,0.0575999886859,0.0452166118538,0.0709589532601,-0.208702265937,0.0495090547175,0.0368787366641,-0.0943932258769,-0.334927339533,2.49410009384,1.0969851017,-1.3027613163,-0.584944546223,0.689210355282,0.0975519940257
2017/07/09/10:15:48.243360,493291,1499566551,49343466,,0.80425744045,0.333168761998,0.175255524024,0.659373242319,0.748189536125,0.0579518202752,0.0456172322041,0.0621509427197,-0.227323344154,0.045580870627,-0.00591214958121,-0.0809369498159,-0.325301251662,3.29201316833,1.38016569614,-1.25957691669,-0.707358598709,0.989461302757,0.0919967219234
2017/07/09/10:15:48.253326,493292,1499566551,59352253,,0.804319350181,0.330102000684,0.175357652829,0.660666986145,0.747084083774,0.0574326319452,0.0456727268383,0.0619797998037,-0.228785814216,0.0528294354516,-0.00987422117262,-0.093978571796,-0.304391393837,4.06178951263,1.27760624886,-1.19876420498,-0.646664261818,1.27320277691,0.107697568834
2017/07/09/10:15:48.263395,493293,1499566551,69348716,,0.805239476728,0.328986450076,0.176012994896,0.661616432475,0.746152254331,0.058538967096,0.0457569553959,0.0767160978892,-0.238092150199,0.0695510305556,0.0209780610809,-0.129143197698,-0.346914668432,4.33304595947,1.23236370087,-1.39835059643,-0.64018446207,1.36452770233,0.107543319464
2017/07/09/10:15:48.273319,493294,1499566551,79350147,,0.806339006987,0.327243794292,0.176995136204,0.662951455522,0.744847198064,0.0597206121788,0.0461678203817,0.0746984468433,-0.233402219696,0.0671726528676,0.0811415624864,-0.117460309168,-0.385485489745,3.76514291763,1.21183609962,-1.56771111488,-0.576765239239,1.12084984779,0.139439493418
2017/07/09/10:15:48.283326,493295,1499566551,89349403,,0.807222313907,0.324939122767,0.177982128461,0.664346513945,0.743508768858,0.0605094513027,0.0466586148866,0.084923219184,-0.219690214909,0.0744020697155,0.0982567415623,-0.142733987999,-0.358473779927,3.84217715263,1.10364162922,-1.84182679653,-0.517705082893,1.15920758247,0.141010582447
2017/07/09/10:15:48.293390,493296,1499566551,99352234,,0.807937038673,0.322649309115,0.178465776257,0.665621955293,0.742309083814,0.0610733993763,0.0468473756845,0.0895568816497,-0.226398711929,0.0702390306612,0.100050850931,-0.147654483347,-0.382886141023,3.4765150547,1.03507494926,-1.7223495245,-0.544561386108,1.02892756462,0.140324085951
2017/07/09/10:15:48.303182,493297,1499566551,109346124,,0.808738510021,0.320045056163,0.179086897221,0.666837347098,0.741158598037,0.061407986553,0.0473386127704,0.0890871932575,-0.241735423681,0.0682102442555,0.0797252063139,-0.147024808067,-0.399337583657,2.69945764542,0.943147838116,-1.29145157337,-0.525552272797,0.780322611332,0.102441325784
2017/07/09/10:15:48.313046,493298,1499566551,119353450,,0.809767417496,0.317404281096,0.179584071679,0.668583527012,0.739487361091,0.0620971861247,0.0479421491957,0.0751487755287,-0.263017785337,0.0510762992605,0.060795123067,-0.109581570476,-0.428007419864,2.45716714859,0.562202215195,-0.885391056538,-0.379684209824,0.735166490078,0.134564265609
2017/07/09/10:15:48.323369,493299,1499566551,129347845,,0.810462839028,0.315456192923,0.180586993745,0.669820244029,0.738285085573,0.0627330283232,0.0483791304894,0.0855872847259,-0.261005015341,0.0613888296646,0.0636700610006,-0.137082335813,-0.421707979832,2.83486628532,0.165504783392,-0.781847119331,-0.0947929471731,0.903595924377,0.254967987537
2017/07/09/10:15:48.333206,493300,1499566551,139352298,,0.811296904449,0.312938078367,0.180615433577,0.671373490647,0.73680973493,0.0633864884188,0.0484892117346,0.0897284059036,-0.240594098567,0.0785848719425,0.0723123236361,-0.155133707002,-0.391857081623,2.59378027916,0.035370349884,-0.930472910404,-0.0220003351569,0.739041745663,0.245809048414
2017/07/09/10:15:48.343780,493301,1499566551,149348969,,0.812086061479,0.310540232515,0.181410712404,0.672492291376,0.735723953082,0.0638033716666,0.0489235389585,0.0823464973371,-0.25795449302,0.0575942995664,0.0533788398795,-0.122578613053,-0.389390842439,2.67094635963,-0.109874784946,-0.883458852768,-0.0673183053732,0.692126572132,0.241355210543
2017/07/09/10:15:48.353276,493302,1499566551,159349667,,0.81280882601,0.308077363887,0.181999967848,0.673988709914,0.73429529905,0.0641728023899,0.0493100814643,0.0761858468675,-0.27580653723,0.0540191439622,0.0509979574779,-0.10538927827,-0.412423660821,2.51850581169,0.103359282017,-0.984714150429,-0.251002192497,0.614284574986,0.147620081902
2017/07/09/10:15:48.363435,493303,1499566551,169352975,,0.813685449311,0.304901024521,0.182498285118,0.675329988503,0.733002407518,0.0644197949695,0.0498695018733,0.0830108163606,-0.267367277707,0.0535318422958,0.0290639768195,-0.123644271518,-0.383064708681,2.31551456451,0.267372906208,-0.990929663181,-0.386920332909,0.518919169903,0.115138426423
2017/07/09/10:15:48.373292,493304,1499566551,179352221,,0.814114858626,0.302283723622,0.183075454238,0.676805160709,0.731574343972,0.0650020679697,0.0500847765158,0.0871565675206,-0.31513797635,0.0614492666965,0.013618044343,-0.140927385412,-0.44273327439,2.86729955673,0.488301277161,-1.08406627178,-0.503659665585,0.736438930035,0.094562202692
2017/07/09/10:15:48.383375,493305,1499566551,189352133,,0.814938090836,0.298869491411,0.183403887343,0.678785389629,0.729680275094,0.0651960177856,0.0506613287411,0.0761432877582,-0.283424592864,0.0703057068061,0.0591001858846,-0.135087972651,-0.424516655621,2.09547328949,0.238515436649,-0.949008285999,-0.389548897743,0.464746206999,0.107166588306
2017/07/09/10:15:48.393385,493306,1499566551,199344371,,0.815772139918,0.295907576045,0.183974567102,0.680034469586,0.728447327361,0.0656240891428,0.0510988293289,0.0783865323917,-0.294516075006,0.0617927680908,0.0573733776953,-0.134296945542,-0.441245550504,1.66135573387,0.276261031628,-0.831895232201,-0.388280332088,0.295499503613,0.130971223116
2017/07/09/10:15:48.403314,493307,1499566551,209344692,,0.816539534527,0.293092101901,0.184858771237,0.681666640973,0.726834547538,0.0661715181089,0.0516087326164,0.0778417710759,-0.311001975202,0.06176218408,0.030713532468,-0.132090968068,-0.435803637631,1.99455761909,0.134403586388,-0.939893722534,-0.32308486104,0.431863635778,0.143341600895
2017/07/09/10:15:48.413415,493308,1499566551,219351758,,0.817327497598,0.290339899016,0.185377432356,0.683271885387,0.725237459543,0.0667734063757,0.052071778498,0.0709565778523,-0.316490786748,0.0492458147448,0.030714820928,-0.112557535307,-0.450779481435,2.07388782501,0.224842488766,-0.826014399529,-0.380245566368,0.470339387655,0.128461882472
2017/07/09/10:15:48.423243,493309,1499566551,229346660,,0.818352567035,0.287604778453,0.185828887271,0.684752632374,0.72372687069,0.0675511869326,0.0526316087752,0.0718737971111,-0.295068896922,0.0552582454148,0.0638356205955,-0.119336695858,-0.453048008223,1.75723946095,0.117011189461,-0.827859163284,-0.35746049881,0.332396924496,0.130836993456
2017/07/09/10:15:48.433544,493310,1499566551,239353115,,0.818571142131,0.283902555424,0.186149011087,0.686317646408,0.722238783254,0.0673810761052,0.0529057537014,0.0807950087563,-0.319611045476,0.0588273099291,0.0349618582122,-0.145711813403,-0.468099248301,1.35532295704,-0.150323867798,-0.771212875843,-0.305610328913,0.223106607795,0.134571239352
2017/07/09/10:15:48.443385,493311,1499566551,249351952,,0.819102225827,0.280635527545,0.186283000421,0.688128547169,0.720479896817,0.0674384690163,0.0532904658479,0.0665390533621,-0.331210625946,0.0399823028068,0.0248285079823,-0.111957721959,-0.468590991614,1.29900240898,-0.0104543268681,-0.792041957378,-0.320743441582,0.164837390184,0.154435321689
2017/07/09/10:15:48.453290,493312,1499566551,259351995,,0.81948061009,0.278309379942,0.187053531137,0.689379756389,0.719230450443,0.0678770155194,0.0534398858658,0.0654515600404,-0.340647396432,0.0465663405903,0.0208815238472,-0.111063716406,-0.491178932188,1.29509079456,0.121433317661,-0.585999310017,-0.401823759079,0.154659315944,0.0695774778724
2017/07/09/10:15:48.463471,493313,1499566551,269349569,,0.820533859362,0.273738121609,0.187440576412,0.691633849162,0.716955455065,0.0680965887931,0.054592570382,0.0588197395402,-0.334082423337,0.0486605598995,0.00602013767582,-0.0996960988847,-0.452199531548,0.832953572273,-0.326030999422,-0.553720116615,-0.198422640562,-0.0369065888226,0.166249290109
2017/07/09/10:15:48.473396,493314,1499566551,279345395,,0.821176211966,0.271762684245,0.187710674367,0.692277779974,0.716245582992,0.0687331003199,0.0549499874272,0.0563650128875,-0.347941282974,0.0456495839008,-0.0107659877794,-0.0992713567871,-0.453269059272,0.495964884758,-0.151374056935,-0.456495702267,-0.274243414402,-0.166023343801,0.116121888161
2017/07/09/10:15:48.483106,493315,1499566551,289345571,,0.821613024183,0.267694480485,0.188114077138,0.693920621371,0.71461592545,0.0686593525202,0.0555350667597,0.0497082040098,-0.335622226205,0.0408671858669,-0.014799148443,-0.0904138401061,-0.430676018345,0.43977367878,-0.413969367743,-0.479671627283,-0.214045122266,-0.176448553801,0.13760112226
2017/07/09/10:15:48.493344,493316,1499566551,299344497,,0.821693943334,0.264285506992,0.18839877765,0.695926322067,0.712662827928,0.0686544735407,0.055541076764,0.0504463595904,-0.363543773875,0.0392347111929,-0.00264219490376,-0.0903241954607,-0.488353059671,0.179356515408,-0.449503600597,-0.334183782339,-0.167378634214,-0.260882139206,0.139496266842
2017/07/09/10:15:48.503389,493317,1499566551,309351929,,0.822289468327,0.260400575136,0.188598396775,0.697999867123,0.710568412017,0.0689207318392,0.0560236562829,0.0331257769551,-0.355677724383,0.0231419992869,0.0264915946906,-0.0497255483727,-0.502631508577,0.422463744879,0.761089682579,-0.283103078604,-0.870638370514,-0.195866167545,-0.0708341151476
2017/07/09/10:15:48.513256,493318,1499566551,319352688,,0.822669923075,0.257820996806,0.189455718634,0.698813785708,0.709694505838,0.0691206484978,0.0567039437739,0.0477351737447,-0.336613813557,0.0423235003333,0.0218558530824,-0.100755080354,-0.487831430622,0.365741103888,1.6390748024,-0.0167183876038,-1.31418097019,-0.197266325355,-0.181625202298
2017/07/09/10:15:48.523383,493319,1499566551,329346222,,0.823100689776,0.253770197091,0.189630024857,0.700579942901,0.707910566151,0.0690965762453,0.0572366760762,0.0429526356605,-0.34401090001,0.0567313285044,-0.0202555139345,-0.105183979579,-0.453743998942,-0.245070785284,1.65571701527,-0.22512729466,-1.26784825325,-0.460397005081,-0.142253383994
2017/07/09/10:15:48.533432,493320,1499566551,339351690,,0.823368424215,0.250697664687,0.189709090066,0.701939685093,0.706536817243,0.0690489795999,0.0576076625793,0.0285185873834,-0.358277043957,0.0281296337054,-0.0184982570667,-0.0637840453088,-0.468110656497,-1.09443998337,1.0165719986,-0.353184878826,-0.893486976624,-0.799131691456,-0.0202359110117
2017/07/09/10:15:48.543497,493321,1499566551,349363957,,0.823048353308,0.247331225052,0.189666380812,0.703414017638,0.705116642964,0.0685203908771,0.0576558378618,0.0176094207401,-0.370075835499,0.023309857643,-0.0319360772739,-0.0438983107322,-0.476102923181,-2.14888143539,0.105779975653,-0.396003752947,-0.359306931496,-1.14996635914,0.170909941196
2017/07/09/10:15:48.553263,493322,1499566551,359352676,,0.8236104564,0.243229411465,0.190289837131,0.705284026588,0.703148633957,0.0684754732451,0.0588859063506,0.0301611806464,-0.410948044366,0.0209212579667,-0.0965417112267,-0.07112679038,-0.48850106545,-2.22766637802,-0.500577807426,-0.175446212292,0.0102379918098,-1.15244328976,0.321857690811
2017/07/09/10:15:48.563191,493323,1499566551,369344990,,0.823550253896,0.238984170095,0.19021862019,0.706912666206,0.701527590028,0.0677472728393,0.0595300748334,0.0326001568886,-0.410550896438,0.0326202808368,-0.118044908498,-0.0923140366193,-0.50377495046,-2.55794739723,-0.813031315804,0.00666240602732,0.133393347263,-1.24920845032,0.341499090195
2017/07/09/10:15:48.573360,493324,1499566551,379344378,,0.824551357726,0.234532602793,0.191301621442,0.708591264415,0.699663696355,0.0681812281337,0.0609955090812,0.0213564036406,-0.427563444957,0.0295098581641,-0.154504766521,-0.0760253306594,-0.490232147074,-3.08822703362,-0.769028544426,0.103620871902,0.00426660478115,-1.49767696857,0.2404640764
2017/07/09/10:15:48.583201,493325,1499566551,389352479,,0.824390161972,0.231109548126,0.190919371073,0.709902616926,0.698352574879,0.067516112148,0.0615104075914,0.0354459655453,-0.450993123492,0.0391299329038,-0.152123025998,-0.107127049691,-0.527691450218,-3.34975075722,-0.158504337072,-0.148939341307,-0.289918601513,-1.53921079636,0.127609163523
2017/07/09/10:15:48.593396,493326,1499566551,399351016,,0.824439775621,0.226520409913,0.190576090481,0.711892334993,0.696321542682,0.0668984971906,0.0622109608463,0.0172216803528,-0.429218603437,0.0154109802402,-0.126067621369,-0.0614701854913,-0.527548111162,-3.89514422417,0.268363803625,0.0232796892524,-0.509420394897,-1.6920440197,0.0158972144127
2017/07/09/10:15:48.603232,493327,1499566551,409352966,,0.825018008348,0.223516721148,0.191141819868,0.71360298846,0.694461861204,0.0672476368056,0.0630178826798,0.0140439782694,-0.398999526393,0.00525198165713,-0.0873136571101,-0.051796082182,-0.508868800102,-3.97996234894,0.552511036396,0.376708090305,-0.52701485157,-1.62349665165,0.0368666574359
2017/07/09/10:15:48.613275,493328,1499566551,419370398,,0.825229734533,0.219085180046,0.191048828596,0.715561357956,0.692395451722,0.0668960038806,0.0639171815748,0.0415573658149,-0.397658254116,0.028752312264,-0.103527307319,-0.133223086852,-0.535530241894,-4.82102394104,0.491867303848,0.591928601265,-0.459987014532,-1.84135150909,0.0610165148973
2017/07/09/10:15:48.623631,493329,1499566551,429344216,,0.82576249439,0.214427039644,0.19221798321,0.716861710088,0.690915662971,0.0667058505957,0.0655375065646,0.0357289410602,-0.436944289241,0.0391650289033,-0.142340337461,-0.139528510148,-0.563511810325,-4.77536201477,0.13566981256,0.909870624542,-0.303513288498,-1.72245907784,0.0859347432852
2017/07/09/10:15:48.633156,493330,1499566551,439353475,,0.826037124207,0.210537479026,0.191964002112,0.718866932452,0.68876995881,0.0666249658448,0.0662373851615,0.0252460707524,-0.436535006348,0.0299900691913,-0.120525223903,-0.114716316375,-0.578563666172,-5.9775428772,-0.20920804143,0.991931200027,-0.00643287599087,-2.12196111679,0.105645641685
2017/07/09/10:15:48.643326,493331,1499566551,449345208,,0.826336241158,0.206961616532,0.192370883734,0.720412592313,0.687067313578,0.0667658929214,0.0669814824488,0.0120584390394,-0.435400492046,0.0193275626642,-0.0968096945036,-0.0784914864457,-0.551528111991,-6.01252508163,-0.00247068703175,0.885617494583,0.0456913039088,-2.13910388947,0.110609292984
2017/07/09/10:15:48.653851,493332,1499566551,459344595,,0.82604285169,0.203285805133,0.192360865543,0.72246413494,0.684940579697,0.0665430424812,0.0668879623478,0.0108970534836,-0.402477085854,0.0236619875983,-0.0395807515703,-0.0719397753989,-0.537864960309,-5.24601078033,0.106414042413,0.826119959354,-0.0331810042262,-1.82484555244,0.0371428132057
2017/07/09/10:15:48.663592,493333,1499566551,469344130,,0.825419097994,0.198491665154,0.192032507915,0.724903899312,0.682443868441,0.0659273286307,0.0666204963119,-0.00155473633675,-0.408195707874,0.0157610490421,0.00588751917131,-0.0507590086388,-0.589279499595,-5.79279851913,0.100692659616,0.272874832153,-0.0323361717165,-2.05965399742,0.090907856822
2017/07/09/10:15:48.673331,493334,1499566551,479370842,,0.826198970703,0.195574594598,0.192793484087,0.725960589102,0.681156856007,0.0665945123087,0.0676145806373,0.000998365109818,-0.404855947207,0.00952181070642,0.0259350738252,-0.0439692496715,-0.602883967542,-5.9027557373,0.686949670315,0.594668924809,-0.314669400454,-2.12622404099,-0.0111655322835
2017/07/09/10:15:48.683391,493335,1499566551,489346098,,0.826030767471,0.192236611034,0.192895234282,0.727593729876,0.679397880891,0.0667338415922,0.0676201010912,0.0026396003776,-0.366867276799,0.00955939887618,0.0374097021636,-0.0441668760791,-0.519351034863,-6.58108949661,0.809781432152,0.712792217731,-0.451385468245,-2.38317704201,-0.0729093775153
2017/07/09/10:15:48.693244,493336,1499566551,499351820,,0.826546426773,0.188609324212,0.19301882673,0.729332331755,0.677442117571,0.0669923706516,0.068253567473,0.00692448081002,-0.377800992192,0.0134194800046,-0.000206551681072,-0.058388372085,-0.509132436114,-7.77211284637,0.893106102943,0.923685967922,-0.528575539589,-2.86528682709,-0.114586159587
2017/07/09/10:15:48.703271,493337,1499566551,509351918,,0.826846842003,0.184601748511,0.193164647372,0.731351923693,0.675184761582,0.0673425450133,0.0686650061495,0.0239226174036,-0.343441718797,0.0185237962904,0.00784826732368,-0.0935336908943,-0.463589769213,-7.81305456161,0.279928863049,1.01412689686,-0.403256356716,-2.79948163033,-0.108065292239
2017/07/09/10:15:48.713266,493338,1499566551,519352650,,0.826838553678,0.181821719407,0.193750623279,0.732346463474,0.674079679683,0.0673031479145,0.0689603448082,0.0193252411145,-0.383245511378,0.0175861744919,0.00790391636137,-0.0932788952489,-0.508539353477,-7.54435300827,0.51283121109,1.0950460434,-0.274785637856,-2.71510672569,-0.0260524079204
2017/07/09/10:15:48.723346,493339,1499566551,529345950,,0.826747319131,0.178430670727,0.193152852048,0.733658029955,0.672662600775,0.0670216632597,0.0691304365393,0.00716085704424,-0.365577965992,0.00836232307209,0.00225631679679,-0.0539049752009,-0.486353793147,-7.70366048813,-0.107944950461,0.603253304958,-0.101263202727,-2.81326270103,0.0334269069135
2017/07/09/10:15:48.733368,493340,1499566551,539352079,,0.827468062477,0.174929474192,0.193495471169,0.735501850181,0.670521431594,0.0678230001136,0.0695562995687,0.00496479581083,-0.362465001113,0.012230143188,0.0176378008683,-0.0493927362914,-0.480094962017,-7.71687078476,0.335432052612,0.594199180603,-0.179050266743,-2.9391014576,-0.0112038590014
2017/07/09/10:15:48.743372,493341,1499566551,549350438,,0.826795512586,0.171517448103,0.193463930908,0.737103342573,0.668840643786,0.067173794818,0.0694156817839,0.0243590392493,-0.346407142981,0.00636729530011,0.0238360982265,-0.0726664998464,-0.478354360001,-7.76011419296,0.437109440565,0.390891075134,-0.292200803757,-2.91093659401,-0.00112089049071
2017/07/09/10:15:48.754714,493342,1499566551,559351839,,0.827238849783,0.168328037764,0.193190083217,0.738685351846,0.667036734622,0.0676200413721,0.0695232021525,0.00231445992235,-0.370190314273,0.00563365431278,0.0104483020756,-0.0358535485811,-0.505955439661,-7.78642177582,0.825223088264,0.437976807356,-0.499014467001,-2.97638177872,-0.105120830238
2017/07/09/10:15:48.763118,493343,1499566551,569347635,,0.827488882645,0.164266529957,0.193475675967,0.740497891818,0.664942351593,0.0677161074579,0.0702073362425,0.0111915386138,-0.359750743135,0.00310039552289,0.0300273756948,-0.0502556460617,-0.496423049684,-8.01075267792,0.261305630207,0.798247337341,-0.270279973745,-3.12162041664,0.0131865423173
2017/07/09/10:15:48.773451,493344,1499566551,579349657,,0.827861676712,0.16172301731,0.193701359545,0.741548851887,0.663709164756,0.0680575370693,0.0704529384226,0.0199256890093,-0.346137488309,0.00344141512973,0.0360903870779,-0.0677559647075,-0.475075693883,-7.86199855804,1.06365382671,0.713393747807,-0.538143575191,-3.1351685524,-0.091107070446
2017/07/09/10:15:48.783253,493345,1499566551,589365437,,0.82785854735,0.15764579428,0.193731625002,0.743285054171,0.661732831464,0.0679969554379,0.0708053815749,0.0196291295499,-0.348477438915,0.0110762662397,0.0318880748215,-0.0729425331498,-0.466454761819,-8.25941371918,0.196575179696,0.565104484558,-0.277465224266,-3.32312464714,-0.00430612266064
2017/07/09/10:15:48.793313,493346,1499566551,599349705,,0.828368257277,0.153666692612,0.194211608624,0.744860870472,0.659820370254,0.0684535116116,0.0716483034421,0.0179331897877,-0.360854354598,0.00767503647897,0.0274511411914,-0.0627299392933,-0.495619748411,-8.00091266632,0.0430916324258,0.233608484268,-0.173707515001,-3.29759788513,0.0621166229248
2017/07/09/10:15:48.803097,493347,1499566551,609347751,,0.828597636776,0.150501947302,0.194415838772,0.746322960103,0.658136662037,0.0685723563359,0.0718053288555,0.0260627643081,-0.351673930858,0.0168973924118,0.0210767410403,-0.0846233234922,-0.472013862246,-7.67830085754,0.0626160427928,0.074579693377,-0.169452533126,-3.19084024429,0.0498698763549
2017/07/09/10:15:48.813342,493348,1499566551,619352131,,0.829010164422,0.148571948384,0.194142883198,0.747383618105,0.656896253469,0.068921473706,0.0717974235553,0.0427355803598,-0.333237779157,0.00666171716355,0.0454567250787,-0.116231853164,-0.469029446023,-8.00933361053,0.504409313202,-0.00135279633105,-0.226524814963,-3.38509917259,0.0752919688821
2017/07/09/10:15:48.823421,493349,1499566551,629343389,,0.829447838229,0.145034086865,0.194358015737,0.748999171078,0.654942235782,0.0694337085681,0.0723178375583,0.0471731018767,-0.344035840702,0.0127229934069,0.0202107152586,-0.122486689731,-0.477293749098,-8.6427936554,0.204055964947,-0.125237867236,-0.0436224266887,-3.69387793541,0.157978266478
2017/07/09/10:15:48.833548,493350,1499566551,639353039,,0.829549390202,0.142001634393,0.193625997242,0.750560644634,0.653181470507,0.0693466860809,0.0721368313881,0.0383804712417,-0.326113611399,0.016721515691,0.0208521027444,-0.0987212474353,-0.451932193599,-9.29015636444,0.044107042253,-0.610705673695,-0.0880214422941,-3.99586963654,0.140022039413
2017/07/09/10:15:48.843089,493351,1499566551,649346478,,0.830221329473,0.139122081279,0.193998808839,0.751678516922,0.651795310738,0.0698453679032,0.0725527716953,0.0227221792037,-0.319552771203,-0.0125368935986,0.0462718811872,-0.0360744058012,-0.47012163463,-8.83026885986,0.229201078415,-0.56589859724,-0.178332239389,-3.94232320786,0.12934049964
2017/07/09/10:15:48.853419,493352,1499566551,659352658,,0.83028985242,0.135416398772,0.194129469658,0.75344106636,0.649735789828,0.0697558370362,0.0728291572027,0.0423568877642,-0.311387467671,0.0084972958866,0.0160466634588,-0.080363026239,-0.428042669232,-9.00611305237,-0.131510466337,-0.790752232075,-0.0916868746281,-4.01917695999,0.163441210985
2017/07/09/10:15:48.863270,493353,1499566551,669351381,,0.83044688152,0.133544460586,0.193704743682,0.754526047122,0.64852777784,0.0698688809635,0.072253062618,0.0362816306894,-0.298714428195,-0.0123731002853,0.0478010242586,-0.0463023198657,-0.425686163165,-9.29876899719,0.303083360195,-0.47554141283,-0.139616787434,-4.15073871613,0.192331284285
2017/07/09/10:15:48.873293,493354,1499566551,679349078,,0.831057540695,0.129572311401,0.193637250457,0.756079368348,0.646627837219,0.0701080552209,0.0728099545761,0.0410540266381,-0.295752146532,0.00239662078289,0.0467518112899,-0.0599908450609,-0.421896812291,-9.37350654602,0.0627200528979,-0.476856589317,-0.231756001711,-4.21466827393,0.142767712474
2017/07/09/10:15:48.883169,493355,1499566551,689349507,,0.831222356626,0.127361713585,0.193449342991,0.757362463274,0.645180738497,0.0698766107454,0.0725339449284,0.0462142017163,-0.295041025117,-0.0064663955809,0.0644195130468,-0.0594459901461,-0.42367777058,-9.86981487274,0.988592624664,-0.562406659126,-0.37054130435,-4.39279508591,0.134922102094
2017/07/09/10:15:48.893247,493356,1499566551,699361508,,0.831893104722,0.12526214565,0.194186887065,0.758435999306,0.643820773734,0.0706118124174,0.0726885012336,0.0218216364832,-0.303068945704,-0.0223785353477,0.0644679208232,0.0236004006982,-0.430808665756,-9.61688327789,0.881782829762,-0.339538633823,-0.370637536049,-4.31357622147,0.122602924705
2017/07/09/10:15:48.903147,493357,1499566551,709345977,,0.831980853588,0.120900014754,0.193625236103,0.760132975621,0.641849640722,0.0701428458199,0.0728483305108,0.0210699242224,-0.293289318297,-0.0141702593613,0.08082755084,0.0244371755805,-0.436653274307,-9.63595581055,0.578412950039,-0.768765509129,-0.327897489071,-4.33608961105,0.137052029371
2017/07/09/10:15:48.913301,493358,1499566551,719344079,,0.832734004946,0.118798078734,0.193732845694,0.761225582664,0.640515588671,0.070436514725,0.0728978076462,0.0228633292011,-0.29422813027,-0.0189937230699,0.0553249658134,0.0385920640452,-0.418707718074,-8.82433509827,0.384125173092,-0.497100681067,-0.176070302725,-4.04119873047,0.169261485338
2017/07/09/10:15:48.923264,493359,1499566551,729345524,,0.832202108445,0.116209867487,0.193016011039,0.76261047118,0.639077070099,0.0695836530099,0.0718601624978,0.0174826100701,-0.283363101259,-0.0245640083837,0.0804786449483,0.0660196214767,-0.423115709985,-7.79552412033,0.77083081007,-1.18180561066,-0.291484594345,-3.6203315258,0.110405519605
2017/07/09/10:15:48.933520,493360,1499566551,739352597,,0.832279374556,0.113738085034,0.192597476103,0.763809242478,0.637759191383,0.0692579394033,0.0711476826094,0.0217917590761,-0.293928340794,-0.00351467711963,0.0527395303167,0.0608241765004,-0.415135556881,-8.09958839417,0.510477662086,-1.06103396416,-0.231130093336,-3.72261285782,0.152003228664
2017/07/09/10:15:48.943453,493361,1499566551,749346955,,0.832375636404,0.111401916762,0.192275695362,0.765032547803,0.636412127117,0.068954252913,0.0703570626609,0.00463623154417,-0.282930578771,-0.0161862755044,0.0761264014751,0.118846762168,-0.417577102644,-7.41229343414,0.658047258854,-1.35458660126,-0.195867627859,-3.49621701241,0.115516543388
2017/07/09/10:15:48.953393,493362,1499566551,759353625,,0.832132341585,0.108448073063,0.192098526131,0.766602273075,0.63465917066,0.0684323837219,0.0696110686003,-0.00294970950764,-0.248923129927,-0.0286161849303,0.11248188617,0.159050763406,-0.376455300434,-8.32133197784,0.553052008152,-0.934376835823,-0.246939331293,-3.86393070221,0.132738485932
2017/07/09/10:15:48.963452,493363,1499566551,769351939,,0.832135172642,0.106617495709,0.191785958846,0.767687589528,0.633518040241,0.068015414277,0.0684438528624,-0.000115650346324,-0.271136469901,-0.0167554894318,0.104526780306,0.154845134204,-0.420054497562,-8.06691360474,0.827864646912,-0.761390805244,-0.304294019938,-3.71864557266,0.108922570944
2017/07/09/10:15:48.973255,493364,1499566551,779352884,,0.832299412573,0.103764701664,0.192341831207,0.76946006604,0.631416783307,0.0681039561373,0.0678668084285,-0.00499348347626,-0.264485803466,-0.0246012697934,0.123114980978,0.182265855309,-0.425624790641,-8.06278324127,0.740919589996,-0.221781119704,-0.306902140379,-3.63811135292,0.0831539034843
2017/07/09/10:15:48.983476,493365,1499566551,789369890,,0.832600947259,0.102151985402,0.19198608727,0.770404580944,0.630398833953,0.0677410886852,0.0669719098944,-0.00164143240656,-0.260507154003,-0.0152539216258,0.138083857719,0.172995047735,-0.442632963907,-7.81188011169,1.10367596149,-0.8864107728,-0.39250856638,-3.56496429443,0.0843868851662
2017/07/09/10:15:48.993327,493366,1499566551,799353369,,0.831414629855,0.0983183967845,0.191318210565,0.772104843931,0.628635901219,0.0659928458227,0.0656959509956,-0.0273847663275,-0.259958175677,-0.0261168940071,0.125002866848,0.243299655048,-0.415565501308,-7.23457765579,0.523832798004,-1.22636020184,-0.274960279465,-3.2807161808,0.0847617089748
2017/07/09/10:15:49.003472,493367,1499566551,809347302,,0.831931918837,0.0963743017285,0.191110551567,0.773014726103,0.627597797693,0.0657636780445,0.0651488772634,-0.0390007006201,-0.259049260847,-0.0275423656917,0.113912394152,0.273190097115,-0.398591357966,-6.91018867493,0.557281553745,-1.06106948853,-0.19682097435,-3.25284433365,0.132583320141
2017/07/09/10:15:49.013340,493368,1499566551,819364802,,0.830897582112,0.0942412815282,0.190484588412,0.77447547861,0.626124308928,0.0644428485897,0.0632708627009,-0.0397005342164,-0.257492052237,-0.0275859487091,0.124194390157,0.286469237292,-0.412221157837,-6.02692842484,0.680149972439,-1.0937371254,-0.230564534664,-2.82167506218,0.0848434790969
2017/07/09/10:15:49.023220,493369,1499566551,829349796,,0.830625974007,0.0914376113766,0.190302861553,0.77582070546,0.624645360995,0.0636360022607,0.0622162774837,-0.0142935213193,-0.244921846421,-0.00346331477994,0.117429393956,0.230634447297,-0.395015501663,-6.62852573395,0.41045832634,-0.966052055359,-0.196365833282,-3.05993103981,0.104204803705
2017/07/09/10:15:49.033279,493370,1499566551,839352510,,0.830767735589,0.0885334696501,0.190436229128,0.777433435031,0.622747947591,0.0633768728953,0.0613646465731,-0.029315675824,-0.247260593698,-0.0168189725662,0.140901063135,0.270698805153,-0.393656750771,-6.60089731216,0.447338700294,-0.749644219875,-0.276495844126,-3.11112904549,0.0859811902046
2017/07/09/10:15:49.043564,493371,1499566551,849348544,,0.830717903921,0.0860687573023,0.190919788452,0.778621623027,0.621397765668,0.0626413591705,0.0607391562174,-0.0296910432439,-0.242737218306,-0.0141102509004,0.149412026723,0.281674292386,-0.391584667788,-6.02608203888,0.949026048183,-0.735557198524,-0.421784281731,-2.92251110077,0.0303034372628
2017/07/09/10:15:49.053211,493372,1499566551,859364896,,0.830128137778,0.0844254969362,0.190002372044,0.780063862919,0.619869442691,0.0618571547281,0.0586168593005,-0.032209503621,-0.240371276909,-0.0340183470909,0.142672634361,0.296366091547,-0.413049640679,-5.1031627655,0.979135036469,-1.21806192398,-0.405925095081,-2.52842831612,0.0138965249062
2017/07/09/10:15:49.063307,493373,1499566551,869355259,,0.830199963236,0.0823671212319,0.189800298681,0.781238939472,0.618529532587,0.0614880021313,0.0574992379502,-0.0250976666337,-0.234129506151,-0.0263944281795,0.155674531835,0.274383327727,-0.39860093423,-3.44910097122,0.8207269907,-0.840014100075,-0.348450303078,-1.83158683777,0.00794047117233
2017/07/09/10:15:49.073521,493374,1499566551,879345074,,0.829782434189,0.07950293106,0.190002843974,0.78271610682,0.616829587929,0.0605500832496,0.0566607712508,-0.00128091941742,-0.245782618546,-0.00119420699227,0.124400250254,0.209317957844,-0.428792377792,-2.60781741142,0.278763562441,-0.743118882179,-0.17439070344,-1.39377689362,0.063944414258
2017/07/09/10:15:49.083082,493375,1499566551,889347338,,0.830129777171,0.0776533905505,0.190504516332,0.783624028235,0.615793365539,0.0601490227954,0.0558033008597,-0.0206295708689,-0.240652695366,-0.00979833947352,0.133238479021,0.256931001494,-0.407308356312,-3.65804171562,0.555334031582,-0.615538775921,-0.21894146502,-1.767162323,0.0505499131978
2017/07/09/10:15:49.093114,493376,1499566551,899347835,,0.829345214343,0.0750090966683,0.18980559543,0.785051509261,0.614224919999,0.0589184159127,0.0543184657904,-0.0315664953712,-0.232567840923,-0.00973488810131,0.126558176136,0.291313714812,-0.388790351219,-4.05271863937,0.14139020443,-0.526777029037,-0.166027963161,-1.83958184719,0.0716130286455
2017/07/09/10:15:49.103355,493377,1499566551,909348584,,0.829004886013,0.0730252198382,0.189470504754,0.786362501459,0.612764067095,0.0579815366094,0.0528427458533,-0.0335312369009,-0.236427966647,0.00378683621155,0.115245731848,0.285468481333,-0.36777252238,-4.18654918671,0.260207414627,-0.611533284187,-0.142236858606,-1.83251023293,0.0714020803571
2017/07/09/10:15:49.113139,493378,1499566551,919351925,,0.82941620724,0.0711423030316,0.189881107471,0.787271060743,0.611677580928,0.0578381223743,0.0520534869721,-0.0349255225191,-0.224368472491,-0.0092270124754,0.119751511375,0.301417622386,-0.37181291584,-2.75091743469,0.0139319188893,-0.292181283236,-0.027503143996,-1.32241916656,0.0696665123105
2017/07/09/10:15:49.123337,493379,1499566551,929347384,,0.828471038711,0.0697664154664,0.189519590039,0.78822923101,0.610753834855,0.0563599839826,0.0499798439087,-0.0321198072975,-0.224231265643,-0.00799159672744,0.120146667803,0.29804997364,-0.367050993228,-1.79247164726,0.0812264755368,-0.599407792091,0.00868540257215,-0.926043450832,0.0714349523187
2017/07/09/10:15:49.133168,493380,1499566551,939353032,,0.828638572088,0.06649822135,0.190450191148,0.789707136927,0.608898804548,0.0559079040354,0.0497914648617,-0.0436635928737,-0.223656166535,0.000647436385114,0.111296130985,0.324095024413,-0.370020512758,-0.849457919598,-0.430866152048,-0.0924575775862,0.092098236084,-0.616356611252,0.0588826499879
2017/07/09/10:15:49.143031,493381,1499566551,949345758,,0.827720478726,0.0652651292127,0.189499152205,0.790665175127,0.607969428239,0.054245615234,0.0477406367422,-0.03686666467,-0.226630662924,0.0116542403291,0.116598138173,0.302641381159,-0.367265354076,-1.17953038216,0.146164447069,-0.629733741283,-0.0537625029683,-0.675068736076,0.0571957267821
2017/07/09/10:15:49.153290,493382,1499566551,959349702,,0.827670698797,0.0628412335106,0.18948308105,0.79160516418,0.606882120606,0.0533906369138,0.0469552512712,-0.0463065773662,-0.225018897077,-0.00134398292939,0.099378334223,0.327149501448,-0.356903393318,-0.753534495831,0.315135419369,-0.526571631432,-0.163410007954,-0.510244131088,-0.0177087113261
2017/07/09/10:15:49.163656,493383,1499566551,969347931,,0.827349962957,0.0602681953291,0.190074719544,0.793654256698,0.604333195629,0.0530508985586,0.0456060483695,-0.0234061117245,-0.217547244377,0.00382251276321,0.108812875606,0.277564333774,-0.360918694665,-0.560846865177,-0.202144235373,-0.00295700877905,-0.0700975358486,-0.336145699024,0.00435653328896
2017/07/09/10:15:49.173450,493384,1499566551,979344341,,0.826801623806,0.0585137091585,0.189765023719,0.794419002185,0.603535255994,0.0519377041006,0.0441148346134,-0.0455427516899,-0.23236970807,0.0103558186678,0.141169721023,0.310462451382,-0.416698132038,-0.709528446198,-0.107995793223,-0.00360061903484,-0.121946617961,-0.339050859213,-0.0346228256822
2017/07/09/10:15:49.182918,493385,1499566551,989346851,,0.826956716674,0.0568563485186,0.190284286712,0.795311601226,0.602465746154,0.0514635349208,0.0431970628518,-0.0377387167356,-0.2090406421,0.02644729845,0.142509703779,0.294105746643,-0.388966999187,0.163105994463,0.50634354353,0.253159612417,-0.245032712817,-0.0362292677164,-0.0559531003237
2017/07/09/10:15:49.193422,493386,1499566551,999350004,,0.826495513136,0.055062320784,0.190715690017,0.796408751557,0.601183067137,0.0505751209395,0.0418829007225,-0.0352190313822,-0.19725422744,0.0180340381523,0.130112554756,0.295357533703,-0.353745793497,-0.393326461315,0.249195441604,0.30306905508,-0.129322126508,-0.328807204962,0.0322069749236
2017/07/09/10:15:49.203462,493387,1499566552,9345701,,0.825840153723,0.0526710065325,0.190444609454,0.797678055997,0.599687697537,0.0493780270018,0.0405733268742,-0.0358568077285,-0.207426464896,0.0243261336983,0.106624209177,0.29289986637,-0.3448669498,0.397418111563,-0.339334815741,0.0572234466672,-0.02868469432,0.0526386648417,-0.0179649926722
2017/07/09/10:15:49.213332,493388,1499566552,19365147,,0.825841472011,0.0506329406485,0.190742823952,0.798900250206,0.598171895836,0.0489652043858,0.0393850480627,-0.0302805456096,-0.20402569696,0.0251827890703,0.129646831616,0.267666688363,-0.35158439747,2.03185033798,-0.544978439808,0.299716383219,0.0417159050703,0.6474635005,-0.00705128861591
2017/07/09/10:15:49.223440,493389,1499566552,29356541,,0.825233288628,0.0489093432129,0.190655254884,0.799989433732,0.596883333669,0.0481271164556,0.0378281980506,-0.0308836727621,-0.173226860255,0.0347811364054,0.141472127961,0.267213809014,-0.317438462401,2.63512253761,-0.690399050713,0.0829130709171,0.0919762700796,0.907758116722,-0.0106443027034
2017/07/09/10:15:49.234313,493390,1499566552,39365739,,0.825822811661,0.047168986014,0.191716335746,0.801046154077,0.59546657925,0.0483900894893,0.0374567920913,-0.0173431325468,-0.178736828218,0.0393922940794,0.149523540909,0.218615136761,-0.329658204399,3.55539417267,-0.828422486782,0.513718545437,0.191239833832,1.28334903717,-0.00589343905449
2017/07/09/10:15:49.243307,493391,1499566552,49357410,,0.825702561164,0.0461876672047,0.191930731784,0.801938215615,0.594391940034,0.0478281532211,0.0361356848283,-0.00890196057465,-0.179211612267,0.0432512599153,0.153674076333,0.190033095318,-0.33792079611,3.16667795181,-0.451168209314,0.11131735146,0.128103122115,1.19301784039,-0.00374572072178
2017/07/09/10:15:49.253483,493392,1499566552,59353979,,0.825408837786,0.0441808879049,0.192654070389,0.803120612745,0.592885379679,0.0474358191394,0.0351290621847,-0.00908049065863,-0.179649300574,0.0508137878316,0.15832458073,0.181611417516,-0.361593575983,3.8896241188,-0.611597299576,0.646838366985,0.155819475651,1.52655625343,-0.00670813210309
2017/07/09/10:15:49.263298,493393,1499566552,69364134,,0.825187554224,0.0425425908227,0.192707553267,0.804063572102,0.591710899284,0.0470022787577,0.0339229933719,-0.0159617128071,-0.154649247408,0.0421876906885,0.186261887923,0.198431871891,-0.352235188316,5.09912061691,-1.11006748676,0.628374695778,0.301824241877,2.00649094582,0.0157415419817
2017/07/09/10:15:49.273366,493394,1499566552,79349824,,0.825694445225,0.0412080598179,0.193975422695,0.805012162985,0.590428791371,0.0472393003226,0.033432144274,-0.00422721887097,-0.163259326001,0.0631862221286,0.140155499489,0.165701057881,-0.340064223305,5.4198012352,-1.53353011608,0.924651324749,0.463390260935,2.05457925797,0.0508153140545
2017/07/09/10:15:49.283366,493395,1499566552,89347006,,0.825116966119,0.0396702336006,0.194267199987,0.806049913529,0.589147860887,0.046390935629,0.0321903091654,-0.0180742186144,-0.175801604495,0.0580495540791,0.135012745368,0.18255007501,-0.346272212529,6.23638105392,-1.40122210979,0.78221654892,0.443174183369,2.37697768211,0.0288680102676
2017/07/09/10:15:49.293457,493396,1499566552,99365159,,0.825404942646,0.0372762367325,0.195230337113,0.807130697345,0.587661441835,0.0466140919449,0.0319561201633,-0.0152017257232,-0.160292152235,0.0398744465622,0.163557911071,0.176532118653,-0.335683438068,6.48383426666,-2.42162632942,1.14423751831,0.671338319778,2.48566389084,0.0682633593678
2017/07/09/10:15:49.303572,493397,1499566552,109352686,,0.825411510668,0.0367831638482,0.194851265474,0.807772281664,0.586871900844,0.0463692190638,0.0305811788067,-0.00157841981701,-0.170006493994,0.0514790791348,0.120389448605,0.129419356855,-0.329143830548,6.88413763046,-1.16775596142,0.903140187263,0.400806427002,2.6060116291,0.0363191254437
2017/07/09/10:15:49.313226,493398,1499566552,119349023,,0.825104417173,0.0353662602838,0.195458433878,0.808816868082,0.585510810459,0.0459563410317,0.029671189062,0.00602227606013,-0.138243145892,0.0472782240311,0.144670221766,0.112173322638,-0.302453993296,7.69196128845,-1.51248705387,1.41231107712,0.523609936237,3.02772331238,0.0615167096257
2017/07/09/10:15:49.323107,493399,1499566552,129351036,,0.825592652058,0.0332791142288,0.196457237795,0.809865945781,0.584024422432,0.046462864995,0.0295605487668,-0.00255752514979,-0.147512453699,0.0586705304225,0.150113612491,0.101995614339,-0.318028942393,8.73383045197,-2.54313492775,1.82511019707,0.816290974617,3.43183732033,0.1227408126
2017/07/09/10:15:49.333213,493400,1499566552,139352581,,0.825296049017,0.0331205930126,0.196181255071,0.810294480074,0.583556063174,0.0457810577851,0.0280939752006,-0.0126751428333,-0.157122191539,0.03589590417,0.115840734738,0.143418462638,-0.30866164332,11.6574621201,-2.62156391144,2.3774394989,1.07729256153,4.54255867004,0.185824230313
2017/07/09/10:15:49.343585,493401,1499566552,149350536,,0.824991216894,0.0304425021492,0.196464059714,0.811497386288,0.581936679553,0.0454223045235,0.0275410110573,-0.0110377329501,-0.123557186951,0.0338761300346,0.15066537065,0.148837925844,-0.267167583189,13.1740942001,-4.31182289124,2.18819713593,1.45936083794,5.12889385223,0.203745633364
2017/07/09/10:15:49.353455,493402,1499566552,159351984,,0.824498260205,0.0295986170174,0.196436528546,0.812548364338,0.580564654412,0.0451317506511,0.0259415254487,-0.0226194029122,-0.156277759112,0.0391237560619,0.136310108113,0.147954475046,-0.290514741334,10.6157178879,-2.96140050888,1.32891798019,1.08205139637,4.03410482407,0.169074252248
2017/07/09/10:15:49.363493,493403,1499566552,169345617,,0.82467230527,0.0283403893961,0.197034027835,0.813143166489,0.57974100544,0.0452094411369,0.0255863994419,-0.0348854516953,-0.163316728592,0.0328814400828,0.114903827684,0.159196910128,-0.313760807949,9.55519866943,-2.93669605255,2.24789309502,1.04271233082,3.61351275444,0.149642050266
2017/07/09/10:15:49.373451,493404,1499566552,179348899,,0.824548622926,0.0264881653454,0.197820145401,0.814324041209,0.578100377741,0.0451480111308,0.02525799389,-0.0306800151129,-0.152971449658,0.0396844621076,0.113256514725,0.135596473743,-0.313455945392,10.2447528839,-2.51447439194,2.35473227501,0.901355564594,3.91650223732,0.128356680274
2017/07/09/10:15:49.383481,493405,1499566552,189352292,,0.824240691963,0.0249671834862,0.197826776041,0.814893218365,0.577358276177,0.044740457498,0.0245917680413,-0.0206331710282,-0.14536899073,0.0432393728061,0.100268244996,0.105447530745,-0.280423336111,10.178358078,-2.77234482765,2.41460180283,1.03305149078,3.9498193264,0.192185282707
2017/07/09/10:15:49.393006,493406,1499566552,199345310,,0.823354168674,0.0235151878132,0.197582693002,0.815872717905,0.576069806743,0.0442589704656,0.0231609471154,-0.019023514396,-0.13908823988,0.0324948761559,0.125298361379,0.0947861849183,-0.27326458546,10.5088090897,-3.15673303604,1.78288793564,1.12026929855,4.20723342896,0.175350576639
2017/07/09/10:15:49.403581,493407,1499566552,209369073,,0.823630628342,0.0230368484808,0.198689267902,0.816287686237,0.575472594657,0.0445266524012,0.0228710148979,-0.0408002680737,-0.142858826571,0.0207378212831,0.108873943755,0.146199889117,-0.27860086509,12.7665510178,-3.11412286758,2.89853739738,1.28103768826,4.97797775269,0.250162869692
2017/07/09/10:15:49.413195,493408,1499566552,219364179,,0.823081656387,0.0218785160164,0.198352401815,0.816998945376,0.574550144562,0.0439078118211,0.0218393841524,-0.0496971779636,-0.142389515892,0.0164367037852,0.102400600514,0.165094598595,-0.28259095551,14.5161552429,-2.84934616089,2.04005503654,1.38769948483,5.57610654831,0.256766140461
2017/07/09/10:15:49.423208,493409,1499566552,229350457,,0.823087411883,0.0205564005172,0.198998741893,0.817636683818,0.573644856293,0.0439050998191,0.0217755443857,-0.0526504655623,-0.140360760502,0.0124029494363,0.101767706866,0.168206151415,-0.247247265003,13.5193023682,-2.88749909401,1.8257869482,1.32578098774,5.09374237061,0.242260783911
2017/07/09/10:15:49.433244,493410,1499566552,239361186,,0.821967487501,0.0186764760351,0.198686862906,0.818738093756,0.572181964298,0.0429852012236,0.0206883068398,-0.0367442473363,-0.154232958486,0.0366755346967,0.0730369697411,0.101166401871,-0.258541503438,12.8539552689,-2.95497107506,2.21880483627,1.20754635334,4.78562927246,0.203184112906
2017/07/09/10:15:49.442908,493411,1499566552,249349120,,0.821768923689,0.0170056468597,0.199629329919,0.819517802951,0.571061612696,0.0430736540011,0.020587993624,-0.0483796357845,-0.156785986236,0.0414115695894,0.0725949264101,0.110460248364,-0.281062752071,12.7574701309,-2.98013591766,2.57104539871,1.03146862984,4.79067850113,0.161611750722
2017/07/09/10:15:49.453401,493412,1499566552,259351489,,0.821183149079,0.0161477265466,0.198996516204,0.820013139829,0.570446213539,0.0421112487627,0.0199050419415,-0.0523703703533,-0.164120239697,0.0251303539577,0.0427457703104,0.122791780618,-0.279407707031,12.9267749786,-3.08694887161,2.80797028542,1.06765723228,4.90627861023,0.16881775856
2017/07/09/10:15:49.463443,493413,1499566552,269349919,,0.820951069365,0.0144227809082,0.199049412385,0.820573089896,0.569661744215,0.0418833762924,0.0197758465278,-0.040319158857,-0.15189593122,0.0141487030014,0.0101940804233,0.109349673554,-0.238726324435,12.950214386,-3.204028368,2.66341686249,1.13723421097,5.00639533997,0.162992283702
2017/07/09/10:15:49.473213,493414,1499566552,279348746,,0.820416905002,0.012196642887,0.199337644683,0.821302724015,0.568645706975,0.0413027342216,0.0199494263025,-0.0288565879793,-0.151645068005,-0.00575587490848,-0.000231599608286,0.0873189161463,-0.214777995335,13.6123743057,-3.49422049522,2.59040856361,1.35978031158,5.3368897438,0.226938694715
2017/07/09/10:15:49.482973,493415,1499566552,289377917,,0.819803085115,0.00996274031046,0.198850231644,0.822311756384,0.567237899544,0.0407099030881,0.0196785269691,-0.0531337110581,-0.185830035484,-0.00969654089058,-0.0434168603814,0.1245524017,-0.255518281633,14.2787075043,-3.59399342537,2.49536418915,1.50456166267,5.64185237885,0.208413138986
2017/07/09/10:15:49.493252,493416,1499566552,299350007,,0.81866706299,0.00822098493094,0.198823670043,0.822847068301,0.566569906512,0.0393587730773,0.0192906766309,-0.0638698537431,-0.195178452222,-0.0185855654141,-0.0607811216224,0.14233994407,-0.260065835672,14.3050918579,-3.79327845573,2.52987289429,1.66758286953,5.6789727211,0.237046912313
2017/07/09/10:15:49.503254,493417,1499566552,309347319,,0.818075009756,0.00625168876356,0.198575311407,0.823853574476,0.565151148684,0.0386658947754,0.0193498203002,-0.0847946482191,-0.204070018464,-0.0246957911424,-0.0637399209196,0.18571647583,-0.268533254179,12.2382259369,-4.15589380264,2.19073748589,1.82675147057,4.8173289299,0.222580373287
2017/07/09/10:15:49.513211,493418,1499566552,319350566,,0.817231337156,0.00451059552146,0.198308568318,0.824321312361,0.564534668078,0.0378539941282,0.0190278126564,-0.0856401328996,-0.200292673191,-0.0264909915894,-0.0586636638164,0.176338812993,-0.236601498527,10.0919075012,-4.37748908997,2.00044560432,2.08370518684,3.8929605484,0.274107158184
2017/07/09/10:15:49.523344,493419,1499566552,329351441,,0.816532364958,0.00204377717506,0.198468747535,0.825024142135,0.563545358089,0.0370830125555,0.0194073298077,-0.075007892743,-0.21687275752,-0.00376621315511,-0.0813053851281,0.120080419519,-0.251588082276,9.04507160187,-4.67414188385,1.74298977852,2.06670284271,3.48410177231,0.245347291231
2017/07/09/10:15:49.533181,493420,1499566552,339386356,,0.815978903475,0.000586973084431,0.197899170246,0.825646294267,0.562670514727,0.0366632708797,0.0191283347059,-0.0850864679078,-0.193060317181,-0.035361659197,-0.064642492043,0.167690847304,-0.23232025678,8.90794563293,-4.25784921646,1.6047911644,1.81132817268,3.42984414101,0.196421906352
2017/07/09/10:15:49.543097,493421,1499566552,349344146,,0.815545652419,-0.00101147579241,0.197760119101,0.826243460493,0.561819941207,0.0362147493222,0.0191986870919,-0.0718902824462,-0.187429717944,-0.0355537904467,-0.059553610454,0.131746949532,-0.230589348394,10.4915933609,-4.01486730576,1.67963171005,1.60622012615,4.04753160477,0.191370815039
2017/07/09/10:15:49.553618,493422,1499566552,359351574,,0.814834719799,-0.00290891840668,0.196804007009,0.826700905594,0.561205265705,0.0352491614646,0.0192810542076,-0.077016961599,-0.202186293967,-0.0412877300981,-0.0944393290039,0.132682633594,-0.229067028424,10.6114082336,-3.37992858887,1.82121598721,1.27951669693,4.18624305725,0.117062211037
2017/07/09/10:15:49.563250,493423,1499566552,369352094,,0.814192779882,-0.00558858598477,0.196897139333,0.82752355301,0.560008759755,0.0345495025704,0.0200322261413,-0.0601658884797,-0.185317682719,-0.0555257949237,-0.109250437683,0.108503473214,-0.194081404499,11.1721525192,-3.10822677612,1.83603620529,1.08382129669,4.45430612564,0.0700180381536
2017/07/09/10:15:49.573112,493424,1499566552,379349781,,0.812993845288,-0.00776365364575,0.195504495316,0.828296444718,0.558961663257,0.0331070042882,0.0197682812751,-0.0776882066106,-0.209548921003,-0.0670566070072,-0.115716582889,0.129419516631,-0.22382813258,9.47907066345,-2.34445643425,1.75561380386,0.87369287014,3.79966616631,0.0332675352693
2017/07/09/10:15:49.583138,493425,1499566552,389382039,,0.812523231644,-0.00925759197023,0.194979519407,0.828592313802,0.558553391603,0.0322885571704,0.020256735027,-0.0635978317921,-0.225580679273,-0.0476658794396,-0.184005881302,0.0863950732845,-0.216228976569,8.97694778442,-2.15986537933,1.89451706409,0.858654618263,3.61148643494,0.0198743995279
2017/07/09/10:15:49.593190,493426,1499566552,399352523,,0.811634594457,-0.0115659534399,0.194433219137,0.829430404528,0.557346125484,0.0315287830352,0.0204067707767,-0.0663346467441,-0.224868880915,-0.0676182715859,-0.174129732712,0.0842005911421,-0.211637723609,8.20718955994,-2.19319534302,2.04671168327,0.975904226303,3.31075572968,0.0390171185136
2017/07/09/10:15:49.603350,493427,1499566552,409348470,,0.8109658221,-0.0142083766193,0.194165484737,0.829884216804,0.556678763268,0.0307671978523,0.0213148014873,-0.0806997847769,-0.247184735397,-0.0717688657164,-0.166059597627,0.0920767126425,-0.254430567198,7.63500356674,-2.29950547218,1.95579624176,1.06800496578,3.10607933998,0.018397629261
2017/07/09/10:15:49.613453,493428,1499566552,419352050,,0.810687296337,-0.0150539682424,0.192978352561,0.83024834869,0.556158257745,0.0304889913921,0.0211209195854,-0.0678090408982,-0.203949444874,-0.0664847459508,-0.153169558835,0.0866889465994,-0.186122746312,7.22119092941,-2.23899054527,2.00470542908,1.00561249256,2.98208475113,0.0475163459778
2017/07/09/10:15:49.623374,493429,1499566552,429348978,,0.80979294886,-0.0167388781914,0.19213714215,0.830654556478,0.555595376798,0.0297291850435,0.0210466301222,-0.079158128929,-0.205696120125,-0.0668862985544,-0.106627822506,0.0893014071299,-0.216610984144,8.92119121552,-2.82898378372,2.39648246765,1.17984962463,3.61348986626,0.0456437841058
2017/07/09/10:15:49.633284,493430,1499566552,439352596,,0.809094994993,-0.0186082961374,0.191667208733,0.831149431071,0.554880451566,0.0290846393014,0.0212694959336,-0.0911630470117,-0.205126099165,-0.0837283319087,-0.105709712449,0.128679373376,-0.205859678996,10.7485790253,-3.56481838226,2.93546748161,1.4159719944,4.36189746857,0.0590607076883
2017/07/09/10:15:49.643229,493431,1499566552,449348385,,0.808105659876,-0.020613801194,0.191024707265,0.831885703438,0.553819207615,0.0281562528466,0.0213936233148,-0.0888091782289,-0.183633130282,-0.0820944566786,-0.0837444664459,0.132668987498,-0.185759405258,10.6670017242,-3.43143606186,2.86575245857,1.30466103554,4.30170345306,0.054461710155
2017/07/09/10:15:49.653454,493432,1499566552,459348718,,0.80722838198,-0.0223674545609,0.189890353988,0.832244770874,0.553321087282,0.0274380854676,0.0212501103181,-0.095652284317,-0.188599979374,-0.0868887943975,-0.0573988867611,0.13643262438,-0.208029271277,10.518245697,-3.48925232887,2.73909044266,1.29663407803,4.19140148163,0.0171491876245
2017/07/09/10:15:49.663315,493433,1499566552,469356959,,0.806896190657,-0.0242550393513,0.189450320868,0.832891134263,0.552350041782,0.0269235447554,0.0218383274676,-0.0892386974275,-0.179259760051,-0.0945929534945,-0.0653447414078,0.1413324505,-0.182900045718,10.2045717239,-3.36646771431,2.71448659897,1.32923126221,4.06956863403,0.0202130004764
2017/07/09/10:15:49.673219,493434,1499566552,479345108,,0.80554025032,-0.0263038063852,0.188486825859,0.833211355838,0.551927988977,0.0258966756607,0.0215335476869,-0.059758916427,-0.169730446938,-0.0735799458499,-0.0814747329255,0.0737780685306,-0.167292769257,9.79882526398,-3.42929267883,2.77913880348,1.36245834827,3.99399971962,-0.00769940018654
2017/07/09/10:15:49.682963,493435,1499566552,489353071,,0.805050317779,-0.0270519228252,0.187724236248,0.833535352122,0.5514702406,0.0254513377342,0.0212513506184,-0.073626501005,-0.177169199715,-0.0696776838816,-0.0570538478945,0.0834135639622,-0.165655255659,10.4642658234,-3.68114566803,3.04189515114,1.47059118748,4.28776741028,0.00263171643019
2017/07/09/10:15:49.693168,493436,1499566552,499349318,,0.804164608442,-0.0296988527096,0.186764538886,0.83438141513,0.550203613098,0.025140278858,0.0212509905317,-0.06170732259,-0.14223128161,-0.0725152335158,-0.0174101274349,0.0709545410218,-0.120125004088,10.8599824905,-3.71878457069,2.94401836395,1.44872629642,4.44172954559,-0.0412047021091
2017/07/09/10:15:49.703799,493437,1499566552,509349658,,0.803849190803,-0.0302980357402,0.186218063967,0.834753013081,0.549647190973,0.0252016063381,0.0209821744747,-0.064101093391,-0.16411718819,-0.0805138533637,-0.00133904571782,0.0547012718598,-0.18689496202,11.8486127853,-4.14131450653,3.01743292809,1.69113743305,4.79898738861,0.00951723754406
2017/07/09/10:15:49.713372,493438,1499566552,519349982,,0.803496803169,-0.0314768385946,0.185431944726,0.835233900112,0.54892042512,0.0254824077258,0.0205267115427,-0.0528141157809,-0.149116211166,-0.0733082454737,-0.00144817858433,0.0360732048182,-0.178878061346,8.64347267151,-4.50411653519,2.14665961266,1.50759959221,3.65327358246,0.00575832277536
2017/07/09/10:15:49.723123,493439,1499566552,529346118,,0.803328155142,-0.0343451587728,0.185562221652,0.83589576431,0.547857878083,0.025452888795,0.0219583032794,-0.0441977464375,-0.132301068682,-0.0666959513963,0.0429538795451,0.0102597642658,-0.174221798633,8.84368991852,-4.96147012711,2.63756918907,1.62065756321,3.69074940681,0.00783944129944
2017/07/09/10:15:49.733279,493440,1499566552,539346808,,0.802840116187,-0.0335876824042,0.184429401196,0.835861159623,0.547970337558,0.0254368489076,0.0204352075621,-0.0233792386352,-0.125702059612,-0.0578522974848,0.0398110081991,-0.0392504651493,-0.181032107437,8.65609359741,-3.632833004,2.16306781769,1.26418960094,3.65966296196,0.00662992149591
2017/07/09/10:15:49.743053,493441,1499566552,549348339,,0.802109267978,-0.0356882167385,0.183302719571,0.836834627808,0.54649285809,0.0254532510429,0.0201368758406,-0.0474515995294,-0.127917917866,-0.0712006720107,0.0384508012571,0.0278152706018,-0.202228940222,8.39503955841,-3.69589948654,1.6909891367,1.16469025612,3.62694787979,-0.0385106876493
2017/07/09/10:15:49.753373,493442,1499566552,559347312,,0.801818733478,-0.0370929061506,0.183076613828,0.837301058546,0.54576969136,0.0252844241668,0.0205688902361,-0.061133934821,-0.158043081062,-0.0765962077918,0.0169521764595,0.0414028192959,-0.210906376564,9.48445034027,-3.79120874405,2.2500193119,1.27857720852,3.98224139214,-0.0150180459023
2017/07/09/10:15:49.763148,493443,1499566552,569347395,,0.801656106603,-0.038612944784,0.182811249189,0.83772634222,0.54509696294,0.0254272010829,0.0209125318965,-0.0549199804952,-0.148287739755,-0.0714354849944,0.0140319414447,0.0323016722312,-0.195103014786,9.08163070679,-3.59697508812,2.28467512131,1.21090090275,3.78417944908,-0.0306452214718
2017/07/09/10:15:49.773338,493444,1499566552,579363960,,0.800781491216,-0.040154544716,0.181852951623,0.838137022721,0.544496249086,0.0251418896483,0.020446301891,-0.0575237645399,-0.153306195325,-0.0648628052835,0.0220348834098,0.0228953387267,-0.209376556411,9.2035446167,-3.85351538658,2.3555059433,1.27778863907,3.87755918503,-0.0285894945264
2017/07/09/10:15:49.783017,493445,1499566552,589351598,,0.800769705251,-0.0407671295663,0.181668442842,0.838423421741,0.544033032475,0.0257056776961,0.0203333122418,-0.0464934102119,-0.134612893319,-0.0556085086403,0.0342733811766,0.00124808750565,-0.180558787914,8.76737499237,-3.42885875702,2.22206401825,1.2568590641,3.62225389481,-0.00212273001671
2017/07/09/10:15:49.793138,493446,1499566552,599353868,,0.800681368598,-0.0423011934912,0.180824460487,0.838757883516,0.543502377732,0.0256027457268,0.0208537202853,-0.024653628115,-0.112636417064,-0.0571312741509,0.0240985150419,-0.0263121473746,-0.130820222363,8.85577106476,-3.85505318642,2.2477915287,1.30988526344,3.69244241714,-0.0137824192643
2017/07/09/10:15:49.803483,493447,1499566552,609350220,,0.799724307176,-0.0430619077106,0.180009183802,0.839082431899,0.543048502736,0.02534755482,0.0199122479684,-0.046968560062,-0.152983130007,-0.0650604695783,-0.00596575059018,0.00340311163416,-0.152990698552,9.09004020691,-3.42711901665,2.43620848656,1.20670247078,3.80182003975,-0.0430063419044
2017/07/09/10:15:49.813325,493448,1499566552,619355552,,0.800043071584,-0.0441067956085,0.179765389714,0.839284115102,0.542689500101,0.0260266365908,0.0203198131289,-0.0473553598094,-0.123607788683,-0.0615296797579,0.0293044939441,0.0178699435059,-0.131768043533,9.20227909088,-3.57158946991,2.17448496819,1.21725010872,3.81491017342,-0.0466493032873
2017/07/09/10:15:49.823349,493449,1499566552,629345981,,0.799270901153,-0.0450719295598,0.178992752959,0.839709880351,0.54207322896,0.0254657047023,0.0198854009296,-0.0374547247858,-0.115150140888,-0.0587908975718,0.0162497933167,0.00763639127875,-0.151474382964,8.83905887604,-3.36265993118,2.31472826004,1.01627600193,3.73025250435,-0.0748067051172
2017/07/09/10:15:49.833005,493450,1499566552,639364385,,0.798371586683,-0.0477683069593,0.178538985603,0.840740187561,0.540468983499,0.0253214280257,0.0202000044119,-0.0320738185848,-0.111845833533,-0.0610084474106,0.0183526707901,-0.00508885420372,-0.145196098984,9.47326946259,-3.76182413101,2.40467429161,0.937463581562,4.11839818954,-0.102685824037
2017/07/09/10:15:49.843856,493451,1499566552,649353618,,0.798423392221,-0.0481763705645,0.177913726581,0.840814272768,0.540347842298,0.0255444354055,0.0200761015666,-0.0326175245765,-0.12754585023,-0.0569124177597,0.0115356741231,-0.0212851745987,-0.166199766767,10.0795068741,-2.83857154846,2.62650752068,0.71560639143,4.30629301071,-0.114191249013
2017/07/09/10:15:49.853529,493452,1499566552,659346127,,0.798265381993,-0.0492260387178,0.177019240714,0.841360091369,0.539492915666,0.0254721435257,0.0202918826615,-0.0449619720894,-0.139413830659,-0.0691035897511,0.0020694104353,0.00875861518705,-0.177955814384,9.71082115173,-2.67956447601,2.7614338398,0.675265371799,4.12974071503,-0.118922755122
2017/07/09/10:15:49.863309,493453,1499566552,669367628,,0.798203701986,-0.049983617953,0.177139582123,0.841433164803,0.539358424047,0.025859801935,0.0203467496817,-0.0269706649981,-0.105517409274,-0.0556907189716,0.0108269841362,-0.0133563192267,-0.141838645549,8.56207942963,-2.59804749489,2.85747027397,0.64706748724,3.72703385353,-0.122948296368
2017/07/09/10:15:49.873437,493454,1499566552,679353521,,0.796983200634,-0.0516634895556,0.176096788516,0.841911291586,0.538658903574,0.0253099867109,0.0197830046523,-0.0308955780781,-0.114190175677,-0.0425185338908,0.000374217043665,-0.0159814617255,-0.132171005619,7.4173169136,-3.16134786606,2.38110756874,0.894580721855,3.29786515236,-0.0594239160419
2017/07/09/10:15:49.883199,493455,1499566552,689351745,,0.796862735618,-0.0526735589204,0.175748518002,0.84228858986,0.538052265764,0.0256159125972,0.0198372306528,-0.054926147339,-0.117874256507,-0.0566494368022,0.0266578145132,0.0343589054617,-0.128432412426,7.07152366638,-2.93844842911,2.1072075367,0.954039871693,3.07913517952,-0.0716194063425
2017/07/09/10:15:49.893322,493456,1499566552,699352437,,0.796445563195,-0.0532548536478,0.176017137295,0.842551325017,0.537652585485,0.0254838715099,0.0196858915487,-0.0439041271735,-0.0789657064547,-0.0523826144579,0.0334582987971,0.0444624064392,-0.0880752963189,8.22951793671,-3.31861758232,2.85290169716,1.11199617386,3.51581740379,-0.0386337786913
2017/07/09/10:15:49.903285,493457,1499566552,709379032,,0.79669132078,-0.0535993806479,0.175396615279,0.842607289754,0.537530408682,0.0261918123162,0.0196978162245,-0.042261370986,-0.0980204521206,-0.0337262053532,0.0172657964702,0.0141534574519,-0.117632081923,8.94655799866,-3.38449382782,2.80914735794,1.16040313244,3.75579357147,-0.0377378836274
2017/07/09/10:15:49.913444,493458,1499566552,719352600,,0.795766368346,-0.0547155038501,0.175044275269,0.84335940501,0.536384399925,0.025890550829,0.0191407647881,-0.0361482362854,-0.0894842687175,-0.0418627675211,0.0504541493274,0.000288125650799,-0.131927690235,8.45336151123,-3.49540805817,2.57972931862,1.18205022812,3.60201239586,-0.00979755818844
2017/07/09/10:15:49.923361,493459,1499566552,729351926,,0.795486898081,-0.0555692551595,0.174129008108,0.843389416551,0.536347209325,0.0256955901692,0.0191232775615,-0.0391180687099,-0.0923475459845,-0.0480050777142,0.0301389960751,0.0155289661471,-0.131886301875,7.72731208801,-2.97692847252,2.38164973259,0.935032606125,3.36621832848,-0.0685289949179
2017/07/09/10:15:49.933144,493460,1499566552,739350456,,0.795252858943,-0.0561991359917,0.173501393359,0.843669593966,0.535904401375,0.0260997204667,0.0186250744022,-0.0285896029925,-0.0972054557343,-0.0407958593005,0.00346498911379,-0.0071181820146,-0.107072470376,6.68618297577,-2.70270347595,2.08429765701,0.803631901741,2.95781064034,-0.0486681908369
2017/07/09/10:15:49.943396,493461,1499566552,749347833,,0.79520685572,-0.0574848504001,0.173761650364,0.843880422943,0.535556570591,0.0256953691241,0.0196147769911,-0.011636321207,-0.0565798218299,-0.0386503904819,0.0317415975732,-0.0178215589912,-0.0738869397832,6.13509511948,-2.89778423309,2.63801264763,0.808453500271,2.69222164154,-0.0425596833229
2017/07/09/10:15:49.953508,493462,1499566552,759351491,,0.795055766736,-0.0579004576119,0.173198800356,0.844193218112,0.535053498683,0.0261933693682,0.0192216399202,-0.0168672607203,-0.0671003606738,-0.0377336190684,0.00785674823333,-0.0130420131029,-0.0837867986903,6.37241601944,-2.60177326202,2.00419640541,0.641062021255,2.55290794373,-0.0727220326662
2017/07/09/10:15:49.963348,493463,1499566552,769352115,,0.795253660514,-0.0587985498838,0.173163098553,0.844397303329,0.534694603006,0.026540540674,0.0197604491,-0.0130660813574,-0.0929647400968,-0.0286966674857,-0.0160286054547,-0.0481466967666,-0.117789687277,7.14077568054,-2.71886587143,2.40349149704,0.719811558723,2.69417142868,-0.0480860993266
2017/07/09/10:15:49.973195,493464,1499566552,779353183,,0.795604317116,-0.0594905698517,0.172927237988,0.84463567001,0.534270837619,0.0270144334129,0.0203832628494,0.00419224800875,-0.0920114363287,-0.0359676795134,-0.0145714364224,-0.0871122622622,-0.104958540765,8.56687164307,-3.17242240906,2.14453554153,0.962678134441,3.19522547722,-0.0299548171461
2017/07/09/10:15:49.983351,493465,1499566552,789349579,,0.795850402739,-0.0595898023049,0.172234905513,0.844567395287,0.534366010732,0.0272098537178,0.0204574009479,0.0129568539894,-0.0651825012254,-0.0313372580943,-0.0184188228922,-0.0847305644278,-0.0923305555516,8.05058765411,-2.85440707207,2.0541369915,0.883733093739,3.04087615013,-0.0493917018175
2017/07/09/10:15:49.993133,493466,1499566552,799353294,,0.79572442179,-0.0607138571635,0.172145026977,0.844885058294,0.533844478228,0.027126509665,0.0210585804528,0.0203520731469,-0.0691941707492,-0.035527427921,-0.0309818841128,-0.102237015146,-0.0838496975598,9.33962440491,-4.03019237518,2.22353863716,1.22598457336,3.73207378387,-0.0458510071039
2017/07/09/10:15:50.003541,493467,1499566552,809346759,,0.795281219179,-0.0614750096181,0.17132845287,0.845105609244,0.533516264483,0.0269775047928,0.0207151874766,0.00580178921988,-0.0736365946948,-0.0335225834228,-0.0250487697782,-0.0728145418831,-0.0869224629355,7.90847730637,-3.39757275581,2.0497815609,1.01727938652,3.22933983803,-0.0589674301445
2017/07/09/10:15:50.013283,493468,1499566552,819353104,,0.79530799566,-0.0615124074836,0.171545248334,0.845319226729,0.533166041368,0.0272405953264,0.0206718944672,-0.0182695074079,-0.068374833053,-0.0355943627281,0.00614977241009,-0.0165422981442,-0.0716347186882,7.30465173721,-2.22666525841,2.11932039261,0.752174496651,2.98169255257,-0.0383795537055
2017/07/09/10:15:50.023266,493469,1499566552,829353039,,0.795390024086,-0.0628014138388,0.171450549217,0.845581920257,0.532700703497,0.0276942654448,0.0213120691072,-0.0249691013359,-0.0572587820574,-0.0334364174817,-4.3496739644e-05,0.0133310967024,-0.0742349629038,8.00672245026,-3.40422391891,3.01946043968,1.08378005028,3.39610505104,-0.0471409633756
2017/07/09/10:15:50.033176,493470,1499566552,839344156,,0.795107859504,-0.0625511416861,0.17104730006,0.845716646301,0.53252040682,0.027377289193,0.0208771292496,-0.01075003738,-0.0354413675308,-0.027329651998,0.00922335970607,-0.00891343348875,-0.0545988729656,8.73533630371,-3.35257220268,3.26642107964,1.10698151588,3.71304678917,-0.0505061857402
2017/07/09/10:15:50.043219,493471,1499566552,849355082,,0.794402903936,-0.0633527779336,0.170353179407,0.845911923805,0.532240105154,0.0272276191871,0.0203013394294,-0.0291951594525,-0.0449767356569,-0.0264718821369,0.0238451113562,0.0237230436072,-0.0796373240209,8.5059261322,-3.71803569794,2.89284086227,1.17598903179,3.6714220047,-0.0241162367165
2017/07/09/10:15:50.053463,493472,1499566552,859357479,,0.794455581226,-0.0632099772665,0.170356014194,0.846114882346,0.53191404387,0.0273873539019,0.0201739597639,-0.0346357893211,-0.03091817066,-0.032142566048,0.0326552935222,0.0547912919981,-0.0414870779996,8.92345142365,-3.22749662399,2.6706662178,1.15248823166,3.73856735229,-0.058942168951
2017/07/09/10:15:50.063181,493473,1499566552,869346199,,0.79396561775,-0.0632333523377,0.169502780407,0.845883416282,0.532332613746,0.0266834174763,0.0197795255882,-0.033838460555,-0.0366643284274,-0.0311573916477,0.0203717734952,0.0475212342776,-0.0561196657849,7.83946895599,-2.54925632477,2.07462882996,0.889025807381,3.25167679787,-0.0412781909108
2017/07/09/10:15:50.073315,493474,1499566552,879356585,,0.793304404092,-0.0632288415305,0.169196809058,0.846152668635,0.531942464323,0.0265259670832,0.0189538671773,-0.0307023280687,-0.006472020494,-0.0237691751708,0.0333297500601,0.0599354741838,-0.00811528882237,6.26097345352,-2.33285617828,2.29789638519,0.730169594288,2.69322919846,-0.0540124848485
2017/07/09/10:15:50.083355,493475,1499566552,889349149,,0.793194974965,-0.0628104558849,0.169105633022,0.846014548456,0.532178507813,0.0264250001157,0.0186316663825,-0.0303190219901,-0.0283944071001,-0.0128471042713,0.00530182368427,0.0437524643066,-0.0342175120879,7.53143358231,-2.30536675453,2.65596032143,0.79908233881,3.16250300407,-0.0526257529855
2017/07/09/10:15:50.093410,493476,1499566552,899352244,,0.79276553979,-0.0633886102156,0.168753360241,0.846190683437,0.53191759152,0.026033152255,0.018635398549,-0.0452925338432,-0.00741069147454,-0.0422677792101,0.0381001943532,0.107540126138,-0.027128876753,8.64965724945,-3.42655301094,2.35722541809,1.16270232201,3.59977698326,-0.0520223975182
2017/07/09/10:15:50.103209,493477,1499566552,909344333,,0.79276553979,-0.0633886102156,0.168753360241,0.846190683437,0.53191759152,0.026033152255,0.018635398549,-0.035023581288,-0.0144652241446,-0.0454801752355,0.0116526116608,0.0809317837278,-0.0344509250621,8.66184902191,-3.4242978096,2.81848120689,1.04395604134,3.61738300323,-0.071472749114
2017/07/09/10:15:50.113528,493478,1499566552,919346266,,0.792132885398,-0.064017164632,0.168160843465,0.84647196826,0.53150516857,0.0256033943316,0.0182189168967,-0.0282052107552,-0.00921460792628,-0.0309955847598,0.0273314315232,0.0546447421035,-0.0156082858228,6.74355220795,-2.96527433395,2.26613116264,1.02677714825,2.79512214661,-0.0307732149959
2017/07/09/10:15:50.123156,493479,1499566552,929346925,,0.792214162084,-0.0639514102324,0.167944446389,0.846403630882,0.5316144019,0.0254398373504,0.0184346412525,-0.0256143001252,-0.0162815184311,-0.0219001958291,0.0130103468032,0.0430031608445,-0.00910801900658,4.68297529221,-3.04518175125,1.98514890671,1.14525640011,1.99939763546,0.000711686909199
2017/07/09/10:15:50.132965,493480,1499566552,939353201,,0.791621717551,-0.0645016633737,0.167486989056,0.846495105283,0.531486857716,0.0253671131628,0.0180073978105,-0.0220011193712,-0.0124616363206,-0.0205433767519,0.0114652188667,0.0326369428582,-0.0149111643778,3.46677184105,-3.09236121178,1.76148784161,1.1907377243,1.54582560062,0.0388842895627
2017/07/09/10:15:50.143157,493481,1499566552,949349363,,0.791300526144,-0.0636230426836,0.167303002209,0.846328941184,0.531793587364,0.0248888809672,0.0174197404278,-0.0334580944975,0.00743707381062,-0.0367288700251,0.0331485129836,0.076871842173,0.0021507824148,5.20355367661,-3.33393001556,2.11787247658,1.38688802719,2.25477290154,0.0223626568913
2017/07/09/10:15:50.153527,493482,1499566552,959349006,,0.791347479579,-0.0631764988144,0.166952359054,0.846132995063,0.532102536848,0.025211296155,0.0170362992351,-0.0282292430372,0.0133232373568,-0.0372975863034,0.0317986358814,0.0694382593047,0.022645843424,5.59865522385,-3.49739432335,2.04982352257,1.36634647846,2.44084429741,0.0148392990232
2017/07/09/10:15:50.163340,493483,1499566552,969344146,,0.790757251279,-0.063402765707,0.16647969266,0.846331703895,0.531820576215,0.0247343746773,0.0166653054707,-0.0357210273315,0.0119301382453,-0.040930548722,0.0507168451997,0.0811362539142,0.0129716204993,6.4284992218,-3.14504933357,2.04613614082,1.24996995926,2.69870495796,-0.00661201030016
2017/07/09/10:15:50.173167,493484,1499566552,979353198,,0.789829910812,-0.0641081876951,0.166163986748,0.846500295596,0.531601581128,0.0238147022502,0.0164276734752,-0.0600436195697,-0.00870797550143,-0.0521326727805,0.0321439486962,0.128778666402,-0.011666473956,5.67736721039,-2.9827272892,1.96932089329,1.07365357876,2.44058680534,-0.0384773164988
2017/07/09/10:15:50.183170,493485,1499566552,989353253,,0.789361425199,-0.0640117000469,0.16556006382,0.846671292733,0.531354920242,0.0236464617151,0.0158276860417,-0.0577777329929,-0.0107247554071,-0.034915442394,0.0173175240356,0.121627810728,-0.0105842832911,4.95539522171,-2.44847345352,1.43900799751,0.874399185181,2.17828273773,-0.0381362810731
2017/07/09/10:15:50.193169,493486,1499566552,999352060,,0.788797154082,-0.0636890979772,0.164730546056,0.846323531258,0.531956570634,0.0229442790249,0.015239667283,-0.048620035263,0.0115979158187,-0.0474500259341,0.0363888255196,0.118857263088,0.00217279849879,5.40429210663,-2.04785656929,1.00205934048,0.895980715752,2.27307343483,-0.0340838581324
2017/07/09/10:15:50.203459,493487,1499566553,9345965,,0.788891971389,-0.0632582218474,0.164691691501,0.846329890641,0.531944282489,0.0230885824576,0.0150968173542,-0.0381141945158,0.0140527400817,-0.033562150644,0.0237967669885,0.0916235524015,0.00881687986991,5.50660610199,-2.31140947342,1.42268168926,0.942730128765,2.34260010719,-0.0177288725972
2017/07/09/10:15:50.213435,493488,1499566553,19383645,,0.788818747547,-0.062946170334,0.164605655583,0.846335610794,0.531936120244,0.023231717683,0.0148420071348,-0.04545117063,0.00589880509269,-0.0395900928323,0.0181835541926,0.105659691554,0.013425784844,6.41999387741,-2.44240283966,1.51259982586,1.0079549551,2.71604585648,-0.0331174507737
2017/07/09/10:15:50.223329,493489,1499566553,29351304,,0.78873609593,-0.0630467129623,0.164405014831,0.84643128407,0.531785137345,0.0232601452125,0.0147517690696,-0.0324378434976,0.00786996591699,-0.0268840927784,0.0273660814914,0.0647043601686,0.00542241803546,5.73989248276,-2.13440871239,1.20247614384,0.810670852661,2.468937397,-0.0247370116413
2017/07/09/10:15:50.233215,493490,1499566553,39347681,,0.78804190068,-0.062526050269,0.164241471638,0.846049181676,0.532438001387,0.0226128725268,0.0141143494273,-0.033412070559,0.0225083492327,-0.044726442516,0.0534427978009,0.080815655932,0.0230991258645,5.14992952347,-1.8775510788,1.30559206009,0.730993509293,2.2008357048,-0.029429577291
2017/07/09/10:15:50.243240,493491,1499566553,49354936,,0.787653318386,-0.062696863915,0.163672722795,0.846156769442,0.532286886441,0.0222457027573,0.0139470699377,-0.0315749094378,0.0274754448574,-0.0391874850889,0.0502893531715,0.0788511560447,0.0247328955247,4.79190349579,-2.23132801056,0.89385509491,0.733096301556,2.17030978203,-0.0387822017074
2017/07/09/10:15:50.253369,493492,1499566553,59346474,,0.787320684149,-0.0630604866889,0.163356161333,0.846373548601,0.531954309331,0.0219985497361,0.0138741782481,-0.0277603103353,0.016581198567,-0.0551673041178,0.039704717424,0.071340758611,0.0322066797266,4.88820362091,-2.30676269531,1.35237717628,0.774318218231,2.1741745472,-0.0248348712921
2017/07/09/10:15:50.263715,493493,1499566553,69353350,,0.787132636814,-0.0620051096888,0.162440935503,0.845886944519,0.532760214181,0.0217728684883,0.0129527400679,-0.0422314769174,0.01444782111,-0.0580259690991,0.0141547682784,0.114955493545,0.019056863687,5.12314844131,-1.71207261086,0.785657644272,0.636750996113,2.20595884323,-0.0765024870634
2017/07/09/10:15:50.273163,493494,1499566553,79382261,,0.787021438722,-0.0621407893223,0.162799049477,0.845861270631,0.532798200775,0.021660994258,0.0132510159705,-0.0238812563761,0.0273783916963,-0.0384208377434,0.0082879672606,0.07787962488,0.0593936022294,5.68517446518,-2.01475691795,1.31839585304,0.752235770226,2.46077227592,-0.0425899475813
2017/07/09/10:15:50.283007,493495,1499566553,89345801,,0.786207055809,-0.0615662867716,0.161656459247,0.845830727747,0.532902108267,0.0209069212189,0.0121911299561,-0.0369108020273,0.0191547184882,-0.0467978037093,0.0224477545547,0.10188592998,0.0361573294787,5.05138397217,-1.85684847832,0.410876303911,0.800424933434,2.18941569328,-0.0283278413117
2017/07/09/10:15:50.293223,493496,1499566553,99363739,,0.786071275963,-0.0618802049812,0.160832708832,0.845683154586,0.533151597401,0.0204100070572,0.0123615472204,-0.0407026420142,0.030353201845,-0.0498819779981,0.0317503891863,0.115541227997,0.0442813018806,5.07968330383,-2.08900213242,0.241579249501,0.769258737564,2.20073437691,-0.031668048352
2017/07/09/10:15:50.303428,493497,1499566553,109357169,,0.785779489082,-0.06140253454,0.160774298617,0.845847687907,0.532901219689,0.0204465362756,0.0118286969599,-0.0275478720398,0.0300504453812,-0.048734517666,0.0393413490845,0.082756934019,0.0265888336376,5.29122304916,-2.35836195946,0.705262422562,0.865813732147,2.24409627914,-0.0275316610932
2017/07/09/10:15:50.313372,493498,1499566553,119351640,,0.785422384589,-0.060256977086,0.160386281534,0.845606431749,0.533314259498,0.0201333219196,0.0109687077245,-0.018639047692,0.0372757728286,-0.0422390871947,0.0387725289941,0.0645004037195,0.0478206372168,5.33681154251,-1.87172460556,0.080966591835,0.772418618202,2.22104549408,-0.0233353115618
2017/07/09/10:15:50.323400,493499,1499566553,129353211,,0.784932585584,-0.0608964895539,0.159263302824,0.845478455714,0.533546282548,0.0194691456461,0.0107469841994,-0.0375931641611,0.0147448239641,-0.05509247097,0.0226543937055,0.100754580967,0.0277780632179,4.27449893951,-1.99324738979,0.368563860655,0.607805788517,1.769567132,-0.0583263486624
2017/07/09/10:15:50.333188,493500,1499566553,139349094,,0.785079638036,-0.060761689621,0.159493913079,0.845528713184,0.533450616426,0.0197847644076,0.0109634900388,-0.0167587602641,0.0113385668857,-0.0391048367668,0.0225535863578,0.0392986081913,0.0177461021985,5.25573205948,-2.43049931526,0.767327904701,0.854636371136,2.11593580246,-0.00848406553268
2017/07/09/10:15:50.343040,493501,1499566553,149347335,,0.784575776963,-0.0598074872707,0.158031329874,0.845299536623,0.53385285502,0.0193722580905,0.00972307505223,-0.0129626438289,0.00741235174468,-0.0374918999774,0.00488501498411,0.0314659372476,0.0040618855028,3.94251227379,-1.22400176525,-0.59167778492,0.516918182373,1.6947042942,-0.0366341397166
2017/07/09/10:15:50.353637,493502,1499566553,159349220,,0.784862004316,-0.0605049420464,0.158281482373,0.845348228935,0.533758309643,0.0193629555205,0.0106543266517,-0.0215032799694,0.0243171896471,-0.0469109071948,0.0208128668516,0.069464803606,0.0283588521127,4.07976770401,-2.19477081299,0.455607891083,0.735772967339,1.72182106972,-0.0324201509356
2017/07/09/10:15:50.363335,493503,1499566553,169345339,,0.784272493506,-0.0603316722585,0.158181242595,0.845474686315,0.533581115404,0.0189880268458,0.010158883837,-0.0335080104215,0.0135297413919,-0.0438512522858,0.0102971635172,0.089506814195,0.0292487057831,4.54745388031,-2.06684660912,0.984211206436,0.768330872059,1.9622027874,-0.0147745572031
2017/07/09/10:15:50.373180,493504,1499566553,179352172,,0.784632976693,-0.059604520275,0.158104532146,0.844811850881,0.534628745099,0.0189656504352,0.0102638018774,-0.0326595100198,0.0178058482059,-0.0387689235076,0.0310866473901,0.0810739613097,0.0257964909643,4.26688051224,-1.55280065536,0.757797300816,0.680395424366,1.79938614368,-0.0160303004086
2017/07/09/10:15:50.383222,493505,1499566553,189347002,,0.783938634399,-0.0600278570518,0.157364602168,0.845263013326,0.533938350781,0.0185021189726,0.00989684096291,-0.00967843685731,0.0440951596361,-0.0404193604122,0.0309549949969,0.0523600123829,0.0651831089495,4.20605325699,-2.37279295921,0.697845339775,0.836872577667,1.85419583321,-0.00051149725914
2017/07/09/10:15:50.393263,493506,1499566553,199345686,,0.783789325326,-0.0591939583447,0.15629084143,0.845008247085,0.534362229456,0.018263565057,0.00919305605838,-0.0138741928452,0.0231037506219,-0.0392155269725,0.0261926610298,0.041564664285,0.0247573499076,4.60288000107,-2.25535035133,0.369907915592,0.799685180187,2.02752327919,-0.0264834091067
2017/07/09/10:15:50.403663,493507,1499566553,209352604,,0.783941105521,-0.0592878675868,0.156834590067,0.845102257938,0.53420180748,0.0184302292245,0.00953567842723,-0.0200967977771,0.0275297556454,-0.0493571089493,0.0357708083408,0.0622028891923,0.029897142971,4.94753599167,-2.12796497345,0.920869469643,0.85483109951,2.0695066452,-0.00441998243332
2017/07/09/10:15:50.413439,493508,1499566553,219352128,,0.783680952543,-0.0587723153175,0.156300369532,0.844738283614,0.534792546656,0.0182343136919,0.00903736918509,-0.0233627699393,0.0314720670869,-0.0494477396556,0.0190504882213,0.0807563358665,0.0512443399207,4.58094024658,-2.14971446991,0.457569181919,0.788822650909,1.95788669586,-0.0240928083658
2017/07/09/10:15:50.423291,493509,1499566553,229352049,,0.783245290277,-0.0589693237409,0.15556604513,0.84487964016,0.53458451574,0.0178860324018,0.00882490899724,-0.0294681020966,0.0165132600954,-0.0426543880007,0.0273101510714,0.0758222655833,0.0140971375807,4.18394231796,-1.89813196659,0.291997522116,0.687751531601,1.78305983543,-0.0436540618539
2017/07/09/10:15:50.433287,493510,1499566553,239350856,,0.783305114245,-0.0585796864879,0.155991388581,0.844683878782,0.534894771218,0.0178101579458,0.00891778690514,-0.0139388238444,0.0131309004811,-0.0395104581101,0.023923738967,0.0332291757527,0.0223033456813,4.48364973068,-2.24534964561,1.21273577213,0.824254155159,1.92286264896,-0.0128020420671
2017/07/09/10:15:50.443287,493511,1499566553,249345849,,0.78321320402,-0.0584392026489,0.155142356861,0.844650490723,0.534946127357,0.0180606080746,0.00848550427895,-0.0148360550577,0.00658671750981,-0.0379873412338,0.00210695156884,0.0333041077811,0.00303189137376,3.95638561249,-1.48611617088,0.519418239594,0.573996722698,1.68786048889,-0.0346007868648
2017/07/09/10:15:50.453466,493512,1499566553,259346116,,0.782968546911,-0.0579334041133,0.154602906313,0.844692958161,0.534899802876,0.0175713424374,0.00820092930934,-0.0210745445723,0.00993559251171,-0.0562267452764,0.0245053083767,0.0519306320043,0.033147284362,3.90078759193,-1.13081645966,0.481975495815,0.541464984417,1.6535859108,-0.030755482614
2017/07/09/10:15:50.463278,493513,1499566553,269344119,,0.782646813439,-0.0575475530147,0.153747124491,0.84456296942,0.535111898907,0.0177373335685,0.00735073678592,-0.0106484469732,0.0281027522861,-0.0481054048683,0.0220609272194,0.0412064134781,0.0372850118713,3.19458150864,-1.30128550529,0.324471622705,0.52054464817,1.36981368065,0.00360624864697
2017/07/09/10:15:50.473432,493514,1499566553,279363794,,0.783057143804,-0.0580437354012,0.154021566728,0.844546691518,0.535127062474,0.0175686762764,0.00844123618471,-0.0193194110795,0.00975094732088,-0.0381984520115,0.00636255822141,0.0447974841092,0.00799242301138,3.88145041466,-1.74447154999,0.215268865228,0.603928387165,1.65028190613,-0.0540634617209
2017/07/09/10:15:50.483046,493515,1499566553,289347987,,0.782433677773,-0.0583276401121,0.153594088949,0.844679772325,0.534934670201,0.0172299294719,0.00800689526089,-0.019808880135,0.00253204922875,-0.0395709747426,-0.012371281275,0.0461118348687,0.0271873897251,3.80079555511,-1.36901342869,0.0461836494505,0.492711216211,1.63958406448,-0.0383168160915
2017/07/09/10:15:50.493159,493516,1499566553,299348743,,0.782569604202,-0.0575624024067,0.153041663453,0.844376628557,0.535411778622,0.017435920268,0.00763709000606,-0.00178272495666,0.0107248130348,-0.0405654284258,-0.00254567751793,0.00950926864561,0.0320163458437,2.75209569931,-0.467791140079,-0.318747252226,0.329603135586,1.15905547142,-0.0301350466907
2017/07/09/10:15:50.503682,493517,1499566553,309348319,,0.782473230438,-0.0578336530646,0.152795777486,0.844464203252,0.535276044104,0.0172836605644,0.0078128811199,-0.00448068653702,0.010457873209,-0.0399761458731,0.00337633501846,0.00947275302274,0.021070708502,2.45895409584,-0.835206329823,-0.115854114294,0.366124808788,1.10988140106,-0.0416382998228
2017/07/09/10:15:50.513545,493518,1499566553,319349106,,0.78230598205,-0.057580944481,0.151967951509,0.84436614574,0.535440834757,0.0171055558687,0.00750495583141,-0.00485972322394,0.0226866663915,-0.0399615615958,0.00182614994354,0.0278980045978,0.0457549328175,2.74874019623,-1.29705750942,-0.233515635133,0.518019735813,1.22746145725,-0.0162236951292
2017/07/09/10:15:50.523092,493519,1499566553,329373422,,0.782822056033,-0.0576067492289,0.152378584132,0.84422387548,0.535645637578,0.0173598976138,0.00827242211554,0.000715514951597,0.0119592879334,-0.0387590908639,0.00655758750752,-0.002550499125,0.0342279841441,3.95966863632,-1.72131991386,0.0763964056969,0.66784119606,1.67533433437,-0.0341988168657
2017/07/09/10:15:50.533283,493520,1499566553,339352214,,0.782404773107,-0.057919461566,0.151792744583,0.84434233687,0.535473184997,0.0170306697996,0.00802761511891,2.00251088069e-05,-0.00381255253281,-0.0294112925684,-0.0129034687028,-0.00846387261708,0.00432094683173,3.66705513,-1.40652120113,0.0196632891893,0.530726134777,1.56388270855,-0.0337534993887
2017/07/09/10:15:50.543050,493521,1499566553,349346412,,0.782224780431,-0.0574477371869,0.15120436296,0.844311432552,0.535526937808,0.0171319957813,0.00745643779157,0.00497156157169,-0.00321681053753,-0.0254408598088,-0.00873347099413,-0.0228589997794,0.0164413187398,2.87891697884,-0.802355229855,0.0810516774654,0.347816348076,1.25595200062,-0.0623137541115
2017/07/09/10:15:50.553595,493522,1499566553,359355546,,0.782502551945,-0.0578050274339,0.151204044724,0.844247170769,0.535616924897,0.0171575033478,0.00817584807885,-0.005743795788,-0.0049244123031,-0.0349234238898,-0.0205801967625,0.0153746438519,0.00170906372746,2.93446397781,-1.13781309128,-0.634210109711,0.422784537077,1.31534194946,-0.0428972393274
2017/07/09/10:15:50.563436,493523,1499566553,369345932,,0.781744219668,-0.0574501518397,0.150530421344,0.844222752016,0.535685748654,0.0166427138557,0.00719331244819,-0.0069035349163,0.0111810139612,-0.0452242718463,0.00425730954046,0.0255707884886,0.00980110513481,2.70192313194,-0.887605667114,-0.493921995163,0.352574259043,1.22539305687,-0.0602025091648
2017/07/09/10:15:50.573413,493524,1499566553,379346025,,0.782351379917,-0.0579486902015,0.150411590154,0.844285248127,0.535563818115,0.0169351473996,0.00818640974447,-0.0102295542104,0.0157608316552,-0.0316290988348,0.00521188451236,0.0305620071183,0.0342023622305,3.16139626503,-1.68478560448,0.0505110621452,0.535632431507,1.36862027645,-0.0355454795063
2017/07/09/10:15:50.583214,493525,1499566553,389351294,,0.782325684487,-0.0571866794268,0.150232432814,0.843816632648,0.536310901603,0.0168661111784,0.00772279625988,-0.00577915393643,0.00876108411306,-0.0375783655884,0.00484859192122,0.021590563643,0.0214993834106,3.67696833611,-1.53118169308,0.352687418461,0.535487830639,1.48661053181,-0.0371816419065
2017/07/09/10:15:50.593322,493526,1499566553,399382893,,0.78203821317,-0.0576786691044,0.150122068894,0.844085831168,0.535883732893,0.0169852425295,0.00769649128978,-0.00111021568003,0.011410459256,-0.0341636420646,0.0154097950021,0.00576666289567,0.0366816553796,3.37828683853,-1.59789192677,0.475815922022,0.559158325195,1.35769343376,-0.0252433083951
2017/07/09/10:15:50.603496,493527,1499566553,409349554,,0.7821772763,-0.0567049088991,0.149712092246,0.844071068853,0.535911262527,0.0170984931877,0.00712677710823,-0.0150879907424,-0.000159589644081,-0.0381223889665,0.0110015063985,0.0343124578641,-0.00867862041772,3.3502612114,-0.897444307804,0.545814216137,0.441278129816,1.25092387199,-0.0106157250702
2017/07/09/10:15:50.613988,493528,1499566553,419352095,,0.781859282428,-0.0573155382158,0.1490500072,0.844023116448,0.536003167874,0.0164161747758,0.00748946836595,0.00554136411544,-0.0154118414757,-0.014976108018,-0.0272711641572,-0.0233102724975,-0.00470938770535,2.65742969513,-1.06992030144,-0.1174043715,0.350099921227,1.1159658432,-0.0642245039344
2017/07/09/10:15:50.623647,493529,1499566553,429367553,,0.782566229766,-0.0571762152682,0.149437968688,0.843846626474,0.536250304089,0.0171010766616,0.00812622482389,-0.0195728854424,-0.00721003884945,-0.025401336489,-0.00284500450554,0.0343681704836,-0.0108839208734,3.02648377419,-0.603103756905,0.328740388155,0.230100527406,1.15229701996,-0.0483981072903
2017/07/09/10:15:50.633363,493530,1499566553,439352579,,0.781981680645,-0.0565682111812,0.148395971171,0.843633065081,0.536611857376,0.0167661997271,0.0070612019356,0.00237028156716,0.00579803997258,-0.0160271830177,-0.000183446834356,-0.00771009885361,0.0132661340839,2.67009139061,-0.399871975183,-0.108899287879,0.229608744383,1.06486558914,-0.0534139201045
2017/07/09/10:15:50.643242,493531,1499566553,449350813,,0.782157436682,-0.0568822835613,0.148370531559,0.843794655556,0.536349720159,0.0168634638019,0.00742835977897,4.74374259904e-05,0.0107124993823,-0.0190544831156,0.0193972256729,-0.00515927363007,0.0140793797383,2.63926053047,-0.771191716194,-0.310103595257,0.291141569614,1.15754783154,-0.0808039605618
2017/07/09/10:15:50.653606,493532,1499566553,459345296,,0.781453168723,-0.0572769011882,0.147735935257,0.843922661341,0.536171184884,0.0162537454121,0.00712866988077,-0.0087638359376,0.0104012034144,-0.0436054172297,3.65077035346e-05,0.0357957627921,0.0303261979613,2.41018342972,-1.07903110981,-0.315285980701,0.346674829721,1.1641689539,-0.0613278783858
2017/07/09/10:15:50.663538,493533,1499566553,469351771,,0.781674669648,-0.0569358169076,0.148152420668,0.843954698911,0.536106845631,0.0167832849264,0.00694532939566,-0.028063289647,-0.0160399560339,-0.0197700553167,-0.0176515023617,0.0504200952535,-0.00670338843869,3.15029716492,-1.05705618858,0.232351109385,0.437211096287,1.32855093479,-0.0458838194609
2017/07/09/10:15:50.673396,493534,1499566553,479388718,,0.78120391718,-0.0574257255469,0.147051792507,0.843691349793,0.536550250978,0.0157909787113,0.00702705131307,-0.0123107695031,0.0148850255965,-0.0114787460563,0.0263595225067,0.0222187153235,0.0239607800879,2.21769428253,-0.84680211544,-0.395874083042,0.265297234058,0.9993891716,-0.0354425013065
2017/07/09/10:15:50.683254,493535,1499566553,489349390,,0.781803663389,-0.0570616230829,0.1478724971,0.843685615576,0.536533404574,0.016458494979,0.00745692888389,-0.0151500975791,-0.000278985058201,-0.0228070296034,0.00434054651222,0.031431351064,0.0278281290705,3.19616913795,-0.968903183937,0.245957762003,0.390403985977,1.32150280476,-0.0553540065885
2017/07/09/10:15:50.693209,493536,1499566553,499357634,,0.781095484431,-0.0572930592409,0.147176087447,0.843821947586,0.53633978017,0.0160395837157,0.0068478269549,-0.0182755157446,-0.00319744367821,-0.0307982794185,0.00545126206256,0.0366017605415,-0.00927970305011,2.43307828903,-1.12427771091,0.156495884061,0.370824992657,1.10417687893,-0.0307543165982
2017/07/09/10:15:50.703618,493537,1499566553,509381944,,0.78145660297,-0.0570383315328,0.147174536264,0.84366184617,0.536580908778,0.0162514898774,0.00717681885334,-0.000593123254285,-0.0115687614021,-0.0256966668018,-0.00452029661971,-0.00859237816839,-0.0270243216939,3.29124903679,-1.25761306286,0.241233378649,0.445314884186,1.41273355484,-0.0539533495903
2017/07/09/10:15:50.713414,493538,1499566553,519349266,,0.781197351213,-0.0570427532322,0.146758990829,0.843534595716,0.536793934709,0.0159055242245,0.00697651699466,0.0057850487198,0.00483983259065,-0.0124287256426,0.0115781622183,-0.0218509697166,2.09762711992e-05,2.6182243824,-0.663783550262,-0.112095549703,0.257468163967,1.12019145489,-0.0553378611803
2017/07/09/10:15:50.723186,493539,1499566553,529349562,,0.781501203358,-0.0569158963596,0.14707509731,0.843680139396,0.536545459027,0.0165471268286,0.00699895559873,-0.0126714854568,-0.0072825261815,-0.0178053663947,0.00397210629771,0.0160235737436,-0.00262503802795,2.48132228851,-0.514596641064,0.265503793955,0.166491508484,1.0927978754,-0.0632781162858
2017/07/09/10:15:50.733207,493540,1499566553,539357443,,0.781061485223,-0.0569735441256,0.146514504104,0.843627819565,0.536649098445,0.0159396825586,0.00676562742133,-0.000376735532974,0.0180592578835,-0.0242190820511,0.0240445063601,0.0124191430522,0.0218067397989,2.35445308685,-0.476784825325,0.079665966332,0.187468409538,1.0292506218,-0.0799921452999
2017/07/09/10:15:50.743141,493541,1499566553,549346261,,0.780543713816,-0.0580625772219,0.146210001281,0.844155609317,0.535818255009,0.015961320174,0.00673358118861,0.00052317037634,0.00720493429212,-0.0180117658064,-0.00429195546059,0.00347858624789,0.0216884645204,1.70743501186,-1.32329630852,-0.251248568296,0.355122983456,0.887878358364,-0.0284205153584
2017/07/09/10:15:50.753551,493542,1499566553,559345604,,0.781034391348,-0.0570541326226,0.14653873869,0.843562504883,0.536740592172,0.0162965957449,0.00680132608418,-0.0169890208844,-0.015004346897,-0.024078423008,-0.00178755269167,0.0181656248495,-0.0189216140134,2.13870835304,-0.448649823666,0.0284473076463,0.19925634563,0.975913643837,-0.0489865764976
2017/07/09/10:15:50.763261,493543,1499566553,569345231,,0.780791305811,-0.0573105934454,0.146099016692,0.843811771748,0.536353295503,0.0162332418249,0.00658165039734,-0.00555755466906,0.00872605708746,-0.0150500489613,0.011453189512,0.00877059933068,0.00834901817922,2.08394002914,-1.10190212727,-0.0974393263459,0.359929025173,0.998289465904,-0.0216204021126
2017/07/09/10:15:50.773598,493544,1499566553,579364387,,0.780901152146,-0.0572401774709,0.145955828421,0.84362742126,0.536637899557,0.0163313523011,0.00676947486839,-0.0112994588179,0.00912109646263,-0.0240075761136,0.00211550045276,0.0284667129459,0.0181760196111,2.60888600349,-1.41555440426,0.184096351266,0.487580001354,1.1606451273,-0.0415771529078
2017/07/09/10:15:50.783618,493545,1499566553,589351308,,0.780932504436,-0.0564801945875,0.145511684316,0.843676533096,0.536567590612,0.0163049226874,0.00626719266832,-0.00498209958506,0.00159598253859,-0.0161754909714,-0.0159700781071,0.0113304168228,0.038608603945,3.15443110466,-1.02717638016,0.278050601482,0.398228168488,1.35107886791,-0.063910163939
2017/07/09/10:15:50.793441,493546,1499566553,599350927,,0.78055325182,-0.056830016959,0.145127151123,0.843478824632,0.536893884764,0.0157948364459,0.00624115712793,0.000206342813928,0.0133327238122,-0.0183864255774,0.00611916839988,0.00876228381022,0.0198144824239,2.78576898575,-1.00217795372,-0.127433106303,0.372396886349,1.18295502663,-0.0501698330045
2017/07/09/10:15:50.803368,493547,1499566553,609347936,,0.780567643429,-0.0559462466585,0.144850164055,0.843441465577,0.536952919028,0.0160264947799,0.00558644400648,-0.018275934024,-0.0172039162355,-0.0193157175657,-0.00945429814366,0.0319635351896,-0.0129601831862,2.00686311722,-0.176466673613,-0.254358887672,0.19006896019,0.878495156765,-0.0746359527111
2017/07/09/10:15:50.813466,493548,1499566553,619364378,,0.780668806259,-0.056960293829,0.145497332947,0.843511950104,0.536832919839,0.0159753988069,0.00654162381647,-0.0177102926945,-0.00193653641418,-0.0162318676009,0.0132790109441,0.0315753976932,0.00211517323752,2.3959903717,-1.15848445892,0.51172542572,0.36060988903,1.081838727,-0.0430744662881
2017/07/09/10:15:50.823368,493549,1499566553,629344876,,0.780245876497,-0.0568096317654,0.145142684378,0.843519814544,0.536828917924,0.0159180352862,0.00597088816796,-0.0149572661879,-0.00408189395399,-0.014735587075,0.0257189463701,0.0207356409754,-0.0184366646022,2.67862296104,-0.356244504452,0.209810689092,0.199246764183,1.14874625206,-0.0586396157742
2017/07/09/10:15:50.833101,493550,1499566553,639344221,,0.780084704041,-0.0566386222637,0.144572987918,0.843802637681,0.536389742967,0.0159202423646,0.00544960225716,-0.00203838758459,0.0239282379509,-0.019615037011,0.0307057113521,0.0151932426732,0.0243419914013,2.15388894081,-1.39925694466,0.0487968213856,0.422675937414,1.03989923,-0.0146490242332
2017/07/09/10:15:50.843719,493551,1499566553,649354152,,0.77991775749,-0.0575843975999,0.14510323667,0.843779874013,0.536429523589,0.0154768450595,0.00627357155294,-0.0133266457942,-0.00348808180282,-0.0197907542804,0.00910496166434,0.0275310881355,-0.0305929497225,2.93910956383,-1.95193243027,0.473955124617,0.591472148895,1.36180377007,-0.0371531844139
