time,.header.seq,.header.stamp.secs,.header.stamp.nsecs,.header.frame_id,.pose.position.x,.pose.position.y,.pose.position.z,.pose.orientation.x,.pose.orientation.y,.pose.orientation.z,.pose.orientation.w,.twist.linear.x,.twist.linear.y,.twist.linear.z,.twist.angular.x,.twist.angular.y,.twist.angular.z,.wrench.force.x,.wrench.force.y,.wrench.force.z,.wrench.torque.x,.wrench.torque.y,.wrench.torque.z
2017/07/09/10:21:03.491839,524816,1499566866,298978672,,0.781324316072,0.39518551858,0.165432548884,0.624699309547,0.778379290915,0.0543433467929,0.030385075052,0.00497733552746,-0.0507575266147,-0.00851711795589,-0.0371831436524,0.0128551605609,-0.0561520928695,3.69319176674,1.94814014435,-0.310308516026,-0.696639597416,1.3855663538,-0.0769958496094
2017/07/09/10:21:03.501862,524817,1499566866,308972672,,0.781061182497,0.394946929695,0.165337667929,0.624546589657,0.77852551576,0.0541030502155,0.0302065988934,-0.00285916154152,-0.0388999987082,-0.0126819597317,-0.0363031736185,0.0228615969489,-0.0425218590542,3.5736746788,1.96089756489,0.00766630843282,-0.613804042339,1.3698694706,-0.0222599431872
2017/07/09/10:21:03.512075,524818,1499566866,318976177,,0.781288037507,0.394591744198,0.165415916037,0.625153632033,0.778029608168,0.054178795711,0.0302906464874,-0.0045479243669,-0.0436585809799,-0.0197376614287,-0.0265440307707,0.0329015126734,-0.0429586740548,3.97044372559,2.01108455658,0.0458188094199,-0.648802161217,1.5190320015,-0.0263195559382
2017/07/09/10:21:03.521671,524819,1499566866,328970202,,0.781562010402,0.393297431292,0.165354176127,0.625410443735,0.777814102854,0.0539935772451,0.0308495038119,0.00222671147767,-0.0434247346857,-0.00876893731071,-0.00179777022079,0.0123328429496,-0.0675216665507,4.36946725845,2.05705881119,0.268137425184,-0.675101101398,1.68188083172,-0.0454696379602
2017/07/09/10:21:03.532095,524820,1499566866,338976366,,0.781012933172,0.393904500846,0.164976907591,0.625183002509,0.778036131737,0.0537732831371,0.0302394627411,-0.00491881321009,-0.0629033579682,-0.0122903887866,-0.0263410339894,0.0262405561351,-0.0642444896049,4.33566141129,2.10047268867,0.279477924109,-0.71781206131,1.6279797554,-0.0639972686768
2017/07/09/10:21:03.542025,524821,1499566866,348975121,,0.781342665922,0.392517160502,0.165172635165,0.626077488954,0.777324435577,0.0535566617465,0.0304201193588,-0.0134545382192,-0.0656288772019,-0.0167416102874,-0.0292303520433,0.0593808825375,-0.0742440970991,4.34260511398,1.96767091751,0.241112262011,-0.713942468166,1.57699024677,-0.0724224150181
2017/07/09/10:21:03.551855,524822,1499566866,358970349,,0.780911555757,0.392308857341,0.164702856699,0.626147979077,0.777302224159,0.0534122927065,0.0297840159059,0.000427647087877,-0.0761457205477,-0.00593322450789,-0.0225725962772,0.0354567310203,-0.110555521894,4.34210538864,1.94588577747,0.201867833734,-0.62966388464,1.53383076191,-0.00969461724162
2017/07/09/10:21:03.562068,524823,1499566866,368968153,,0.781444706417,0.391398749016,0.165268032046,0.626640012194,0.776871846793,0.0534962328117,0.0305054397273,-0.000306667205878,-0.0700897947012,-0.00771567051217,-0.00584222979811,0.031989032124,-0.117333704723,4.36332511902,1.96029508114,0.216261714697,-0.587859749794,1.53077626228,0.00720101967454
2017/07/09/10:21:03.572151,524824,1499566866,378969875,,0.781135608941,0.390549323777,0.16472148686,0.627053172583,0.776581307986,0.0530713418005,0.0301533334796,0.00754915112868,-0.0560585484875,0.0078431861989,0.0050393208741,0.0077454454182,-0.0987932685363,4.1283955574,2.02515673637,0.13880752027,-0.662989914417,1.42399799824,-0.0204883478582
2017/07/09/10:21:03.581998,524825,1499566866,388972616,,0.781514296819,0.39033371309,0.164892835583,0.627366483985,0.77629845788,0.0533799009851,0.0303740882243,-0.00375707566403,-0.0573872914443,-0.0158724138922,-0.00952975236859,0.038742839139,-0.0663532471591,4.4893116951,2.93354487419,0.0527590364218,-1.14946722984,1.53297531605,-0.105092063546
2017/07/09/10:21:03.591951,524826,1499566866,398975508,,0.781468799717,0.389807763728,0.164463125948,0.627508228814,0.776218780596,0.0529570470924,0.0302221538569,0.0147256681156,-0.0713111995668,-0.00306637945888,-0.011800320303,-0.00507074571392,-0.0963830333746,5.17027330399,4.76352310181,0.0906427353621,-2.05219268799,1.77918076515,-0.320212453604
2017/07/09/10:21:03.602038,524827,1499566866,408969660,,0.781172193607,0.389054869908,0.16444628137,0.627922621839,0.775920545525,0.0525100002969,0.030053084426,0.0122467307084,-0.0747858277231,-0.00710179579241,-0.0242427115491,0.00427165401082,-0.105858725219,6.01802396774,5.66081428528,0.131546035409,-2.43476128578,2.07125496864,-0.317797541618
2017/07/09/10:21:03.612093,524828,1499566866,418976378,,0.781617677987,0.387261015088,0.164317348515,0.628840621664,0.775175716165,0.0522808863152,0.0304760650277,0.00642802219164,-0.1013523188,-0.0104884222118,-0.0511283754859,0.0226087073251,-0.130853946843,5.38873624802,5.62822961807,-0.00408800318837,-2.39274024963,1.80699038506,-0.351397395134
2017/07/09/10:21:03.622028,524829,1499566866,428976920,,0.781447672331,0.387009462133,0.16486134048,0.628902066314,0.775130219921,0.0520502306028,0.0307588466254,0.0153329455949,-0.111189190023,-0.00364607003717,-0.0702664758001,0.00265769092453,-0.134076046804,3.54359436035,3.4726626873,-0.0198919456452,-1.31347966194,1.10186254978,-0.143930003047
2017/07/09/10:21:03.632176,524830,1499566866,438976303,,0.782285824781,0.385416661987,0.164751493167,0.62970170908,0.77444229441,0.0522557241198,0.0313724322786,0.0310702457094,-0.141492813839,0.0184292788778,-0.0987576331092,-0.0362749343947,-0.166116111029,1.9376885891,1.47389280796,-0.0350629016757,-0.504173219204,0.540024638176,-0.0678030177951
2017/07/09/10:21:03.641800,524831,1499566866,448970428,,0.782202266774,0.383344212321,0.164565258183,0.630559432852,0.773785097489,0.0515067109143,0.0315987859798,0.0303023922043,-0.147285724571,0.0117680695784,-0.0815273414611,-0.0449480426867,-0.176255824666,2.25974416733,1.52774000168,-0.00485074380413,-0.616089522839,0.698744177818,-0.132275179029
2017/07/09/10:21:03.651978,524832,1499566866,458977033,,0.7827062885,0.382886858468,0.165056820617,0.631031965903,0.773344133599,0.0521436165288,0.0319147660441,0.0231068223102,-0.133579936467,0.001440612095,-0.0327871100954,-0.0248340814451,-0.198144605671,3.30157923698,1.69976830482,-0.081887550652,-0.765269875526,1.08064293861,-0.119198642671
2017/07/09/10:21:03.661875,524833,1499566866,468971142,,0.782355696029,0.380763714691,0.164710354472,0.632238801859,0.772428730246,0.0514182302582,0.0313706823667,0.00699522257403,-0.136804222294,-0.00501491059653,-0.0193491547695,0.0159121950269,-0.201232720697,3.45752811432,1.6314150095,-0.438495844603,-0.775202155113,1.09672236443,-0.0957008302212
2017/07/09/10:21:03.671925,524834,1499566866,478975598,,0.782817112099,0.379318120915,0.165139082487,0.632574408821,0.772116628538,0.0513529533861,0.0323790583238,0.00195107304163,-0.136269275574,0.0158811403793,-0.0406146898988,0.0167827914138,-0.1885267719,3.87019348145,1.95422780514,-0.414436787367,-0.789939522743,1.23690474033,-0.0720149874687
2017/07/09/10:21:03.682070,524835,1499566866,488978482,,0.782398428565,0.378166086631,0.164935022128,0.633039936433,0.771789828532,0.0505650042146,0.0323122237568,0.000851522593989,-0.160490317046,0.00285546105583,-0.0875267070933,0.0218847900768,-0.190124043121,2.80525517464,1.70374333858,-0.625962853432,-0.675940513611,0.777550280094,-0.0781452581286
2017/07/09/10:21:03.691895,524836,1499566866,498968931,,0.782716231474,0.376189376639,0.164792837067,0.634061785011,0.770963117859,0.0500793924932,0.0327655022344,0.00283204695291,-0.17116185612,-0.000499196917758,-0.117906641021,0.0201006203078,-0.190573830794,2.97902488708,1.49743509293,-0.489460647106,-0.457215815783,0.900239408016,-0.0500396005809
2017/07/09/10:21:03.701994,524837,1499566866,508969874,,0.782823578756,0.37432397055,0.164585509571,0.635125001812,0.770090291805,0.0499396395431,0.0329121093803,0.00220672980877,-0.160930936943,0.00552332476767,-0.0996581585363,0.000491683863383,-0.171982681463,3.34276270866,0.679183065891,-0.389112204313,-0.0413664281368,1.07994937897,0.0619066767395
2017/07/09/10:21:03.711927,524838,1499566866,518975879,,0.7824805795,0.372271109608,0.164289046949,0.635862421514,0.769536623941,0.0493610407542,0.0324938913632,0.0061179660326,-0.197613383031,0.000571720972067,-0.0747303028521,0.0141462639041,-0.225687490882,3.01941871643,-0.250794410706,-0.552923262119,0.362527489662,0.959853053093,0.101753219962
2017/07/09/10:21:03.722092,524839,1499566866,528984146,,0.782925381941,0.370555369388,0.164783657026,0.636942237331,0.768610182884,0.0495066231756,0.0330464420634,0.018737115687,-0.203638279986,0.00166509253887,-0.0308725718989,-0.00401662558227,-0.28867754223,3.68045926094,-0.348444908857,-0.760043442249,0.436236381531,1.19034123421,0.176066875458
2017/07/09/10:21:03.731871,524840,1499566866,538967894,,0.782690747247,0.368403838154,0.164805549731,0.638235446916,0.767566783929,0.0491869220538,0.032823668395,0.0198007779568,-0.190156946953,0.0196419356057,-0.00866876122614,-0.0158550959176,-0.273747271421,3.72004938126,0.331353574991,-0.877257823944,-0.0469598956406,1.15325033665,0.0269948169589
2017/07/09/10:21:03.741951,524841,1499566866,548968253,,0.782978095026,0.367072978072,0.165029241567,0.638745832167,0.767113669494,0.0493900524907,0.0331813604157,0.000565244183181,-0.182822283712,0.00993126749957,-0.000250577301464,0.0210664762578,-0.256151473581,3.21196055412,1.05883133411,-0.771122038364,-0.453073680401,0.91681009531,-0.055827960372
2017/07/09/10:21:03.751864,524842,1499566866,558974645,,0.782551987159,0.364958437526,0.164526464617,0.640029341631,0.76610371968,0.0487653510056,0.0327027993295,-0.0190017834849,-0.169240603783,-0.00717624481924,-0.0209122155429,0.0587157272956,-0.204726190814,2.86370825768,1.71724832058,-0.60561555624,-0.828899383545,0.78078263998,-0.143436804414
2017/07/09/10:21:03.762152,524843,1499566866,568968891,,0.782547269315,0.363452645686,0.165112129434,0.640900226604,0.765374788802,0.048694172798,0.0328208735518,-0.008023915558,-0.180750893874,-0.00310902993119,0.00731494637631,0.0369584914182,-0.249737494117,3.18832206726,1.57460653782,-0.622592806816,-0.784799993038,0.912357926369,-0.123133927584
2017/07/09/10:21:03.771847,524844,1499566866,578975442,,0.78240370266,0.361121060451,0.164834533516,0.641457064805,0.76494315635,0.048017344273,0.033002063795,-0.00140172474465,-0.202972378271,0.00493976883882,-0.0233018649503,0.0205738680856,-0.268800652823,2.91996860504,1.57889246941,-0.462746858597,-0.737340033054,0.845999956131,-0.105445005
2017/07/09/10:21:03.782027,524845,1499566866,588971578,,0.782658493072,0.359756283293,0.165031876567,0.642168254221,0.764308857655,0.0484967472405,0.0331657788735,-0.0187599814229,-0.209945592256,-0.0103335872096,-0.055089268026,0.0565452449484,-0.241318097218,2.8481631279,1.5289760828,-0.656184315681,-0.705088913441,0.805602490902,-0.131168663502
2017/07/09/10:21:03.791903,524846,1499566866,598975147,,0.78211579842,0.357195610754,0.164812541536,0.643338935245,0.763388401927,0.047584113689,0.0329987018683,-0.00659590519335,-0.217982384525,0.0118279086816,-0.0618109825293,0.0202602824024,-0.256807843242,3.15022325516,1.53708577156,-0.825821220875,-0.716462790966,0.882704496384,-0.137229174376
2017/07/09/10:21:03.801977,524847,1499566866,608975130,,0.782545335156,0.354572514261,0.165362692842,0.644967967301,0.761988349423,0.0475355601715,0.0336221209694,-0.0166584366277,-0.232164366777,-0.00185968541647,-0.0513305307508,0.0483701638136,-0.285712286491,3.06530117989,1.49261534214,-0.977633476257,-0.646271586418,0.884498476982,-0.0986186116934
2017/07/09/10:21:03.811979,524848,1499566866,618974676,,0.78225471668,0.352878681048,0.165093962002,0.645651517969,0.761432191778,0.0473456699616,0.033369480135,-0.0163091778685,-0.248283330041,-0.00135070243188,-0.0347409065644,0.0476765965876,-0.320804101674,2.61119675636,1.51100671291,-1.0586887598,-0.64377695322,0.716748118401,-0.103618018329
2017/07/09/10:21:03.821808,524849,1499566866,629006793,,0.782112806688,0.350340544592,0.165323131432,0.646704275315,0.76055709644,0.0469249955352,0.0335339848199,-0.00807615486723,-0.224924839481,0.00493926531057,-0.0175139111357,0.0225378631884,-0.284585232535,2.56048727036,1.34788560867,-1.00972414017,-0.624240636826,0.710173487663,-0.102674737573
2017/07/09/10:21:03.832129,524850,1499566866,638988984,,0.782087778748,0.348073970376,0.165640270444,0.647658235431,0.759743563964,0.0468405021771,0.0336822571938,-0.0134868620909,-0.237068330494,-0.00298083782155,-0.0305743969803,0.0308215724116,-0.29178426415,1.37441861629,1.07067358494,-0.844390690327,-0.474721342325,0.292092770338,-0.0983355864882
2017/07/09/10:21:03.842203,524851,1499566866,648969804,,0.781826593321,0.346283832902,0.165100606731,0.649127496789,0.758530348005,0.0465235897228,0.0331776983401,-0.0118413955409,-0.24612558197,-0.00209550492467,-0.026372821005,0.0283389890842,-0.318399388077,0.652307748795,0.720904648304,-0.617216646671,-0.378324985504,0.020839670673,-0.0929937139153
2017/07/09/10:21:03.851731,524852,1499566866,658968041,,0.781477395265,0.342980705406,0.164912046534,0.65038984593,0.757480234568,0.0459534758559,0.0332418502299,-0.018389465741,-0.262465811364,-0.00345057616459,-0.0450824800574,0.0468504768058,-0.32194990314,1.08376419544,0.568307220936,-0.432030975819,-0.32105076313,0.223636195064,-0.0874979346991
2017/07/09/10:21:03.861883,524853,1499566866,668973302,,0.781289810062,0.340850276187,0.16522017582,0.651117067968,0.756851361843,0.0458272132766,0.0335029312282,-0.0228973925224,-0.281831105363,-0.0122300338405,-0.0381773053969,0.0642701509718,-0.35369382047,1.49357092381,0.520123302937,-0.495287656784,-0.231338188052,0.387725234032,-0.0525826476514
2017/07/09/10:21:03.872108,524854,1499566866,678975853,,0.780958024734,0.337908373567,0.164857759861,0.652466203658,0.755747241355,0.0449717103474,0.0333392491938,-0.028882447778,-0.258131119158,-0.00908897592242,-0.0267540218654,0.0652019193191,-0.344402628626,1.55651712418,0.748704373837,-0.541511654854,-0.358558803797,0.372915774584,-0.0614434853196
2017/07/09/10:21:03.881704,524855,1499566866,688975455,,0.780738363968,0.335457975513,0.164727098926,0.654157400356,0.754301252653,0.0448359251378,0.0331278677509,-0.0367439286477,-0.256604398894,-0.0149201359911,-0.0361732162985,0.0885925085967,-0.320683513676,2.05661249161,0.88840007782,-0.711313247681,-0.404790967703,0.551693499088,-0.0744515731931
2017/07/09/10:21:03.892079,524856,1499566866,698976144,,0.780656661787,0.332408586039,0.16476774287,0.655520046096,0.753131883693,0.0445399165557,0.0331968487144,-0.0358800602828,-0.243703571458,-0.00501663311503,-0.0255107529081,0.0752513926117,-0.326715824493,1.42201566696,0.122949615121,-0.79699575901,-0.263472467661,0.260572195053,-0.0384109914303
2017/07/09/10:21:03.901961,524857,1499566866,708978810,,0.780213610192,0.330171940726,0.164449137222,0.656607880031,0.752222598021,0.044105673394,0.0328929245041,-0.0218913169067,-0.306735424555,0.00240736738122,-0.0430767599098,0.0474530940459,-0.398446583949,0.947963237762,0.281772941351,-0.702732980251,-0.29073163867,0.0965053811669,-0.0630303919315
2017/07/09/10:21:03.911887,524858,1499566866,718972979,,0.779528600201,0.327721336082,0.164636726335,0.65796581026,0.751078750856,0.0435520137965,0.03263318306,-0.0338972739877,-0.28803706079,-0.00523029160368,-0.0395594716432,0.0703387793412,-0.3677639489,1.32026016712,0.478574693203,-0.603497445583,-0.375900387764,0.224150106311,-0.046392377466
2017/07/09/10:21:03.921751,524859,1499566866,728969160,,0.779355196607,0.324241682547,0.164240488763,0.65955246861,0.749701249874,0.0429935302033,0.0330171689817,-0.0459462971835,-0.266433955624,-0.0043639068669,-0.0386998803347,0.08632217632,-0.359704794452,1.59607851505,0.122311986983,-0.610531926155,-0.258681148291,0.300772339106,-0.00122579187155
2017/07/09/10:21:03.932065,524860,1499566866,738974313,,0.778963155171,0.321340057352,0.164311293645,0.660633926564,0.748800386074,0.0421479142385,0.0329294733322,-0.0567468008484,-0.304743065407,-0.017518395327,-0.0627968771929,0.118294174754,-0.383102423659,1.27416419983,0.255061089993,-0.826804697514,-0.324720919132,0.0599119029939,-0.0165414661169
2017/07/09/10:21:03.941874,524861,1499566866,748974910,,0.778107070237,0.318265299041,0.163985437185,0.6623110223,0.747388202072,0.041384468174,0.0322848406721,-0.0610305545437,-0.328248127993,-0.0250242629963,-0.0363004633831,0.138558210104,-0.437091624041,0.872135698795,-0.0438093617558,-1.06673407555,-0.0988140404224,-0.103898406029,0.0473243668675
2017/07/09/10:21:03.952212,524862,1499566866,758969486,,0.777253587534,0.31575596681,0.164200950216,0.66372936629,0.746160920082,0.0409325544773,0.0321206421136,-0.0647136116012,-0.294058796332,-0.0115576691058,-0.0395682458141,0.132565756495,-0.393877197653,0.581946194172,0.106826588511,-1.1769310236,-0.230785503983,-0.298240572214,0.0145549625158
2017/07/09/10:21:03.961914,524863,1499566866,768969633,,0.776661014325,0.313100330875,0.163870672312,0.665196127685,0.744903317547,0.0402471018045,0.0318328449238,-0.066410808528,-0.29644697263,-0.0155609922343,-0.0564235090153,0.129624700121,-0.388202265055,0.269020915031,0.0158518403769,-1.22245967388,-0.1649979949,-0.454230219126,0.0403839349747
2017/07/09/10:21:03.972018,524864,1499566866,778967648,,0.776013476617,0.309772449267,0.163598826835,0.666273389168,0.743991161487,0.0392906341746,0.0318303091602,-0.0854453795909,-0.319552436374,-0.0356160358018,-0.0504015199386,0.176323674829,-0.402182514674,0.126079887152,-0.0760481357574,-1.04574000835,-0.123519077897,-0.540472447872,0.0385958105326
2017/07/09/10:21:03.981953,524865,1499566866,788973982,,0.775171235909,0.306748753496,0.16308760638,0.668252781563,0.742278325909,0.0386853148987,0.0310572572879,-0.0704142362806,-0.319351058509,-0.0151439660758,-0.0419690641186,0.127886066907,-0.406494072963,-0.62407463789,-0.121103085577,-0.957790970802,-0.107643812895,-0.831132173538,0.0407159850001
2017/07/09/10:21:03.992183,524866,1499566866,798976028,,0.775154142742,0.303351537565,0.163144563477,0.669542101289,0.741115261002,0.0384265402395,0.0313838416313,-0.0714869578878,-0.328363859101,-0.0144896665893,-0.0573420838025,0.130842629796,-0.423399284747,-0.57828783989,-0.443066596985,-0.901961386204,-0.0713449195027,-0.822568416595,0.0145448371768
2017/07/09/10:21:04.002052,524867,1499566866,808975024,,0.773727972495,0.299734510845,0.162549512859,0.671618383594,0.739335478444,0.0373193401645,0.0303160680601,-0.0805461691426,-0.339988975748,-0.0341448790281,-0.0305837826241,0.165771274412,-0.458824612406,-0.62965965271,-0.520662665367,-1.03652834892,0.010762013495,-0.79755705595,0.0567796677351
2017/07/09/10:21:04.012115,524868,1499566866,818974836,,0.772941858448,0.296579073896,0.162043385616,0.672932451097,0.738199007251,0.0361794474622,0.0302520996719,-0.087146063468,-0.331886792491,-0.0439600784573,-0.0501965656336,0.185522177991,-0.42190757192,-0.752986490726,-0.629124701023,-1.03284597397,0.0481029376388,-0.819746911526,0.0680991187692
2017/07/09/10:21:04.021778,524869,1499566866,828969359,,0.772119402683,0.294454672999,0.161974955931,0.674162731432,0.737121509449,0.0359578182713,0.0293858326419,-0.100184627597,-0.342329007044,-0.0497311156491,-0.0624768830483,0.213408859393,-0.401315152185,-0.932454228401,-0.579035639763,-0.642925977707,0.062062561512,-0.852135837078,0.0566513501108
2017/07/09/10:21:04.031876,524870,1499566866,838976543,,0.771514323961,0.291059719431,0.161722481536,0.675407621686,0.736016321038,0.035265439398,0.0293405609785,-0.0993413201482,-0.311640355339,-0.0352591790948,-0.0355677591106,0.197034639955,-0.403288868967,-1.15669429302,-0.697998404503,-0.558005094528,0.0737133622169,-0.909636199474,0.0631958991289
2017/07/09/10:21:04.042088,524871,1499566866,848967281,,0.770623828837,0.286649260811,0.161701408271,0.677695235982,0.733974806194,0.0338451716425,0.0294050226446,-0.0994201501892,-0.338744644217,-0.0339904383913,-0.0484428327706,0.205069938165,-0.438504858498,-0.0749239176512,0.54136711359,-0.668674409389,-0.614091217518,-0.48422935605,-0.0994864180684
2017/07/09/10:21:04.051842,524872,1499566866,858971212,,0.76935885343,0.283718318103,0.160968504131,0.678890125992,0.732970879714,0.0323932839185,0.0285054640272,-0.114720030508,-0.330429161929,-0.0450297611054,-0.0637048052987,0.252944063899,-0.431392549258,-0.0248569659889,1.42633163929,-0.690628230572,-1.12448120117,-0.513802886009,-0.211437150836
2017/07/09/10:21:04.061890,524873,1499566866,868967977,,0.767871491581,0.280498736657,0.160130605813,0.680636489482,0.731440010326,0.031270910126,0.0274155185901,-0.121774403064,-0.351045230602,-0.0481354155351,-0.0898042990905,0.267911127928,-0.453166969199,-0.459394037724,1.87578260899,-0.925324261189,-1.25333225727,-0.654662251472,-0.218557268381
2017/07/09/10:21:04.072006,524874,1499566866,878971752,,0.766763308399,0.27664303488,0.160238599345,0.682576018113,0.729688139262,0.0301187233018,0.0271672859259,-0.117975419698,-0.364054343057,-0.036834112064,-0.105580074094,0.249537957967,-0.437893505556,-0.912749946117,1.48175799847,-0.590461671352,-0.946045219898,-0.77036511898,-0.122559860349
2017/07/09/10:21:04.081903,524875,1499566866,888971826,,0.765316129092,0.273381948531,0.159084993943,0.683715478518,0.728717829954,0.0286556498586,0.0261213030648,-0.114007044037,-0.3496966783,-0.0346780433223,-0.106059613166,0.233347360764,-0.411346984711,-1.52017712593,0.640214920044,-0.615880072117,-0.430858522654,-0.903179943562,-0.0267534703016
2017/07/09/10:21:04.091697,524876,1499566866,899003695,,0.764780267059,0.26980122667,0.159633430518,0.685305783184,0.727233319354,0.0279210212311,0.0266101358592,-0.125193041344,-0.35494374464,-0.0385432960386,-0.0971383102396,0.247482564822,-0.416979199111,-1.92186796665,-0.312843203545,-0.00971571728587,0.172757253051,-0.994486153126,0.0655132383108
2017/07/09/10:21:04.102169,524877,1499566866,909011790,,0.763381028994,0.266558466454,0.158785702418,0.687058226796,0.725665881075,0.0266094952263,0.0255334447348,-0.107594505483,-0.358008543989,-0.0303762198702,-0.085306530622,0.209417427525,-0.414054193413,-2.29477643967,-0.75614130497,0.016139484942,0.498927235603,-1.11030304432,0.14487850666
2017/07/09/10:21:04.112033,524878,1499566866,918977238,,0.762455509227,0.263411404389,0.158464646724,0.688380772519,0.724467221796,0.0255613120565,0.0250155130903,-0.113405214519,-0.347614884045,-0.0398942382126,-0.0739028749767,0.229118176625,-0.418601831373,-3.18836283684,-0.953414916992,0.224734500051,0.535740733147,-1.40533864498,0.147034972906
2017/07/09/10:21:04.121902,524879,1499566866,928972081,,0.761151871472,0.259918129595,0.157958540207,0.690084180941,0.722908857132,0.0244538317382,0.0242614428333,-0.107273756847,-0.344456928885,-0.0446470167006,-0.0370876598301,0.231947792851,-0.47810501345,-3.24072670937,-0.999655485153,0.0487262792885,0.447072297335,-1.37796378136,0.127406477928
2017/07/09/10:21:04.131937,524880,1499566866,939007638,,0.760250501332,0.257300810537,0.157905181471,0.691645750033,0.721459207949,0.0238359402975,0.02355027979,-0.119618589993,-0.339175692269,-0.048356715595,-0.0197210606066,0.261158499367,-0.469168974593,-3.46983981133,-0.409216761589,0.09580578655,0.130246207118,-1.48173844814,0.041603539139
2017/07/09/10:21:04.142041,524881,1499566866,948974155,,0.759045332563,0.252741346105,0.157287277335,0.693291340219,0.719946840984,0.0222300591212,0.0230106107117,-0.116129734398,-0.348583921819,-0.0276436904488,-0.0338462558057,0.253977727956,-0.492798079268,-3.97631716728,-0.366946488619,-0.0316651538014,0.0739492624998,-1.6717325449,0.0134427174926
2017/07/09/10:21:04.151998,524882,1499566866,958976992,,0.758309329328,0.250125789592,0.157380082387,0.694867293454,0.718459071787,0.0217567550754,0.0224198631448,-0.125631510007,-0.357552365239,-0.0493604219119,-0.0256952580199,0.281604679702,-0.476136456841,-4.18210601807,-0.074708789587,0.306083738804,-0.0338583104312,-1.82966780663,-0.0226315408945
2017/07/09/10:21:04.162092,524883,1499566866,968978648,,0.7566294647,0.246293593169,0.156413704161,0.696661093194,0.716798225095,0.020205395535,0.0213393467689,-0.127883370033,-0.346669486648,-0.0473071254245,-0.0382411509752,0.286664315157,-0.460594019837,-4.28755903244,-0.342263072729,0.327591657639,0.0655506551266,-1.8957593441,0.00350758805871
2017/07/09/10:21:04.172149,524884,1499566866,978975168,,0.755929953848,0.2440144184,0.156252726075,0.698069158226,0.715458472106,0.0197060184837,0.020743622172,-0.112747112708,-0.353839556863,-0.0289652039813,-0.0501871181695,0.243523162344,-0.459494818138,-4.90997171402,-0.215710222721,0.69278973341,0.0686656907201,-2.15360736847,0.00586282461882
2017/07/09/10:21:04.181781,524885,1499566866,988974561,,0.754678982064,0.240342312189,0.156163431745,0.699644801339,0.713968470135,0.0184679493079,0.0201273560251,-0.109403183597,-0.349730069164,-0.0265530433458,-0.0336613831944,0.23020610799,-0.493851971805,-4.98110628128,-0.2681632936,0.850156784058,0.0490238554776,-2.19560599327,-0.0328657254577
2017/07/09/10:21:04.192204,524886,1499566866,998976309,,0.753963257875,0.237574248265,0.155686389562,0.701487986901,0.712193804621,0.0179191989632,0.0193259204537,-0.10502186993,-0.338214328225,-0.0314087681437,-0.0255295164831,0.228108891843,-0.475569268983,-4.91380262375,-0.123978510499,1.28441989422,0.0214665457606,-2.20943212509,0.00484407693148
2017/07/09/10:21:04.201932,524887,1499566867,8973105,,0.75291672361,0.233694213278,0.155487620108,0.703191399566,0.710552778443,0.0167863733868,0.0188367272251,-0.103580573663,-0.3385626762,-0.0327488810222,-0.0299461158678,0.228103917211,-0.47234641344,-5.36868095398,-0.259291291237,1.37809312344,-0.0388856381178,-2.39280295372,-0.0337898507714
2017/07/09/10:21:04.211797,524888,1499566867,18976412,,0.752043354601,0.23037626041,0.1550094319,0.704668879885,0.709125700454,0.0158504050666,0.0182009707792,-0.101864584129,-0.360643339538,-0.0320018433295,-0.0384471755428,0.225702984669,-0.488435199152,-5.40164279938,-0.0348027274013,1.40889215469,-0.0535130500793,-2.3803088665,-0.0135756805539
2017/07/09/10:21:04.222059,524889,1499566867,28984343,,0.751334342566,0.226709196442,0.155414086475,0.706513892634,0.707306015473,0.0150557425349,0.0181561176578,-0.101647287295,-0.367484327347,-0.016411928992,-0.0367964506347,0.216904779542,-0.51125662717,-6.22729587555,-0.418972790241,1.469394207,0.130342200398,-2.77013158798,0.0348781384528
2017/07/09/10:21:04.232108,524890,1499566867,38975723,,0.750333180485,0.222858672268,0.155131221277,0.708366433335,0.705486724654,0.0139771657236,0.0176101192469,-0.0950172860517,-0.383844538312,-0.0205816757024,-0.0496956508346,0.202532907595,-0.543527466862,-6.94169950485,-0.468061506748,1.59397637844,0.230480402708,-3.05018234253,0.0502959489822
2017/07/09/10:21:04.242027,524891,1499566867,48975781,,0.749324163884,0.220212892296,0.154777411424,0.709870385845,0.704007758447,0.0132248524711,0.0167992447311,-0.103115035523,-0.34979177105,-0.0230657458559,-0.0376637148293,0.224689052399,-0.487057298255,-7.48698377609,-0.111014731228,1.82969343662,0.203875973821,-3.26489448547,0.0819493979216
2017/07/09/10:21:04.251929,524892,1499566867,58992649,,0.748412760823,0.216146329138,0.15447290999,0.711552156566,0.702335356373,0.012199474036,0.0164240222735,-0.0963624827201,-0.350527122271,-0.0152743785115,-0.0564596206199,0.211225302538,-0.469781603107,-8.36181545258,-0.245523974299,1.51921153069,0.139494970441,-3.58960843086,0.0421567633748
2017/07/09/10:21:04.262036,524893,1499566867,68968001,,0.74766867298,0.212561405735,0.154243973184,0.713439400831,0.70044397783,0.011314377738,0.0159511792791,-0.0835616048461,-0.353117325949,-0.00725798896157,-0.0504408160852,0.174938990362,-0.494140198701,-8.46392345428,-0.390301465988,1.61555683613,0.232901498675,-3.6147582531,0.0620077252388
2017/07/09/10:21:04.271966,524894,1499566867,78971670,,0.746648338241,0.210056105454,0.153895721141,0.714753702865,0.699131433038,0.0104555138431,0.0152664930542,-0.0923506409751,-0.338830029781,-0.0259233289569,-0.0350194535819,0.200913187044,-0.457964672267,-8.87441730499,-0.418440639973,1.21063053608,0.331401348114,-3.7359354496,0.131878107786
2017/07/09/10:21:04.282113,524895,1499566867,88975782,,0.746328332995,0.206558841565,0.154042428654,0.716071251031,0.697789220154,0.00982150012229,0.0153527137485,-0.0810857058375,-0.313581454174,-0.0182896906835,-0.0363874765208,0.168097012942,-0.42762895344,-8.89412117004,-0.0845299512148,1.62244200706,0.204002127051,-3.64539456367,0.100900068879
2017/07/09/10:21:04.292102,524896,1499566867,98976807,,0.745257364794,0.203383480484,0.153732057003,0.717760351261,0.696076513609,0.00893715705908,0.0147544089498,-0.0921033803945,-0.334898115266,-0.0314598014624,-0.0590321011699,0.203792193986,-0.449116845876,-9.87269306183,-0.11633130163,1.46063292027,0.282355606556,-4.00930500031,0.136110767722
2017/07/09/10:21:04.301953,524897,1499566867,108977106,,0.744585737047,0.200172618404,0.153736368059,0.718918612569,0.694895073278,0.00802690416612,0.0145751310937,-0.0895567975088,-0.328445001453,-0.0301226408322,-0.0785182866841,0.199826778876,-0.414932022525,-10.5254230499,-0.38893443346,1.58910810947,0.366011857986,-4.24842119217,0.132528945804
2017/07/09/10:21:04.311974,524898,1499566867,118972162,,0.742635767227,0.197505950585,0.152531875239,0.719839303456,0.693989487288,0.00600246330086,0.0131885999328,-0.0884097291923,-0.341405785159,-0.0164032105072,-0.108919168657,0.180857321905,-0.405681889366,-11.9961042404,-0.121277347207,1.08190786839,0.344462066889,-4.74900197983,0.153639376163
2017/07/09/10:21:04.321908,524899,1499566867,128978687,,0.742233850783,0.193292427272,0.153038762657,0.721679473031,0.692070044826,0.00515827371379,0.0138269111868,-0.0881072207026,-0.335238194926,-0.0188151879315,-0.113060135861,0.193954901224,-0.403763582674,-12.5839681625,-0.55267727375,1.01198244095,0.400961875916,-5.05779790878,0.186176031828
2017/07/09/10:21:04.331872,524900,1499566867,138973726,,0.741372882803,0.190277640477,0.152464403915,0.722682224601,0.691034670911,0.00373389945604,0.0136946646262,-0.10318880239,-0.36475003857,-0.0258337562374,-0.145114398174,0.228984879654,-0.394053637173,-12.6749839783,-0.149757966399,0.784228861332,0.311076194048,-5.13247728348,0.190457448363
2017/07/09/10:21:04.342366,524901,1499566867,148971208,,0.740280531936,0.186700384983,0.152241298158,0.723679594963,0.689998407247,0.00229200255943,0.0135936954563,-0.131879909908,-0.345579766499,-0.0593576169704,-0.161935371145,0.292112072256,-0.337606010281,-12.3263845444,-0.105710089207,1.06229197979,0.213422909379,-5.04719305038,0.166373476386
2017/07/09/10:21:04.351948,524902,1499566867,158968751,,0.739115526341,0.18294528568,0.151667779865,0.725423699777,0.688178132995,0.000959113328212,0.0130534735195,-0.119370227507,-0.383284312585,-0.0328362188516,-0.195845302971,0.245150966937,-0.391740462548,-12.781247139,-0.323192894459,0.94589138031,0.206575140357,-5.27346134186,0.16084638238
2017/07/09/10:21:04.361940,524903,1499566867,168969106,,0.738133177333,0.179866942659,0.151450935839,0.725951107555,0.687611544264,-0.000747457972706,0.0135939302727,-0.129336674851,-0.365351949446,-0.0438963955655,-0.199646613758,0.281217505243,-0.375133488962,-12.4234991074,-0.163298636675,0.909944534302,0.350330799818,-5.21278858185,0.236577451229
2017/07/09/10:21:04.371852,524904,1499566867,178975313,,0.736437330524,0.176113285642,0.149946224627,0.72749675702,0.685993086326,-0.00278875483206,0.0124167985132,-0.141190722354,-0.369029627895,-0.0631228290851,-0.213135025578,0.316154601098,-0.353535588522,-12.8701019287,-0.356323927641,1.01753270626,0.321923673153,-5.43796300888,0.238219901919
2017/07/09/10:21:04.381985,524905,1499566867,188974288,,0.735553253719,0.173076709036,0.150135051829,0.728145074886,0.685288746684,-0.00441078515297,0.0128307662164,-0.130373431479,-0.361856453889,-0.0550666234796,-0.220984099428,0.284064910299,-0.349153368419,-12.7155504227,-0.184815958142,1.04652798176,0.394318670034,-5.38436126709,0.279503911734
2017/07/09/10:21:04.391769,524906,1499566867,198976103,,0.734272751424,0.169082751803,0.149206292448,0.729439368749,0.683890623839,-0.00663108182253,0.012955720636,-0.13562674879,-0.38358778003,-0.0714485617578,-0.268916972384,0.302665265217,-0.345464791681,-12.8224716187,-0.255495607853,1.1034566164,0.491570651531,-5.40891122818,0.310983479023
2017/07/09/10:21:04.401887,524907,1499566867,208973705,,0.732870284817,0.165085589307,0.148407231468,0.730200297316,0.683051530252,-0.00881310136975,0.0130561121398,-0.134874726644,-0.366036413067,-0.0784424049344,-0.279840049806,0.304578315538,-0.270628899106,-12.9537134171,-0.467393934727,1.05877268314,0.581164598465,-5.45629453659,0.350678235292
2017/07/09/10:21:04.412024,524908,1499566867,218972913,,0.731574164586,0.161756907685,0.147393116724,0.731161120044,0.681994596668,-0.0110101214425,0.012867162735,-0.14142286689,-0.375968631986,-0.0813656817424,-0.296997524395,0.326634060164,-0.272285635982,-12.8755464554,-0.350662469864,0.989644825459,0.490634948015,-5.44679689407,0.327417612076
2017/07/09/10:21:04.421722,524909,1499566867,228968658,,0.729496237035,0.158663852765,0.145919948375,0.731869532638,0.681206530851,-0.0136274499043,0.0117873716957,-0.150202710314,-0.361326184155,-0.0987568987564,-0.29845234923,0.359133363545,-0.246756838128,-13.2764492035,0.220187857747,0.999904215336,0.242330342531,-5.5665769577,0.301660597324
2017/07/09/10:21:04.431942,524910,1499566867,238973378,,0.728731215405,0.155669394329,0.145514273901,0.732749445191,0.680226217847,-0.0149544682999,0.0121205199362,-0.136050279545,-0.334051777213,-0.0875545528416,-0.285349357158,0.333853740571,-0.251150175098,-13.2141361237,-0.1588935256,0.786410987377,0.266010284424,-5.52598428726,0.31446647644
2017/07/09/10:21:04.442085,524911,1499566867,248974648,,0.726670999756,0.15190215055,0.144243042563,0.733274046816,0.679593149121,-0.0180448992328,0.0116921146779,-0.121950837231,-0.351933302971,-0.0698530062826,-0.296753660029,0.293787134956,-0.275571746342,-13.7997121811,-0.167779669166,0.693752527237,0.242059975863,-5.66705942154,0.341733336449
2017/07/09/10:21:04.451961,524912,1499566867,258968942,,0.72597681946,0.148604063645,0.143748214263,0.73422936753,0.678500998281,-0.0198748703451,0.0121910096438,-0.145254348167,-0.362168973331,-0.0954687394187,-0.31856308427,0.351842937128,-0.247379413653,-13.7312097549,-0.416155129671,0.827162921429,0.373862862587,-5.69069051743,0.36853030324
2017/07/09/10:21:04.461931,524913,1499566867,268968707,,0.724614706377,0.145152497119,0.142683187364,0.734380499649,0.678258564615,-0.0223411052031,0.0123075700104,-0.148109087321,-0.341971378568,-0.100204161811,-0.336279732872,0.370284530695,-0.204701340433,-13.6657514572,-0.164224937558,0.739612162113,0.306430101395,-5.61778211594,0.359226614237
2017/07/09/10:21:04.471953,524914,1499566867,278975754,,0.723023953332,0.142514055295,0.141588568333,0.734851707067,0.677663933722,-0.0249283362435,0.0119640965183,-0.149295703482,-0.350892531786,-0.0861321542396,-0.369351604252,0.367904150872,-0.162939404585,-13.7805252075,0.335421830416,0.710897386074,0.234289437532,-5.65757656097,0.386016517878
2017/07/09/10:21:04.481884,524915,1499566867,288973567,,0.721752339542,0.139552256374,0.141283435908,0.735142682467,0.677247295885,-0.0273428670859,0.0123977518849,-0.159847791432,-0.339635039428,-0.103498261436,-0.363677653259,0.408502935082,-0.164807233851,-14.2557783127,0.320949971676,0.960702717304,0.229659378529,-5.85456085205,0.413393318653
2017/07/09/10:21:04.492044,524916,1499566867,298970302,,0.71996788801,0.13539186951,0.139870977628,0.735792469372,0.676397825577,-0.0306682625959,0.012445129155,-0.152028118809,-0.351204186304,-0.103713988068,-0.417018521979,0.389779018193,-0.148497859998,-14.1571502686,0.0929962620139,0.747298896313,0.247657239437,-5.83795499802,0.434610903263
2017/07/09/10:21:04.501903,524917,1499566867,308976404,,0.718710175089,0.131862953473,0.138501449137,0.73639114485,0.675620173603,-0.033245682057,0.0126565173673,-0.148588779722,-0.35375403365,-0.109463479403,-0.437040835061,0.387534356034,-0.120399339099,-14.6980991364,0.162589386106,0.714664399624,0.090599656105,-6.00241422653,0.436050891876
2017/07/09/10:21:04.511931,524918,1499566867,318976158,,0.717472578891,0.129366366787,0.137729186946,0.73604404086,0.675848643695,-0.0360061804853,0.0130895262415,-0.156929580001,-0.352631555994,-0.109019518568,-0.461957836849,0.416838095748,-0.114228706685,-14.5570030212,0.606815338135,0.721416473389,0.0200829617679,-6.02643632889,0.459538221359
2017/07/09/10:21:04.521908,524919,1499566867,328976046,,0.715656575593,0.125706293491,0.136391984446,0.736051757349,0.675645416298,-0.0394147051864,0.013325274984,-0.158007128291,-0.332130902713,-0.114096188235,-0.436591102775,0.421291077498,-0.0926612876718,-14.7037963867,0.5152348876,1.01969277859,0.0630175322294,-6.06251335144,0.518795847893
2017/07/09/10:21:04.531919,524920,1499566867,338983685,,0.714066375739,0.122157380659,0.134972819465,0.736543617612,0.674906140922,-0.0427185120239,0.0134286645626,-0.159452100251,-0.325316532288,-0.117168572914,-0.465995254226,0.434319556267,-0.0493287187255,-14.6996173859,0.333319723606,0.313944876194,-0.00987472757697,-5.97054958344,0.502676069736
2017/07/09/10:21:04.541636,524921,1499566867,348967836,,0.712483670184,0.119348998139,0.1335946711,0.736166717901,0.675122367922,-0.0456219715265,0.0136743372877,-0.157748704475,-0.344807767032,-0.121238875149,-0.504260081728,0.425796071384,-0.0507694602485,-13.6393699646,0.74832201004,0.0100605562329,-0.0740251690149,-5.59224796295,0.476725518703
2017/07/09/10:21:04.552090,524922,1499566867,358986623,,0.711544041997,0.115803082747,0.133296762511,0.736147238261,0.674918241725,-0.0485242603991,0.0147650513156,-0.150779924655,-0.345461573342,-0.123317009096,-0.506679600433,0.418608034611,-0.00769083589471,-12.751086235,0.298936665058,0.68799495697,0.194293215871,-5.32484436035,0.523957788944
2017/07/09/10:21:04.562207,524923,1499566867,368974192,,0.710144563332,0.112847102575,0.132069664793,0.735816619269,0.67503959423,-0.0516610551759,0.0150527209378,-0.128364247369,-0.333487803366,-0.111229264282,-0.512458665332,0.3882179594,-0.012111849528,-12.3657941818,0.0858654230833,0.629318058491,0.314648747444,-5.20423030853,0.555585205555
2017/07/09/10:21:04.572036,524924,1499566867,378968338,,0.708834354932,0.109620668708,0.130738882961,0.735615603994,0.674964368377,-0.0551971388035,0.0156863140745,-0.122920467571,-0.333294939451,-0.105479838837,-0.529581652614,0.378588980302,-0.0181414251146,-12.4267559052,0.3995642066,0.348452836275,0.174121558666,-5.2707400322,0.602976322174
2017/07/09/10:21:04.581932,524925,1499566867,388970287,,0.707203657596,0.106063441478,0.129613911899,0.735654189933,0.674613622788,-0.058701183479,0.0162340334069,-0.1438105865,-0.341024144075,-0.111791666223,-0.577569987378,0.439035119701,0.00624604017469,-12.4318408966,0.378310143948,0.299120187759,0.041448879987,-5.36560106277,0.608102917671
2017/07/09/10:21:04.591942,524926,1499566867,398974970,,0.706539959138,0.102920792818,0.128650651523,0.735363292516,0.674625469769,-0.0617891147106,0.0174186355021,-0.144452663535,-0.346289542725,-0.114506859205,-0.583196594423,0.44077764885,0.0256692598064,-11.9274845123,0.709351241589,0.250072568655,-0.00888420641422,-5.31022357941,0.66147339344
2017/07/09/10:21:04.601981,524927,1499566867,408990286,,0.705287778331,0.0997421320273,0.127612405353,0.735016979284,0.674670411108,-0.0651102803179,0.0181804272847,-0.11480401343,-0.333740493532,-0.104746222949,-0.620923851677,0.395358334519,0.0783519385081,-11.0503911972,0.891818940639,0.263510107994,-0.100668475032,-4.87494039536,0.641339242458
2017/07/09/10:21:04.611934,524928,1499566867,418975990,,0.704308145778,0.0965635733865,0.126408822456,0.734818313371,0.674527689644,-0.0685039453711,0.019017142443,-0.109809981396,-0.330454243977,-0.0999835032573,-0.607421028537,0.391313304464,0.0710049666217,-10.6612205505,0.477165460587,0.579527556896,-0.00435937941074,-4.70715332031,0.656013250351
2017/07/09/10:21:04.622022,524929,1499566867,428977554,,0.703276066393,0.0935582798915,0.125377123201,0.734052766585,0.674988881295,-0.071832623155,0.0199153269561,-0.117570099979,-0.351472006034,-0.11579914952,-0.618494302515,0.410728596962,0.0472115201171,-10.4114589691,0.204485327005,0.120277449489,0.060695104301,-4.51472902298,0.657492041588
2017/07/09/10:21:04.632152,524930,1499566867,438971312,,0.702101768716,0.0900137639135,0.124406128331,0.733995270583,0.674653126966,-0.0752781128838,0.0206713995028,-0.107855525802,-0.330331790747,-0.103578705044,-0.609437072292,0.399829142088,0.0834630192159,-10.2151708603,-0.0935130119324,0.173349171877,0.179566979408,-4.39816808701,0.655748903751
2017/07/09/10:21:04.641744,524931,1499566867,448981193,,0.701306198688,0.0875421500847,0.123578332935,0.732974000901,0.675347092621,-0.0786382122641,0.021712900836,-0.0975665832242,-0.349497884796,-0.0951469723747,-0.63840545304,0.374813891319,0.0505006842484,-10.204957962,0.568082213402,0.321933805943,0.0341275557876,-4.4197602272,0.712114870548
2017/07/09/10:21:04.652029,524932,1499566867,458981519,,0.700584000177,0.0843488798063,0.123135989134,0.732896370477,0.675021617864,-0.081790580761,0.0227821521663,-0.102414004744,-0.33924930317,-0.0967309712393,-0.633397007175,0.408328590513,0.0546499357507,-9.73600387573,0.199937090278,0.657299518585,0.189941868186,-4.2797036171,0.746077179909
2017/07/09/10:21:04.662158,524933,1499566867,468977975,,0.698848988959,0.0808529910224,0.121714734867,0.732477946523,0.675002701332,-0.0855640961721,0.0229389733431,-0.0812438897707,-0.326631638098,-0.0788578388269,-0.626993563894,0.37621506546,0.106868619873,-9.36756134033,-0.129087299109,-0.176359057426,0.150856748223,-4.14976549149,0.747307538986
2017/07/09/10:21:04.672056,524934,1499566867,478975663,,0.698957968005,0.0775173243937,0.1214518521,0.732133060679,0.674946075499,-0.0884050436729,0.0247694344473,-0.0900579908204,-0.310607101197,-0.079965005489,-0.600959749298,0.391901856202,0.0581204390375,-8.32628250122,0.523148417473,-0.372595846653,-0.00146567821503,-3.8172018528,0.733564376831
2017/07/09/10:21:04.681999,524935,1499566867,488975082,,0.697530682378,0.0749517997221,0.120195298083,0.731609060566,0.674999671388,-0.0921746505066,0.0250491502493,-0.0849241048586,-0.311502577743,-0.0781620586523,-0.599200189302,0.384375027294,0.0638846805631,-8.53295898438,0.131701126695,-0.574577569962,0.0193649679422,-3.80687046051,0.732801616192
2017/07/09/10:21:04.691957,524936,1499566867,498977152,,0.696864111984,0.0715640714907,0.119454774457,0.731353573113,0.674797173768,-0.0953557689859,0.0260384847767,-0.0820591180361,-0.31064419255,-0.0791944219305,-0.595616988678,0.384901450912,0.0467272033981,-7.81800937653,0.400844097137,-0.529644012451,-0.151896744967,-3.58845114708,0.691342830658
2017/07/09/10:21:04.702044,524937,1499566867,508972110,,0.69634724541,0.0692096622253,0.118396149529,0.730579739719,0.675172022218,-0.0983728277842,0.0268099063706,-0.0568373085822,-0.305136898834,-0.0640944405778,-0.598540068982,0.338176863643,0.0657233902762,-7.51489591599,0.434082537889,-0.813870787621,-0.15742918849,-3.42722725868,0.671948075294
2017/07/09/10:21:04.711944,524938,1499566867,518967354,,0.695706635744,0.0666544345867,0.118102295495,0.730149281601,0.675193842602,-0.101200205371,0.0274557812332,-0.0725197893159,-0.289801386537,-0.0744189920534,-0.578385085598,0.382161934409,0.0927543844648,-7.24219274521,0.358758598566,-0.390640825033,-0.163822039962,-3.28215003014,0.674477040768
2017/07/09/10:21:04.722033,524939,1499566867,528979343,,0.694940095779,0.0642317706075,0.117556171124,0.729630920146,0.675204968909,-0.104579294958,0.0282867706437,-0.077735864756,-0.299294753464,-0.0641040634484,-0.567134487412,0.38680472249,0.0390564803094,-7.05532550812,0.923551857471,0.0900562256575,-0.240751475096,-3.17664241791,0.659844040871
2017/07/09/10:21:04.731972,524940,1499566867,538976684,,0.694644644179,0.0613826877218,0.117277568607,0.729394749881,0.675025857337,-0.107116708831,0.0291444928258,-0.0848997370546,-0.279220594877,-0.0681335936447,-0.521521398597,0.405046305266,0.00922265379603,-5.88425016403,0.597078084946,-0.286434352398,-0.18631914258,-2.77307128906,0.622454881668
2017/07/09/10:21:04.742040,524941,1499566867,548976806,,0.693952537759,0.059198603607,0.116807396084,0.729074042812,0.674894740153,-0.110023589738,0.0293758321351,-0.0867562132322,-0.277577906995,-0.0638424709134,-0.515630026224,0.410363641833,0.00672755053954,-5.61339616776,0.669914722443,0.0642253756523,-0.189275056124,-2.7817697525,0.627135157585
2017/07/09/10:21:04.752085,524942,1499566867,558974420,,0.692916334684,0.0558304840501,0.11625003734,0.7293014214,0.674068124934,-0.113383129813,0.0299310134482,-0.0867285624561,-0.280468934717,-0.0544059100676,-0.513039529953,0.41319932981,-0.00506774874479,-4.66764068604,0.208273887634,-0.636238694191,-0.186569213867,-2.3641204834,0.502137184143
2017/07/09/10:21:04.762006,524943,1499566867,568970704,,0.692237121813,0.0537349998554,0.115602109498,0.728804742209,0.674197285303,-0.115798626634,0.0298721658537,-0.0900385682516,-0.264962837367,-0.0385412326787,-0.479874821085,0.417571483313,-0.0273433822583,-4.09594678879,1.06689929962,-0.613381505013,-0.424830138683,-2.21835589409,0.493429541588
2017/07/09/10:21:04.771965,524944,1499566867,578983250,,0.691007047928,0.0514583419297,0.115194340896,0.728928781448,0.673515137935,-0.119009120939,0.0296145180939,-0.0788950609131,-0.25534655799,-0.0356736380031,-0.442988626783,0.391756986948,-0.0406875202546,-4.13882875443,0.850637733936,-0.544680297375,-0.423273980618,-2.17193627357,0.46633285284
2017/07/09/10:21:04.781919,524945,1499566867,588967630,,0.690865678748,0.0494709402951,0.115014628628,0.728802656148,0.673259665023,-0.121088852797,0.0300932147499,-0.090920474282,-0.236635367747,-0.0342956007936,-0.400202253966,0.419465271704,-0.0642157264161,-3.00728583336,0.928573906422,-0.696900784969,-0.403720259666,-1.7475758791,0.395434916019
2017/07/09/10:21:04.791827,524946,1499566867,598972607,,0.690350476354,0.0467790499845,0.115337331299,0.729326100946,0.672269343012,-0.123277984996,0.0306579083018,-0.073362126287,-0.209848350953,-0.0338524101246,-0.365598811023,0.370655466682,-0.105079837115,-3.22584915161,0.676007270813,-0.21604333818,-0.293832749128,-1.79268050194,0.38215225935
2017/07/09/10:21:04.802018,524947,1499566867,608977260,,0.688483773143,0.0452379648645,0.114567271526,0.729407487271,0.671717891942,-0.126144708737,0.0291084801263,-0.0752530168214,-0.226207316831,-0.0143657361104,-0.338696417187,0.344443797454,-0.158055370949,-4.15731668472,0.416030526161,-0.602493643761,-0.23423075676,-1.95536267757,0.442198812962
2017/07/09/10:21:04.811926,524948,1499566867,618988191,,0.68798328167,0.0444606377214,0.114040236866,0.729104865871,0.671721149292,-0.127996379297,0.028525761048,-0.0853218105926,-0.218484946233,-0.0241394498927,-0.29701595241,0.371899054251,-0.17027403058,-3.02806925774,1.3332965374,-1.27741026878,-0.399173349142,-1.52110302448,0.364980727434
2017/07/09/10:21:04.822013,524949,1499566867,628969242,,0.687553866265,0.0411745708463,0.114210986847,0.729927396384,0.670374075941,-0.13022226753,0.0290990610532,-0.0842951657289,-0.185104461121,-0.0302247330889,-0.230992897077,0.370847271192,-0.174005109225,-1.22094011307,0.553707957268,-1.42411780357,-0.340264797211,-0.880669057369,0.239786237478
2017/07/09/10:21:04.832114,524950,1499566867,638969505,,0.686852134204,0.0393043752694,0.114045778647,0.730687229363,0.669248283594,-0.131876359792,0.0284874267089,-0.0665873520078,-0.197922511772,-0.00683880487966,-0.254460927052,0.322912868663,-0.20009432344,-1.24329209328,0.674524486065,-0.931620359421,-0.330198705196,-0.893863320351,0.226969748735
2017/07/09/10:21:04.842318,524951,1499566867,648969295,,0.686037539447,0.0376426764888,0.114145882291,0.730905190455,0.668662082355,-0.133719257349,0.0280674615857,-0.0631089358005,-0.185993894871,-0.000703973044353,-0.243750001158,0.312139292892,-0.189984829503,-2.07552027702,0.712687909603,-1.11392903328,-0.394295305014,-1.18563890457,0.27599593997
2017/07/09/10:21:04.852190,524952,1499566867,658976176,,0.685133406675,0.036217891544,0.113787803991,0.731471439982,0.667642316543,-0.135825796456,0.0274703962127,-0.0610756470875,-0.176509621743,-0.00651553704031,-0.201582795383,0.303106954515,-0.231594354279,-2.60403513908,0.740630865097,-0.898588955402,-0.250214725733,-1.38203847408,0.351007729769
2017/07/09/10:21:04.861749,524953,1499566867,668971879,,0.685218614388,0.034422603962,0.11390093233,0.732455718776,0.666434537833,-0.13648678724,0.0272943899863,-0.068252145128,-0.180874597745,-0.0104755913833,-0.178600526852,0.290932564379,-0.249941656907,-2.49580097198,0.35683965683,-0.63788831234,-0.214951679111,-1.39365363121,0.321358650923
2017/07/09/10:21:04.872005,524954,1499566867,678973543,,0.68465047932,0.0325421828312,0.114055026669,0.732907195973,0.665620710419,-0.138080487582,0.0270164931307,-0.0489442903844,-0.159200638916,-0.00489485858188,-0.144507805695,0.247818755555,-0.225618714817,-1.87526571751,0.0325416103005,-0.512221813202,-0.148074999452,-1.1955653429,0.308744847775
2017/07/09/10:21:04.882070,524955,1499566867,688976021,,0.683955877738,0.0306432917878,0.114030215353,0.733275016671,0.66487984601,-0.139756393329,0.0266587850408,-0.0339994923505,-0.176643869128,0.00457435949536,-0.168536384619,0.202140691788,-0.241531494788,-0.914978861809,-0.0927756428719,-0.564864456654,-0.325904220343,-0.795496761799,0.225902438164
2017/07/09/10:21:04.892057,524956,1499566867,698969471,,0.683644092483,0.0293028445613,0.113691557762,0.733843531939,0.6639800582,-0.14109949089,0.0263644953354,-0.041139758544,-0.197197593107,0.00561284530423,-0.198861753523,0.205277629028,-0.247540689545,-0.844265401363,0.531798958778,-1.4347589016,-0.578971087933,-0.705233812332,0.22237315774
2017/07/09/10:21:04.901816,524957,1499566867,708970188,,0.68367929008,0.0272982834265,0.114083219157,0.734164151077,0.663367744995,-0.142223247048,0.0268101132411,-0.0315854381856,-0.195037269773,0.00346643304111,-0.219062746519,0.199683441908,-0.200731496775,-0.323868244886,0.210155308247,-1.15973782539,-0.500253617764,-0.590663552284,0.155105113983
2017/07/09/10:21:04.911982,524958,1499566867,718977521,,0.682962923532,0.0248799065835,0.114014239504,0.734798568316,0.662232973906,-0.144229248546,0.0267670718634,-0.032595559621,-0.195140596513,-0.000945180660106,-0.20896769796,0.19488353587,-0.185603979758,-0.706685006618,0.456825971603,-1.35441923141,-0.478689938784,-0.71582877636,0.169511407614
2017/07/09/10:21:04.921949,524959,1499566867,728975366,,0.683186993676,0.0234610342709,0.114335257154,0.735668821181,0.66117606005,-0.144588242836,0.0270526004729,-0.0224836750783,-0.198660458738,0.0110493355938,-0.226850624116,0.165500973173,-0.213488993731,-0.317190468311,0.456459522247,-1.14739441872,-0.392976462841,-0.608198940754,0.139532968402
2017/07/09/10:21:04.932005,524960,1499566867,738975041,,0.683171625483,0.0222014252711,0.114054074879,0.735871765041,0.66077197638,-0.145462123863,0.0267191161439,-0.0294392295939,-0.181416079374,0.00397041771783,-0.174867065076,0.169487589012,-0.235625548374,-0.154178246856,0.960007667542,-1.48376870155,-0.403712004423,-0.507627725601,0.138909056783
2017/07/09/10:21:04.942112,524961,1499566867,748983447,,0.682830909893,0.0202093660616,0.114022957896,0.73681970088,0.659493154624,-0.14650553156,0.0264884242877,-0.0410392694309,-0.189126352157,-0.00484628187371,-0.144841846309,0.177735560273,-0.254004138596,0.17212036252,0.666509747505,-1.34361255169,-0.306883782148,-0.445747047663,0.147513687611
2017/07/09/10:21:04.952054,524962,1499566867,758976464,,0.681798403825,0.0185805265455,0.113848554907,0.737222961178,0.658689348914,-0.148188131414,0.0259022170278,-0.0259750922146,-0.177100573402,0.000795593093769,-0.123190741903,0.135267725589,-0.255848761806,-0.0794838145375,0.673047542572,-1.61121809483,-0.242997631431,-0.455370783806,0.13098461926
2017/07/09/10:21:04.961843,524963,1499566867,768973470,,0.681946556092,0.0164979943337,0.114168576366,0.738519642774,0.657156149914,-0.148529402449,0.0259528124725,-0.0388231344168,-0.178807004881,0.00558796172866,-0.12056838574,0.16198575955,-0.270720417652,0.303613185883,0.477972060442,-1.25367486477,-0.263822734356,-0.411043673754,0.0903661251068
2017/07/09/10:21:04.971873,524964,1499566867,778969466,,0.681074018138,0.0152954403591,0.114013185039,0.738963166415,0.656409897803,-0.149747346962,0.0252035082282,-0.0466374872582,-0.175490266967,-0.00216417147717,-0.0856601377204,0.167071657429,-0.293569679189,0.340496718884,1.16971480846,-1.62295937538,-0.490860372782,-0.304660856724,0.0823755934834
2017/07/09/10:21:04.982028,524965,1499566867,788973223,,0.681136676043,0.013084689865,0.114094087089,0.74013050591,0.655086382692,-0.149807690339,0.0250264130262,-0.0381145098816,-0.192795355496,0.0044248334681,-0.0849726520193,0.123122830733,-0.334632662321,0.026240311563,0.334027647972,-0.826496899128,-0.374351978302,-0.484645903111,0.0851261988282
2017/07/09/10:21:04.992075,524966,1499566867,798974368,,0.680389021245,0.0116470758129,0.113950983463,0.740846249632,0.65414344975,-0.15052561577,0.0241913322023,-0.0334381339043,-0.171809809158,-0.00142710182853,-0.0444236116206,0.104738381588,-0.330130237057,-0.184115946293,0.362121224403,-0.633286356926,-0.382648617029,-0.514338254929,0.126223877072
2017/07/09/10:21:05.002120,524967,1499566867,808976120,,0.68040437358,0.0107027216913,0.113842999098,0.741741078147,0.653107862406,-0.150691982531,0.0237111672794,-0.0373026153158,-0.164439265796,-0.00903581005333,-0.0126657969792,0.100631510619,-0.320701663726,0.00263053574599,0.664066135883,-1.07289981842,-0.351226061583,-0.434815496206,0.124143213034
2017/07/09/10:21:05.012003,524968,1499566867,818972654,,0.679973285628,0.00922039152576,0.113777360213,0.742712624982,0.651887606376,-0.151259427572,0.0232613610199,-0.0259638650044,-0.166466378027,-8.2110276906e-06,-0.00717727195235,0.0730275036934,-0.321865063557,-0.0659586340189,0.90677523613,-0.902713179588,-0.324406862259,-0.43212890625,0.102214641869
2017/07/09/10:21:05.021954,524969,1499566867,828994752,,0.679948555521,0.00719732077894,0.114290066442,0.743528391126,0.650909958124,-0.151444137467,0.0233758685972,-0.0490778798392,-0.166627862502,-0.0126671473281,-0.0118994691869,0.109770328187,-0.351666912231,-0.047838114202,0.39440959692,-0.400538831949,-0.245286747813,-0.536928355694,0.0656791329384
2017/07/09/10:21:05.032034,524970,1499566867,838973774,,0.67926193951,0.0051486468248,0.113229599292,0.744892544103,0.649263330949,-0.151929933164,0.0225725548591,-0.0317819308135,-0.169732193433,-0.0103871189598,-0.0248276508612,0.0736825333684,-0.333174098847,-0.501006007195,0.394676029682,-0.940087139606,-0.380789190531,-0.658672094345,0.106099180877
2017/07/09/10:21:05.041888,524971,1499566867,848969076,,0.679426462848,0.00325724890719,0.113749509126,0.746351324551,0.647582162831,-0.151934157546,0.0226507062796,-0.00961125555346,-0.174134688228,-0.000889043053298,-0.0178641170523,0.0163380549333,-0.312848932308,-0.311792492867,0.400095164776,-0.649105608463,-0.263869017363,-0.586194455624,0.0991784408689
2017/07/09/10:21:05.052162,524972,1499566867,858993330,,0.678910339713,0.00172288882152,0.113605102296,0.747197271072,0.646576755825,-0.152143186094,0.0220723323056,-0.0206556833942,-0.192648653186,-0.00240799617573,-0.00655371000676,0.011475142258,-0.357459801895,-0.449956685305,1.40471947193,-0.407970786095,-0.4898250103,-0.632592141628,0.118858397007
2017/07/09/10:21:05.062081,524973,1499566867,868967383,,0.678894832702,-0.00037125980976,0.113149051627,0.748213259995,0.645418040178,-0.152104176737,0.0218355306631,-0.027143092625,-0.166233925363,-0.0133234660966,0.0237979495963,0.0249885063753,-0.345782197546,-0.540589809418,1.02260005474,-0.706076085567,-0.472371786833,-0.695243537426,0.170215681195
2017/07/09/10:21:05.072032,524974,1499566867,878977126,,0.678410180794,-0.00188808507016,0.112749944414,0.749444823248,0.644001975374,-0.152127345703,0.0212410760294,-0.0256207863037,-0.179569673711,-0.0262874625362,0.0174687870865,0.0154372357428,-0.35558650343,-0.514327764511,1.02886891365,-0.870347380638,-0.49566257,-0.659415721893,0.134410709143
2017/07/09/10:21:05.082239,524975,1499566867,888971904,,0.678778638153,-0.00367447992158,0.113108886608,0.750510277315,0.642896031553,-0.151521763931,0.0214516039861,-0.0164954830975,-0.189789070555,-0.013581667601,0.00459466587064,-0.0111930410063,-0.347874009018,-0.654562652111,1.04013943672,-0.581342160702,-0.440265089273,-0.740178525448,0.174658253789
2017/07/09/10:21:05.091768,524976,1499566867,898993781,,0.677944849297,-0.00535615976663,0.112503744554,0.751547896893,0.641626522242,-0.151887267579,0.0205285795277,-0.0231002078736,-0.183018652768,-0.0176767070404,0.0311296187799,-0.0202254333961,-0.348110157516,-0.386459320784,1.33186376095,-0.863886833191,-0.544367849827,-0.641240060329,0.110693186522
2017/07/09/10:21:05.101869,524977,1499566867,908967849,,0.677795129876,-0.00710589949403,0.112511933332,0.752905525414,0.6401115075,-0.151591983091,0.0202582928468,-0.0366107929395,-0.195029555425,-0.0202390668489,0.0282673159283,0.00455970396417,-0.36320265655,-0.675155460835,0.999261260033,-0.951016187668,-0.519627153873,-0.739111423492,0.118499517441
2017/07/09/10:21:05.111963,524978,1499566867,918968578,,0.677354072333,-0.00899930216119,0.111919754161,0.753680392457,0.639175813169,-0.151717291034,0.0200501742187,-0.0301279293706,-0.176152089649,-0.0309622159207,0.0423911926818,-0.00345970945963,-0.341936894293,-1.21793580055,0.411128133535,-0.816716074944,-0.298640817404,-0.982809245586,0.183747977018
2017/07/09/10:21:05.121946,524979,1499566867,928968531,,0.677379929512,-0.0107930532181,0.11147468519,0.754826454313,0.637898109449,-0.151428129434,0.0198128101816,-0.0160865198998,-0.179859899454,-0.0313976241521,0.0429154020896,-0.0507197873146,-0.36016550497,-0.947328805923,0.703815162182,-1.04996800423,-0.440546691418,-0.86167883873,0.149061530828
2017/07/09/10:21:05.131958,524980,1499566867,938976106,,0.676841703815,-0.0119843741709,0.110703200835,0.755479279482,0.637130393881,-0.151511418042,0.0189791904352,-0.0345470510291,-0.196292992328,-0.0435206095246,0.0414020007613,-0.0212288024156,-0.347913981651,-1.18193507195,0.864792823792,-1.00651073456,-0.398504734039,-0.965330779552,0.182145759463
2017/07/09/10:21:05.141853,524981,1499566867,948975572,,0.676545084786,-0.0142456709379,0.110655257284,0.75669468329,0.635748936713,-0.151229504691,0.0191332866916,-0.0393219033208,-0.194808008962,-0.0490105092348,0.05136385179,-0.014623992548,-0.355054768393,-1.01410412788,0.630593061447,-1.0772356987,-0.387223780155,-0.858644425869,0.0998169034719
2017/07/09/10:21:05.152406,524982,1499566867,958972928,,0.675873753409,-0.0164355761924,0.110159254827,0.75794900736,0.63427963111,-0.151215480699,0.0183447594167,-0.0225964535925,-0.17589950658,-0.0477424143969,0.0465573441527,-0.0350226782171,-0.316507760305,-1.77610111237,0.365547418594,-1.18402779102,-0.424951463938,-1.0441865921,0.15020596981
2017/07/09/10:21:05.161991,524983,1499566867,968971334,,0.675386421026,-0.0186361519036,0.10924234959,0.758860970773,0.633242998718,-0.151025814842,0.0180148511816,-0.0407982227134,-0.181647312709,-0.0559097489149,0.0442986012159,0.00261256276295,-0.315683654323,-1.66216576099,-0.106278032064,-0.833916604519,-0.282173871994,-1.11164391041,0.109791569412
2017/07/09/10:21:05.172118,524984,1499566867,978969363,,0.674823599501,-0.0202213755841,0.108891046364,0.760165577726,0.631714513581,-0.150927740586,0.0174895652874,-0.0633676745219,-0.211350999719,-0.0733236298512,0.0374952527173,0.0259493723232,-0.351466622436,-1.24030327797,0.173232451081,-0.890978693962,-0.322990894318,-0.887325227261,0.0685687661171
2017/07/09/10:21:05.182132,524985,1499566867,988970439,,0.674943069178,-0.0221096835447,0.108667813266,0.760731080574,0.631042543808,-0.150845054033,0.017868985047,-0.0546550470026,-0.19329591235,-0.0564091078373,0.0395471311367,0.00886748421156,-0.310663018315,-1.1120762825,0.760005235672,-0.72147589922,-0.487890839577,-0.87109708786,0.0835220068693
2017/07/09/10:21:05.192129,524986,1499566867,998984666,,0.673775957187,-0.0237510057793,0.107576444405,0.761462121541,0.63011974601,-0.151141727778,0.0167547387694,-0.0356592752374,-0.182916359263,-0.0565930764339,0.0377826398793,-0.0270342298085,-0.277642773961,-1.36427795887,1.15446782112,-1.13421225548,-0.571689069271,-0.914081096649,0.103514358401
2017/07/09/10:21:05.202064,524987,1499566868,8975931,,0.67368998171,-0.0250608933314,0.106865796078,0.762291652333,0.629250040685,-0.150600695992,0.0165907639435,-0.0519690100205,-0.19004938046,-0.0704385750041,0.0356387822919,0.0162740957086,-0.252960590094,-1.57032120228,1.10090255737,-1.23466253281,-0.508109509945,-0.985507726669,0.129327654839
2017/07/09/10:21:05.211954,524988,1499566868,18970984,,0.672509240694,-0.0275620753806,0.105877398763,0.762846122607,0.628430995422,-0.151280071177,0.0159567315435,-0.0544542160152,-0.195709873482,-0.0634482474213,0.0267580016645,0.00933268865394,-0.280142673846,-1.73552930355,0.44569504261,-1.35244452953,-0.402597546577,-0.940803289413,0.0918413475156
2017/07/09/10:21:05.221747,524989,1499566868,28967546,,0.672325155476,-0.0287578149256,0.105778406204,0.763758625249,0.627369546469,-0.151109700858,0.0156867086406,-0.0679840770173,-0.207622735199,-0.0636506582885,0.0086063722174,0.038838173093,-0.285035655294,-1.38528394699,1.14576935768,-0.690713047981,-0.454274892807,-0.979646384716,0.127468198538
2017/07/09/10:21:05.231977,524990,1499566868,38973549,,0.671817859274,-0.0313543951596,0.105405811059,0.765109652629,0.625712614265,-0.15112995823,0.0158328623265,-0.0910544776082,-0.217244126678,-0.0762729759429,0.00792793207091,0.0726622545926,-0.337412266334,-1.39842069149,0.355516195297,-1.10619091988,-0.334600865841,-0.928707540035,0.0424641817808
2017/07/09/10:21:05.241746,524991,1499566868,48972853,,0.670633149824,-0.0337781114286,0.104523838419,0.766328354817,0.624162915831,-0.151441446251,0.0150663686048,-0.0947926915338,-0.215318247586,-0.0761451767168,-0.00475689487583,0.0910100126771,-0.318550238924,-1.37820565701,0.0374403893948,-0.89518404007,-0.352263092995,-0.973410904408,0.0397329926491
2017/07/09/10:21:05.251729,524992,1499566868,59007626,,0.670069453426,-0.0350354409424,0.103567206681,0.766636682665,0.623629324407,-0.152105813251,0.014781207875,-0.0866600728607,-0.212779519454,-0.067345334197,-0.0123379830663,0.0792776500451,-0.31225855788,-1.26129436493,1.14372444153,-0.774543762207,-0.531197309494,-1.05477130413,0.122973501682
2017/07/09/10:21:05.261780,524993,1499566868,68982074,,0.669076275055,-0.0363387131075,0.102670908816,0.767356444574,0.622782236585,-0.152050695613,0.0136732851835,-0.0846488229541,-0.197439343881,-0.0784080435894,0.0109386370838,0.0787162882425,-0.326507986928,-1.06609916687,0.895006537437,-0.816676914692,-0.537769317627,-0.937443077564,0.0446531325579
2017/07/09/10:21:05.272059,524994,1499566868,78975339,,0.66823979326,-0.0385480930491,0.10231886394,0.768083938437,0.621731424769,-0.152706008122,0.0133406916221,-0.0869129696646,-0.198602281023,-0.0834704447481,0.0119706042433,0.0826646567584,-0.287152660341,-1.16846251488,0.865284204483,-0.768723249435,-0.373501777649,-0.992174863815,0.118400812149
2017/07/09/10:21:05.282148,524995,1499566868,88971738,,0.667172082198,-0.0415018943383,0.101105845016,0.769051165935,0.620476895409,-0.152961132788,0.0131003165242,-0.0756478359128,-0.206994556768,-0.0625897653378,-0.000878102161185,0.0558797316908,-0.254105483899,-1.53146517277,0.240890815854,-1.12504458427,-0.328087031841,-1.02590000629,0.070108525455
2017/07/09/10:21:05.292085,524996,1499566868,98979346,,0.666614852092,-0.0436915530016,0.100864508305,0.769840400345,0.619451442343,-0.153150032395,0.013066604502,-0.0902470963338,-0.199669047729,-0.080930896114,0.00328559718202,0.0856964487022,-0.239479858516,-0.797066867352,0.0505116730928,-1.21336138248,-0.245459228754,-0.724755764008,-0.00856896489859
2017/07/09/10:21:05.301956,524997,1499566868,109008573,,0.665367916503,-0.0451973270059,0.0998418366573,0.770119605072,0.619014307573,-0.153584725675,0.0121988910498,-0.0839773676482,-0.189860350492,-0.0897854616711,0.00917451283633,0.0806298970952,-0.241060261402,-0.714973449707,0.210164055228,-1.06266343594,-0.405700355768,-0.600310623646,-0.0325660705566
2017/07/09/10:21:05.312070,524998,1499566868,118976588,,0.664499041314,-0.0470190220912,0.0987286741433,0.770661186366,0.618258164365,-0.153964199474,0.0115413736177,-0.0918926875806,-0.20413330138,-0.0844904161309,0.00867236528479,0.102825857398,-0.194420625174,-0.500666618347,-0.219264477491,-1.08493793011,-0.232149258256,-0.555562973022,-0.0676638633013
2017/07/09/10:21:05.321907,524999,1499566868,128971820,,0.663514581132,-0.0485758833153,0.097605633573,0.770819569181,0.617850911199,-0.154849568132,0.0109112120083,-0.104813689806,-0.209643506705,-0.0875829481655,0.00799988519061,0.113651846482,-0.229279807085,-0.901579260826,0.732961416245,-1.40192127228,-0.44517827034,-0.715282797813,0.0339962616563
2017/07/09/10:21:05.331954,525000,1499566868,138969620,,0.662984263057,-0.0510433865056,0.0976891035252,0.77124835495,0.617306318516,-0.154875431218,0.0110672901693,-0.0999616053513,-0.204944133836,-0.0858961878412,-0.00518111911845,0.125137265142,-0.181630649485,-0.286195278168,0.459925830364,-0.91183590889,-0.309363663197,-0.549645721912,-0.0209025070071
2017/07/09/10:21:05.342402,525001,1499566868,148973001,,0.662011441144,-0.052637598085,0.0963613929854,0.771115072474,0.617302222231,-0.155601182982,0.0103818730288,-0.0989769155618,-0.227703552818,-0.0805917462532,-0.0277983043957,0.127408779497,-0.107259465733,-0.966103971004,0.312763094902,-1.09543979168,-0.278571009636,-0.694092154503,0.0113619863987
2017/07/09/10:21:05.352066,525002,1499566868,158972705,,0.661617646213,-0.054203291573,0.0957873016233,0.771044914654,0.617362163208,-0.155727572788,0.0101302566263,-0.100344969388,-0.213178400853,-0.0828400196994,-0.0359375169428,0.161825220858,-0.0390436628765,-0.839033722878,0.65875607729,-1.05599009991,-0.307619005442,-0.701507091522,-0.0313684716821
2017/07/09/10:21:05.362145,525003,1499566868,168976331,,0.659798347268,-0.0572717101331,0.0948766012298,0.772017311664,0.615814622082,-0.157053486376,0.00978898044264,-0.0938934123966,-0.209812751888,-0.0897029004496,-0.0243313094507,0.133112264328,-0.0707165454941,-0.426172018051,0.582053720951,-1.0005903244,-0.18775588274,-0.574228823185,-0.141823261976
2017/07/09/10:21:05.371980,525004,1499566868,178973570,,0.659293025385,-0.0585698350655,0.0938936876378,0.772457611448,0.615228505905,-0.157206869192,0.00944056761121,-0.0792180435655,-0.21758283624,-0.0771391269106,-0.0472265970509,0.0606966259538,-0.203010394943,-1.64389979839,0.803311705589,-1.05433940887,-0.257208108902,-0.967790067196,-0.0248813331127
2017/07/09/10:21:05.382154,525005,1499566868,188968395,,0.659102010807,-0.0603990452495,0.0932076920943,0.773251611223,0.614295696652,-0.156934903588,0.00970457888823,-0.09400906442,-0.212191460006,-0.10000343872,-0.0209446098182,0.0605074809442,-0.282639189319,-1.21472978592,1.12338542938,-0.819639205933,-0.291904091835,-0.925580203533,-0.0145575553179
2017/07/09/10:21:05.392146,525006,1499566868,198969011,,0.658263754766,-0.0622242732543,0.0919931919337,0.773871407404,0.613523593432,-0.156925630881,0.00928393647269,-0.0573464608975,-0.186793791656,-0.0982056466582,-0.0180367115403,-0.0103272851238,-0.247465559457,-1.10181796551,0.802550494671,-1.30145323277,-0.358493953943,-0.72179967165,-0.0333011746407
2017/07/09/10:21:05.401970,525007,1499566868,208967116,,0.657606494187,-0.0645705239789,0.091429923534,0.774851417779,0.612250625509,-0.157056926929,0.00935807848067,-0.0817989811104,-0.184625338943,-0.105310713322,-0.0110464051928,0.0442474375732,-0.231773229882,-1.31891477108,0.871188163757,-0.434306621552,-0.524758398533,-0.881278216839,0.00452634692192
2017/07/09/10:21:05.412025,525008,1499566868,218972200,,0.656382421405,-0.0664406507915,0.0898670623682,0.775362040144,0.611471873294,-0.1576037735,0.00876957536964,-0.0754447476206,-0.180724841819,-0.106479195379,-0.021651536966,0.0396564343174,-0.203600946396,-1.37677407265,0.545066893101,-0.690699160099,-0.377658307552,-0.867764234543,0.00530189275742
2017/07/09/10:21:05.421711,525009,1499566868,228971338,,0.655702550449,-0.0679426216034,0.0891352568327,0.775911566373,0.61062421517,-0.158191888084,0.0086391874725,-0.06824956743,-0.192649496246,-0.0923036163159,-0.0275063680742,0.0172695479699,-0.219592919757,-1.53968811035,1.01497232914,-0.882488131523,-0.432340055704,-0.944697916508,0.0500725954771
2017/07/09/10:21:05.432194,525010,1499566868,238976526,,0.655019538015,-0.0697163025156,0.0880385987775,0.776568431783,0.609785120251,-0.15821297793,0.00849891128545,-0.0927748967925,-0.19925223968,-0.0995658626306,-0.0300370721186,0.0694938333304,-0.225877349237,-1.12353920937,0.576852619648,-0.972861409187,-0.355772256851,-0.74975758791,-0.0462252497673
2017/07/09/10:21:05.442149,525011,1499566868,248969183,,0.654439418235,-0.0716023272493,0.0871497199863,0.776832249712,0.60936389914,-0.158536103035,0.00857894323543,-0.0978456905426,-0.201915000568,-0.105852163059,-0.0381762100591,0.0669595445208,-0.243795733359,-0.552613258362,1.1157078743,-0.777249336243,-0.49144539237,-0.642253398895,-0.0367923825979
2017/07/09/10:21:05.451916,525012,1499566868,258981199,,0.653515530532,-0.0732804103924,0.086411795828,0.777511813961,0.608411216066,-0.158877311317,0.00831692645372,-0.073187089321,-0.173883869719,-0.0934600902627,-0.0394964928514,0.0387757606091,-0.199854864354,-1.64479899406,0.385856151581,-0.930926680565,-0.393752098083,-0.907040774822,-0.0154625624418
2017/07/09/10:21:05.461881,525013,1499566868,268969304,,0.65265539525,-0.0747660141423,0.0853723965052,0.777930237531,0.607809492481,-0.159153467761,0.00789557374429,-0.0904852873531,-0.184784218843,-0.100249959368,-0.0364568898393,0.0615276689512,-0.202503300318,-0.686910450459,0.742017626762,-0.887357711792,-0.415034711361,-0.61656421423,-0.0635796636343
2017/07/09/10:21:05.471846,525014,1499566868,278972177,,0.651712858555,-0.0765135577438,0.0842739011358,0.77818314594,0.607419289093,-0.159422948485,0.00755791696436,-0.0835730340515,-0.177294573697,-0.0998998316811,-0.0342071649805,0.0564635557852,-0.153566128189,-1.03075933456,0.133400648832,-0.51850771904,-0.133360475302,-0.785596489906,-0.0685124844313
2017/07/09/10:21:05.482122,525015,1499566868,289002336,,0.651078986972,-0.078455198038,0.0832794632965,0.778707636466,0.606560074836,-0.160110595547,0.00799310436034,-0.0847090573293,-0.200498266744,-0.0969551291611,-0.0481038656117,0.0295193210829,-0.180017976678,-0.778460979462,0.326766312122,-0.87065166235,-0.14434376359,-0.708699405193,-0.086660772562
2017/07/09/10:21:05.492123,525016,1499566868,298981523,,0.649803470731,-0.0805249964892,0.0821012180749,0.779433984854,0.605496247333,-0.160620159963,0.00762377423799,-0.0930773449239,-0.182311421922,-0.118749158098,-0.0323363905835,0.0682610291766,-0.17188260367,-1.2452352047,0.169403716922,-0.884741663933,-0.165707096457,-0.768458008766,-0.0898427218199
2017/07/09/10:21:05.501893,525017,1499566868,308967918,,0.649351521197,-0.0820925872392,0.081310327905,0.779610201256,0.605249561337,-0.160699562208,0.00752019318745,-0.101405221328,-0.18764132374,-0.118512144765,-0.0432471237715,0.0751376504415,-0.185498464698,-0.533413529396,0.142885237932,-0.309433043003,-0.147667303681,-0.443237602711,-0.189813494682
2017/07/09/10:21:05.512120,525018,1499566868,318981050,,0.648435756051,-0.0829204100152,0.0797926196253,0.779774540113,0.604935691127,-0.16111323077,0.00685587800617,-0.0737008982543,-0.163947319789,-0.111172560399,-0.0153111885145,0.0421286916278,-0.141035094346,-0.904318928719,0.954162478447,-0.68144518137,-0.395454794168,-0.522362530231,-0.123419947922
2017/07/09/10:21:05.521958,525019,1499566868,328968202,,0.647516915508,-0.0854569271243,0.0794978828656,0.780413360102,0.604056899774,-0.161315238799,0.00690238661688,-0.0686615875689,-0.136410157325,-0.0988321026382,0.0129136641947,0.0474063940827,-0.114374217546,-1.61404705048,0.151611894369,0.124487876892,-0.234741345048,-0.696821272373,-0.122858121991
2017/07/09/10:21:05.531935,525020,1499566868,338981048,,0.647348596575,-0.0861041636241,0.0785250825095,0.780719588955,0.603755769871,-0.16096534218,0.00678619080853,-0.0907860284928,-0.164023376789,-0.0909629407553,-0.0335046927643,0.0855728405685,-0.120158541161,-0.997728824615,0.805328011513,-0.164519220591,-0.400293827057,-0.464533805847,-0.0675883963704
2017/07/09/10:21:05.541945,525021,1499566868,348980181,,0.646144198164,-0.088036736563,0.0779908203815,0.780679090381,0.603467182678,-0.16224185802,0.00671541345845,-0.104310872978,-0.163197779074,-0.0933309708146,-0.042801541433,0.126797461707,-0.0950633648252,-0.707143545151,0.814737677574,0.100896120071,-0.367544412613,-0.428541779518,-0.0982045903802
2017/07/09/10:21:05.552241,525022,1499566868,358976102,,0.64442394357,-0.0893333187549,0.076571624054,0.780172252605,0.603779708034,-0.163552366782,0.00565188043722,-0.127226850461,-0.181179835901,-0.0918289476412,-0.0605273536114,0.191832701156,-0.0851903831841,-0.836265087128,0.974909424782,-0.4642547369,-0.401065349579,-0.408536672592,-0.0994047597051
2017/07/09/10:21:05.561754,525023,1499566868,368969358,,0.64271659498,-0.0924228868512,0.0761478296953,0.780657477726,0.602759296765,-0.164993337869,0.00568604358022,-0.138451123104,-0.174699451674,-0.0755967794528,-0.0721071982071,0.227995004687,-0.0466274675912,-1.39560544491,-0.278703868389,-0.173995554447,-0.145083874464,-0.568993628025,-0.148271217942
2017/07/09/10:21:05.572061,525024,1499566868,378976248,,0.642166561092,-0.0929839253769,0.074977435089,0.780002014386,0.60348312448,-0.165466487399,0.0050810992453,-0.118097214323,-0.16297583514,-0.0856139334323,-0.074894256681,0.223001523371,0.0414741759614,-0.471183419228,0.357337504625,-0.696329712868,-0.199145764112,-0.292856484652,-0.19895721972
2017/07/09/10:21:05.582017,525025,1499566868,388981460,,0.6410648268,-0.0951184506407,0.0746719207781,0.779895661258,0.603313642599,-0.166575271137,0.00529955192836,-0.108919415525,-0.171288157325,-0.078196619963,-0.0806101706586,0.196520582292,0.0412327925506,-0.00390061736107,-0.171026915312,-0.14282104373,-0.0108259916306,-0.156495779753,-0.238745376468
2017/07/09/10:21:05.592130,525026,1499566868,398981340,,0.639990764884,-0.0961094568806,0.0739278824869,0.779748227415,0.603356913275,-0.167129835034,0.00455579725017,-0.117827519626,-0.161540125081,-0.0754442392776,-0.0444470867281,0.207238040837,0.0334098831579,-0.302876293659,0.367607593536,-0.513297438622,-0.137024760246,-0.271060526371,-0.168714344501
2017/07/09/10:21:05.602009,525027,1499566868,408987343,,0.639161169079,-0.096969084558,0.0729846887678,0.779291506156,0.603769807316,-0.167783818854,0.00391897146129,-0.106066942376,-0.130473678596,-0.0818429324525,-0.0172980874206,0.212613617764,0.0779489616819,-1.16033613682,0.565616250038,-0.12922039628,-0.242042720318,-0.615992665291,-0.0609744936228
2017/07/09/10:21:05.611861,525028,1499566868,419004525,,0.636918054487,-0.0994503160224,0.0716617374387,0.77911275196,0.60349331218,-0.169616945265,0.00303871123144,-0.124867397198,-0.179313226735,-0.0755216219662,-0.0472498637929,0.207557061775,0.0348055317351,-2.10637402534,0.0844310373068,-0.448005437851,-0.176544457674,-0.884116411209,0.0261818096042
2017/07/09/10:21:05.621882,525029,1499566868,428972528,,0.63642145767,-0.100427011074,0.0714279885399,0.778285976978,0.604360721599,-0.170322533807,0.00304806589932,-0.13688293822,-0.189987158774,-0.0735546362108,-0.0583587972692,0.226395534064,0.0244257945638,-1.37632751465,0.460234045982,-0.528293073177,-0.229291856289,-0.629159331322,0.00820344686508
2017/07/09/10:21:05.633030,525030,1499566868,438982855,,0.635960311801,-0.101993451203,0.0709920959165,0.778170571297,0.604460201568,-0.17049532719,0.00312571490682,-0.131232478706,-0.161739669629,-0.0910503139346,-0.0232769862864,0.228250214599,0.0366206182318,0.370375961065,0.272034436464,-0.294592440128,-0.0817222595215,-0.112181663513,-0.117203123868
2017/07/09/10:21:05.642228,525031,1499566868,448976561,,0.633971621297,-0.10332115861,0.0695630158642,0.777512149999,0.604771258414,-0.172402953708,0.00195016736398,-0.118356827193,-0.1524247145,-0.0720390142202,-0.0360601904129,0.219488408731,0.0594832538988,0.0389858931303,0.429045468569,-0.582779407501,-0.22673907876,-0.22139275074,-0.0874007940292
2017/07/09/10:21:05.651910,525032,1499566868,458976688,,0.633237989409,-0.104309082755,0.0689904901736,0.777470633838,0.60472937334,-0.17274185752,0.00143150261891,-0.106905145559,-0.137663683796,-0.074607519972,-0.0460761288953,0.209212789941,0.0676159838762,-0.192313343287,0.663352668285,-0.7414316535,-0.172526478767,-0.296554625034,-0.063040830195
2017/07/09/10:21:05.661959,525033,1499566868,468991403,,0.632769731977,-0.106072075433,0.0687988003689,0.77769028546,0.604305155963,-0.17323105437,0.0020248898066,-0.0891248823933,-0.124439441734,-0.0747601214579,-0.0415294824524,0.162959243307,0.0447575236981,-0.536452233791,0.453825235367,-0.190265983343,-0.144979298115,-0.424412786961,-0.0373292565346
2017/07/09/10:21:05.671962,525034,1499566868,478973792,,0.631273886692,-0.106364750425,0.0672739282006,0.7767604397,0.605257144955,-0.174088098883,0.000584486455413,-0.0910405776135,-0.121286282066,-0.0814260787453,-0.0375232981711,0.15638159122,0.0192887886928,-1.11598145962,0.928975939751,-0.508518517017,-0.179294079542,-0.553369581699,0.0222589075565
2017/07/09/10:21:05.681921,525035,1499566868,488979243,,0.630918914859,-0.108283897507,0.0670182681806,0.777123780775,0.604648149744,-0.17457849089,0.00126288698274,-0.0988210303447,-0.0996509419688,-0.0917520975677,0.011308732025,0.18202729394,0.0436954123586,-0.782204151154,0.330752164125,-0.0352283418179,-0.158463075757,-0.375699907541,-0.0648398026824
2017/07/09/10:21:05.691989,525036,1499566868,498973402,,0.629090491557,-0.108664902608,0.065529637784,0.776842055859,0.604774660264,-0.175395759507,-0.000598413391723,-0.0971874784476,-0.130499351085,-0.0769902584905,-0.0292447785553,0.152743628118,0.0265739087494,-1.21527457237,0.661227464676,-0.251563429832,-0.162021905184,-0.501999795437,-0.0102681294084
2017/07/09/10:21:05.702012,525037,1499566868,508969084,,0.628754507547,-0.109989343916,0.0650917336927,0.776901163274,0.604610353979,-0.175700844805,-0.000339851163609,-0.107306005684,-0.11496445715,-0.0786653863652,-0.0121828954103,0.182503491777,-0.00714997936755,-0.610490739346,0.360483199358,-0.307078301907,-0.121555253863,-0.296418815851,-0.0543842092156
2017/07/09/10:21:05.711907,525038,1499566868,518976314,,0.628084649362,-0.110283150469,0.0643530422534,0.776691299138,0.604686501801,-0.176363671203,-0.000846086982909,-0.098566075847,-0.0892234038458,-0.0855048320806,-0.00447371432459,0.170806116144,-0.0518304413631,-0.109737686813,0.678959488869,-0.305020064116,-0.0920559614897,-0.18548899889,-0.0885289013386
2017/07/09/10:21:05.722019,525039,1499566868,528974149,,0.627401331066,-0.111330347895,0.0639368986408,0.777229891592,0.603912313341,-0.17664319056,-0.000892547077314,-0.0976331649281,-0.0787381918782,-0.0705679003209,-0.00178816336496,0.158544365943,-0.0819245195172,0.08001383394,0.27347022295,-0.199817925692,-0.155317977071,-0.133886754513,-0.0953021124005
2017/07/09/10:21:05.731889,525040,1499566868,538972010,,0.625575677449,-0.112703032081,0.0630048493226,0.776622429819,0.604323486839,-0.177895691612,-0.00196154590544,-0.0768936844427,-0.0785616600817,-0.0626875815041,-0.0255226202241,0.1299162924,-0.0512993669341,-0.361447542906,-0.0482152327895,-0.625514090061,0.0241477414966,-0.156305655837,-0.0797399282455
2017/07/09/10:21:05.741822,525041,1499566868,548974581,,0.624755443609,-0.113121125587,0.0622182395436,0.776625343293,0.604196365179,-0.1783033999,-0.00277957613404,-0.103831593708,-0.0881192133834,-0.0707051353354,0.0339279347617,0.184008097084,0.00643807695383,0.114508897066,-0.133416309953,-0.579113066196,0.0238473042846,-0.0686236396432,-0.107387244701
2017/07/09/10:21:05.751796,525042,1499566868,558968647,,0.624238870241,-0.113674761443,0.0615684120943,0.775798176681,0.605196796294,-0.178501741942,-0.00333990087151,-0.0951000542608,-0.0696262902213,-0.0881336483025,0.0883706093568,0.187698710566,0.0891204868606,0.58848541975,-0.22166864574,-0.593382656574,0.0975621789694,0.0822934955359,-0.138775259256
2017/07/09/10:21:05.762275,525043,1499566868,568976107,,0.623448209242,-0.114254155317,0.0606914801455,0.775778221187,0.605066222678,-0.179015181145,-0.00407217711212,-0.0743927979293,-0.0665667803524,-0.0809622112362,0.0716844035926,0.154731171148,0.0991270407996,0.680643737316,-0.382058024406,-0.746988177299,0.202153921127,0.147399261594,-0.210833162069
2017/07/09/10:21:05.771961,525044,1499566868,578975381,,0.622188781768,-0.114809361599,0.0597044674995,0.775582931245,0.605169514559,-0.179487022155,-0.00503828214808,-0.076364060935,-0.058168953936,-0.0735770262625,0.0541260203682,0.142900695844,0.0607693079369,0.253711700439,-0.359153598547,-0.673970460892,0.207687661052,0.066457234323,-0.173027709126
2017/07/09/10:21:05.781669,525045,1499566868,588967711,,0.622069285676,-0.115577937983,0.0589202927495,0.775544954372,0.605189608489,-0.179585486422,-0.00496130936034,-0.0675458583846,-0.0241903088223,-0.08802958682,0.0990714293074,0.146243144808,0.0706726913434,0.886478900909,-0.615585565567,-0.659320533276,0.237765133381,0.271976113319,-0.262792468071
2017/07/09/10:21:05.791971,525046,1499566868,598971921,,0.621269502516,-0.115143045152,0.0584187651258,0.77546324735,0.605315912133,-0.179469996669,-0.00631813441759,-0.0820399767101,-0.0508136201609,-0.0825302854124,0.0869558339601,0.13290467353,-0.0128266951008,1.07584118843,-0.304779350758,-0.653017699718,0.243217930198,0.275069147348,-0.19426573813
2017/07/09/10:21:05.802125,525047,1499566868,608969207,,0.62069551138,-0.115161539172,0.0579000883383,0.774909068708,0.60587904206,-0.179932062097,-0.00713965375059,-0.0753037803692,-0.0367595805372,-0.0788648947119,0.0898366611054,0.13632395577,-0.0190437767256,1.03500330448,0.310678333044,-0.610431671143,0.101822286844,0.248282343149,-0.13885872066
2017/07/09/10:21:05.812048,525048,1499566868,618982528,,0.619940319224,-0.116642173209,0.0574771816663,0.775908974795,0.60454297334,-0.18012155941,-0.00701997537627,-0.0712087877508,-0.0252542002476,-0.0750138827021,0.10803951891,0.120798053642,-0.0392517865922,1.12135267258,-0.955515742302,-0.550656914711,0.290318340063,0.343779593706,-0.220788881183
2017/07/09/10:21:05.821897,525049,1499566868,628975728,,0.619688252458,-0.116407075581,0.0565119812401,0.775029836754,0.605527998215,-0.180574767951,-0.00757289230512,-0.0594859480057,-0.0302077021857,-0.0649334976032,0.0463133594041,0.100073794176,-0.0511335005645,1.02211773396,-0.178233370185,-0.850301861763,0.0890397056937,0.269717425108,-0.165741711855
2017/07/09/10:21:05.831688,525050,1499566868,638967883,,0.619119438476,-0.11671134975,0.0559022211943,0.776002801969,0.6043609637,-0.180283926339,-0.00807358624719,-0.0591536627496,-0.0314315676816,-0.0693622111142,0.0526796087295,0.0787008030639,-0.0965050738943,1.60113382339,-0.620244085789,-0.615947544575,0.201948940754,0.418132692575,-0.245821163058
2017/07/09/10:21:05.842245,525051,1499566868,648969196,,0.618963168563,-0.116489527492,0.0556095983806,0.775686363666,0.604717162851,-0.180438783802,-0.00834646486454,-0.05633387609,-0.0301315999639,-0.0580325543327,0.0516828093073,0.0683624974907,-0.0829946054952,1.4279280901,-0.476008653641,-0.6705250144,0.170254141092,0.404522716999,-0.240183308721
2017/07/09/10:21:05.852019,525052,1499566868,658973328,,0.617765374121,-0.117553888456,0.0547706266014,0.776044399879,0.604095579819,-0.180949054092,-0.00900331510226,-0.0699271036312,-0.033893828984,-0.0707726735861,0.0441900335186,0.114557790104,-0.0512971579261,1.24884569645,-0.666789829731,-0.236877694726,0.238560765982,0.30415609479,-0.284155070782
2017/07/09/10:21:05.861917,525053,1499566868,668973015,,0.617018103454,-0.117529343069,0.053944471229,0.775948851469,0.604167661539,-0.181068838603,-0.00994446283082,-0.0541780376958,-0.0330921490161,-0.0631685320361,0.03971663939,0.0795255331514,-0.0362125798366,0.978899240494,-0.232359305024,0.0185149759054,0.161729991436,0.225094839931,-0.240432366729
2017/07/09/10:21:05.872056,525054,1499566868,678973782,,0.617074173567,-0.117226599056,0.0534445683071,0.77588961734,0.604322840328,-0.180788044991,-0.0102415404076,-0.0655975076867,-0.0308672404143,-0.0669970795668,0.0519227089528,0.0981009089814,-0.0687782251334,1.41965663433,-0.156284853816,0.0976877659559,0.153793752193,0.402431875467,-0.300994277
2017/07/09/10:21:05.882010,525055,1499566868,688969281,,0.617043748743,-0.117515445847,0.0529745394901,0.776240469852,0.603938534221,-0.180565401974,-0.0102525828963,-0.0294687947003,-0.0286450769405,-0.045720741166,0.0112065717287,0.0366377373333,-0.0382025275371,1.31238436699,-0.0817157775164,0.50507992506,0.147321343422,0.31074154377,-0.27821791172
2017/07/09/10:21:05.891947,525056,1499566868,698990478,,0.616636498435,-0.118107709998,0.0525589766712,0.776139908486,0.603943850055,-0.180977771237,-0.0102817680342,-0.0258890580992,-0.0275669898162,-0.0403858773144,0.0277756759578,0.0183608061149,-0.0504541384593,1.09835290909,-0.426669090986,-0.0170593447983,0.191836059093,0.339497506618,-0.293004631996
2017/07/09/10:21:05.902051,525057,1499566868,708972728,,0.615747620311,-0.117764563645,0.0520150662993,0.776093012922,0.603825492807,-0.181502732725,-0.0114528399812,-0.0442588162467,-0.0342645246065,-0.0488845462408,0.0213971859064,0.0642063855714,-0.066797206029,1.21955573559,0.36520627141,-0.225545763969,0.0297207906842,0.383938491344,-0.293658196926
2017/07/09/10:21:05.911994,525058,1499566868,718975625,,0.615835146843,-0.118681649571,0.0517562582581,0.776383945329,0.603466568002,-0.181497505548,-0.0107110326081,-0.0409275153722,-0.0170016990795,-0.0488717501051,0.0245390392037,0.0808225609753,-0.0258322940496,1.16912043095,-0.256478697062,-0.0552575811744,0.204595819116,0.318406552076,-0.284049600363
2017/07/09/10:21:05.921944,525059,1499566868,728968351,,0.615298957057,-0.118414425447,0.0511621115435,0.7762204149,0.603646485988,-0.181534070297,-0.0117545212221,-0.0376446985151,-0.0249570114395,-0.0371663648391,0.0199527926804,0.0619968068526,-0.0288763371944,1.12602734566,-0.00871539115906,-0.187611833215,0.140244990587,0.318844199181,-0.283952474594
2017/07/09/10:21:05.931938,525060,1499566868,738979163,,0.614560483273,-0.118950782168,0.0507444281008,0.776488192664,0.603137002608,-0.182072508183,-0.0118930442622,-0.0301096109896,-0.0292121588639,-0.0307034628027,0.0247206592353,0.0288160561471,-0.0419046238383,1.64503633976,-0.182932063937,-0.229752227664,0.166381701827,0.594135642052,-0.347998529673
2017/07/09/10:21:05.941988,525061,1499566868,748967174,,0.614687096184,-0.118887709607,0.0509332858083,0.776742696862,0.602912157695,-0.181733961571,-0.0118524337658,-0.0312368898101,-0.00653606619671,-0.0431088738847,0.0436220830685,0.0407799993376,-0.0464706421996,1.84943675995,-0.174703121185,-0.0329489633441,0.198596686125,0.651809215546,-0.361515700817
2017/07/09/10:21:05.952159,525062,1499566868,758988890,,0.614611784273,-0.119014784852,0.0504029423855,0.776518450247,0.603196607664,-0.181740730343,-0.0119689540821,-0.0447543735769,-0.0129053196583,-0.0455568595709,0.0302103521376,0.0714038956398,-0.0437155509624,2.36862301826,-0.54169178009,0.317379385233,0.273722827435,0.81798017025,-0.45799729228
2017/07/09/10:21:05.962200,525063,1499566868,768975171,,0.614233516847,-0.119465438705,0.0500999538846,0.77700764904,0.602625498872,-0.181529835961,-0.0121877027717,-0.0196219711588,-0.0187558052109,-0.0254058015987,0.015338552298,0.0120709551804,-0.0515111327537,1.55924606323,-0.709858357906,0.276847302914,0.273189336061,0.567319869995,-0.375792771578
2017/07/09/10:21:05.971952,525064,1499566868,778968356,,0.613616050903,-0.119757201334,0.0498161641069,0.7771743876,0.602277918264,-0.181934469946,-0.0126936627824,-0.028350147251,-0.0180522721226,-0.0245252450619,0.0451262350953,0.0257556978119,-0.0357260225541,1.52072441578,-0.421050965786,0.193231284618,0.210055693984,0.549061238766,-0.369310557842
2017/07/09/10:21:05.981918,525065,1499566868,788975608,,0.614085807319,-0.119170432498,0.0496773648427,0.777027211654,0.602600155042,-0.181488491,-0.0127942614596,-0.0344017378536,-0.0172364559056,-0.0235763073634,0.0340314040228,0.04026022248,-0.0448087787931,1.74892067909,-0.0370541661978,0.322462826967,0.130473747849,0.453839123249,-0.307455509901
2017/07/09/10:21:05.991896,525066,1499566868,798972214,,0.613650780454,-0.11911343779,0.0494264765263,0.77653435095,0.60310290508,-0.181894237781,-0.0132579764976,-0.0120395481798,-0.0111418749565,-0.0149103073956,0.011039166857,0.00758705788848,-0.0185242799883,0.990976154804,0.363200485706,0.104668572545,-0.030664049089,0.297803521156,-0.247311994433
2017/07/09/10:21:06.001940,525067,1499566868,808969542,,0.613557702283,-0.11953174889,0.0493490777602,0.776975956872,0.60265495018,-0.181510924744,-0.0130060626304,-0.0110016495748,-0.0152947225116,-0.0054863814222,-0.0142882743638,0.015861471052,-0.00799490547302,0.880694806576,0.289823055267,0.191626966,-0.081926509738,0.27882540226,-0.244362577796
2017/07/09/10:21:06.011909,525068,1499566868,818975734,,0.612148049801,-0.119942279246,0.0492552533549,0.777221099746,0.601922151283,-0.182829589828,-0.0137995285521,-0.00148653959472,-0.0314830207042,0.00126073753382,-0.034047127105,-0.029687480133,-0.0472723666469,-0.143306970596,0.215432584286,0.188944861293,0.0342494621873,-0.0373500809073,-0.18362788856
2017/07/09/10:21:06.021708,525069,1499566868,828969427,,0.613011211707,-0.12017833364,0.0495244676709,0.77743337045,0.601975006701,-0.181797790302,-0.0131532984063,-0.0100160473937,0.00156665511529,-0.010852524591,0.0104135052091,0.0166672341809,-0.0261272327046,0.844033300877,-0.265426069498,0.525826632977,0.198247000575,0.225008249283,-0.274596869946
2017/07/09/10:21:06.032150,525070,1499566868,838974993,,0.613560320721,-0.119488861082,0.0495586983252,0.776975224101,0.602566569347,-0.181810603687,-0.0129589746874,0.000829563536568,-0.0143634600701,0.00296535055758,0.00146125289587,-0.0106828216002,0.007152017403,0.757434248924,0.0343134105206,0.687451958656,0.146642759442,0.168016433716,-0.265446960926
2017/07/09/10:21:06.041933,525071,1499566868,848976156,,0.613870023108,-0.120604302342,0.0498195936343,0.777284385837,0.602257899961,-0.181565315425,-0.0121836654446,-0.0138409413089,-0.0138329452311,-0.00298458176752,0.0193468890408,0.00328134337418,-0.000299344977523,0.615400314331,-0.319151937962,1.52534651756,0.287126064301,-0.00277603790164,-0.229019522667
2017/07/09/10:21:06.051844,525072,1499566868,858985731,,0.613137482731,-0.120453635818,0.0492998065217,0.776903249396,0.602595309753,-0.182029701576,-0.0128616284417,0.00600466731994,-0.0192680145299,-3.79115706595e-05,-0.0213642754967,-0.0275981779032,-0.000555015855756,0.631703972816,0.0287797152996,0.618180453777,0.142220720649,0.144741982222,-0.242607310414
2017/07/09/10:21:06.061773,525073,1499566868,868968953,,0.613749514425,-0.12043436429,0.0498163132778,0.777389683305,0.602163970331,-0.181404427267,-0.0125006757231,0.00254062459268,-0.0151594650615,0.00122248046145,-0.0160149386161,-0.023551905518,-0.0100010988535,0.423047482967,0.210604578257,0.818734705448,0.0907039269805,0.0267393738031,-0.18792103231
2017/07/09/10:21:06.072005,525074,1499566868,878972915,,0.613787665968,-0.12018267105,0.0500791046768,0.777329849594,0.602222539398,-0.181475044011,-0.0123744241092,-0.00186386949503,0.00135865261635,-0.00528913740263,0.0112923001568,0.000533339705281,-0.00463317543622,0.738567888737,0.231106892228,0.718153178692,0.224703282118,0.0900589004159,-0.185949206352
2017/07/09/10:21:06.081781,525075,1499566868,888976819,,0.614557421373,-0.120400227761,0.0501056853427,0.777259751059,0.602462822628,-0.18101821427,-0.0117572461363,0.0113857474922,-0.00398681737196,0.0058195508481,-0.022422163336,-0.030997406287,-0.0173346556411,0.407784819603,0.372560024261,0.750440597534,0.050513394177,-0.130784794688,-0.14583298564
2017/07/09/10:21:06.091923,525076,1499566868,898970498,,0.614149552186,-0.12056051086,0.049975175584,0.777313686684,0.60228004459,-0.181384048616,-0.0119166811286,0.0091273382528,-0.0151925959521,0.00806312442261,-0.0488797221261,-0.0175657679082,-0.0051978109806,0.322565823793,0.209422051907,0.229337885976,0.0458682700992,-0.109390333295,-0.149189978838
2017/07/09/10:21:06.101735,525077,1499566868,908976266,,0.613236589697,-0.120973150167,0.049666075928,0.777402390201,0.601962959743,-0.182026600033,-0.0123464848061,0.00693433770738,-0.0109837763066,0.0186112997611,-0.0157007929772,-0.0143495027985,0.0162250420524,-0.397596806288,0.394779682159,-0.397658407688,-0.0234230533242,-0.32411301136,-0.0759529992938
2017/07/09/10:21:06.111763,525078,1499566868,918975173,,0.613899143608,-0.120799415971,0.0502196423881,0.777347324961,0.602148092267,-0.1816836563,-0.0118262584811,0.00161893235732,-0.0144046852345,0.00602247724113,-0.0119191973295,-0.0101805990829,0.0133343572154,-0.249461084604,0.0473042577505,-0.3911241889,0.0845768526196,-0.317329317331,-0.116556979716
2017/07/09/10:21:06.121881,525079,1499566868,928969132,,0.614184809517,-0.120860798122,0.050147632122,0.777182558257,0.60239846892,-0.18157853368,-0.0115148551768,0.0251568122438,-0.00184873978871,0.0115315514972,-0.0244864041265,-0.0578451557523,0.00576989202655,-0.00754533708096,0.0950154811144,-0.683194637299,0.0924274474382,-0.179795846343,-0.115828044713
2017/07/09/10:21:06.131922,525080,1499566868,938973470,,0.613700012868,-0.121339349283,0.0500882444686,0.777358353376,0.602142272177,-0.18166533455,-0.011678215483,0.0253834475329,0.00684228289408,0.00228925440562,-0.0169353831227,-0.0604934437737,-0.00329244124934,0.129267215729,-0.151910558343,-0.387810856104,0.152534902096,-0.150431975722,-0.156886979938
2017/07/09/10:21:06.142256,525081,1499566868,948973292,,0.615157380908,-0.120480151479,0.0503967434423,0.777161087308,0.602637868829,-0.180914255931,-0.0108754507686,0.0135264238285,-0.00212492037043,-0.00335748155026,-0.00218531374177,-0.0386272379194,0.0142813745501,0.678260862827,-0.215811774135,-0.637908220291,0.158079504967,0.0874930471182,-0.194535017014
2017/07/09/10:21:06.151987,525082,1499566868,958977953,,0.614774384789,-0.120724263017,0.0497686574063,0.777224167638,0.602522320485,-0.181014000826,-0.0111075677405,0.0312474090506,-0.000967833796156,0.00199562244465,-0.0159138268609,-0.0689468947135,0.0151306621829,0.118704818189,0.106341086328,-0.719473063946,0.0659911036491,-0.0872258841991,-0.145275115967
2017/07/09/10:21:06.161777,525083,1499566868,968971886,,0.614677016624,-0.120881663855,0.0503585738358,0.777418070112,0.602305920581,-0.180907241428,-0.0110132780874,0.01915329087,-0.000444472329933,0.00447508332637,-0.00627026176405,-0.0525319517682,-0.00381256550547,0.285006999969,-0.459543168545,-0.775876700878,0.130607545376,0.0466313883662,-0.218153476715
2017/07/09/10:21:06.172244,525084,1499566868,978977415,,0.615275831436,-0.12156657713,0.0501973540032,0.777272579657,0.602620147529,-0.180525918717,-0.0103289582307,0.0111753635451,-0.00715022540642,0.0045278013876,-0.0016021435164,-0.0268518658374,0.0317265278485,0.0625118687749,-0.376361548901,-0.739016294479,0.098509080708,-0.138873443007,-0.160044625401
2017/07/09/10:21:06.182194,525085,1499566868,988976009,,0.615317084768,-0.121080949645,0.0497930330718,0.777355297509,0.602542348853,-0.180417989196,-0.0105265591965,0.0193750855506,0.00589300161528,-0.00313067654063,0.00384820765926,-0.0282170642826,0.0487360605696,-0.316571891308,-0.530667424202,-0.703990876675,0.0788123682141,-0.271926760674,-0.13673196733
2017/07/09/10:21:06.191762,525086,1499566868,998976774,,0.61530106598,-0.120663379071,0.0499232369979,0.777317544998,0.602541944513,-0.180575883497,-0.0106296584977,0.0213825475734,-0.00756142042211,-0.00399493553987,-0.0103302350513,-0.0462923125279,0.0291161642371,0.0186730995774,0.193520516157,-0.776554167271,0.0172946825624,-0.131814554334,-0.107623584569
2017/07/09/10:21:06.202114,525087,1499566869,8977478,,0.614902957148,-0.121724413831,0.0495921096894,0.777244179765,0.602610374938,-0.180670176638,-0.0105122934286,0.010894201233,0.00415026457962,-0.0189208228582,-0.00539850026659,-0.0298420781815,0.00647316065806,-0.257549971342,-0.836193263531,-0.919356822968,0.210383445024,-0.0426410399377,-0.206604719162
2017/07/09/10:21:06.211877,525088,1499566869,18975526,,0.615606410232,-0.120939854976,0.0495483588872,0.777071028735,0.60299521321,-0.180138354212,-0.0103712336704,0.00656182820942,-0.0158378521964,-0.00379827742786,-0.0184270971059,-0.0349996505842,-0.000677833279822,0.187710076571,0.0297683626413,-0.527022242546,0.0802277028561,-0.0444182492793,-0.163601011038
2017/07/09/10:21:06.221777,525089,1499566869,28975116,,0.615388289049,-0.121264938383,0.0497210308101,0.776931568367,0.603084307479,-0.180448943455,-0.0102388940928,0.00615089446243,-0.00226143018746,-0.00628340119429,-0.0181376109053,-0.0127016744828,-0.00148352340191,0.368936270475,-0.1414565593,-0.299263119698,0.184666335583,0.0226469933987,-0.184190899134
2017/07/09/10:21:06.231982,525090,1499566869,38975908,,0.615735904849,-0.120834140655,0.0499473987316,0.776746975455,0.603425972773,-0.180088580333,-0.0104563252431,0.00177534946672,-0.0121432022611,-0.00381002498705,-0.00934971253918,-0.00938583490124,-0.00377448918824,0.206564217806,0.33009749651,-0.252753645182,0.00787597894669,-0.0176061242819,-0.150742188096
2017/07/09/10:21:06.241930,525091,1499566869,48969370,,0.615647295849,-0.120756838262,0.0497910759458,0.776526045693,0.603608730658,-0.180436615776,-0.010316410251,-0.00328047352966,-0.012436762145,0.00553370100132,-0.0183274965768,0.00547768627002,-0.0170205204618,0.452135294676,0.128378540277,-0.308478176594,0.0685033500195,0.0391619354486,-0.14245210588
2017/07/09/10:21:06.251706,525092,1499566869,58975665,,0.615623329008,-0.121374564622,0.0497617460952,0.776829161193,0.603173866006,-0.180614953271,-0.00979695577369,-0.0113222828004,0.00285900210767,-0.0107249902828,-0.00497879552429,0.0344904165884,0.00484161563893,0.805797576904,-0.574850916862,-0.234802559018,0.158090144396,0.200244784355,-0.253561496735
2017/07/09/10:21:06.262180,525093,1499566869,68975361,,0.615165216258,-0.12152349823,0.0496079105866,0.777110197598,0.602713677527,-0.180914831526,-0.0102853024273,-0.0156873288807,-0.000201276137649,-0.0076280235142,0.00624120490582,0.0443186691887,0.0232196795064,0.769282817841,-0.092086955905,0.108697228134,0.127524614334,0.143944233656,-0.206801742315
2017/07/09/10:21:06.271806,525094,1499566869,78972483,,0.615380561069,-0.120897616523,0.049408521335,0.776708652285,0.603251790415,-0.180842437231,-0.0103421333949,-0.0201277802847,-0.00143733579953,-0.0123943276683,-0.00886521215587,0.0565606681834,0.0109775637383,1.05762207508,-0.120423749089,0.230767190456,0.167463302612,0.141294658184,-0.215079605579
2017/07/09/10:21:06.281742,525095,1499566869,88968166,,0.615707245588,-0.120882411082,0.0494316128746,0.776708696859,0.603360944058,-0.180486012251,-0.0101966068098,-0.00215535017919,-0.0136428423655,0.00155078245014,-0.0484459528378,0.0127973905744,0.00240604902292,0.901125967503,-0.118761017919,0.19412663579,0.209716364741,0.141648024321,-0.219185262918
2017/07/09/10:21:06.291821,525096,1499566869,98968805,,0.61518800657,-0.121588625991,0.0496623823424,0.776664912452,0.603135967991,-0.181436689615,-0.00996722348407,0.00406574534253,-0.0102414692685,-0.00323851239968,-0.0271667702811,-0.00670527087388,0.0193063331542,0.779279589653,-0.441130518913,0.183558166027,0.207236945629,0.171532660723,-0.277632117271
2017/07/09/10:21:06.301903,525097,1499566869,108992918,,0.61481367836,-0.121918714706,0.0495899426772,0.777234857151,0.602400519377,-0.181431269129,-0.0101136375723,-0.00542823811412,-0.00863952442765,-0.00659618994067,-0.0212206319683,0.0179488513752,0.00650353361724,0.435274630785,-0.649607896805,0.484386652708,0.264486968517,0.0228232480586,-0.246106103063
2017/07/09/10:21:06.312167,525098,1499566869,118975744,,0.61521026516,-0.121488846728,0.0494139311848,0.776718110555,0.603197144174,-0.180996106748,-0.0101287382342,-0.00775988910701,0.00761807260514,-0.0174473329427,0.0143088589033,0.0235500665722,-0.000862773706739,0.0292350947857,-0.18408690393,0.551939129829,0.217498824,-0.171438694,-0.169229701161
2017/07/09/10:21:06.321984,525099,1499566869,128968829,,0.61521026516,-0.121488846728,0.0494139311848,0.776602434673,0.603346066916,-0.180994161259,-0.0101634436166,0.00337685390046,-0.00622585690378,-0.00603204896837,-0.00292033732829,-0.0157285448756,-0.0272522913037,0.397191613913,0.00923109054565,0.337854713202,0.105009444058,-0.00993252918124,-0.189377337694
2017/07/09/10:21:06.332068,525100,1499566869,138977291,,0.615276659679,-0.121493416626,0.0492854901553,0.776865264947,0.602934347359,-0.181248741873,-0.00997128188587,0.0068387898588,0.00274641566929,0.004121655235,0.00452116366349,-0.00555811185725,0.0394574133516,0.0878647565842,0.355236560106,0.261502981186,0.0226614400744,-0.177469223738,-0.115548923612
2017/07/09/10:21:06.341869,525101,1499566869,148975809,,0.615102106894,-0.121303220722,0.0494131146455,0.776941829486,0.602869280491,-0.181120854735,-0.0102596400665,0.00913140014646,0.00918836324738,-0.00130935335752,-0.00169997377137,-0.0110950289975,-0.00233929604558,0.260482400656,-0.0561660528183,0.38087105751,0.131930232048,-0.0648893043399,-0.179149091244
2017/07/09/10:21:06.352197,525102,1499566869,158969889,,0.614730330594,-0.121815731869,0.0490915281328,0.777236241463,0.602437997526,-0.181285404501,-0.0103868286056,0.0018879379117,0.0242952695758,-0.00906573330585,0.0240684149221,0.020626266203,0.0253848510551,0.464024335146,-0.686185956001,-0.285980314016,0.27785718441,0.114682927728,-0.239827871323
2017/07/09/10:21:06.362178,525103,1499566869,168972095,,0.61506729089,-0.121246720674,0.0491255523076,0.776403269779,0.603470006142,-0.181429906329,-0.0102519975353,-0.0144630393704,-0.00402489128886,0.00017858465455,-0.00948840623883,0.0262899393232,-0.0183094768951,0.664717257023,-0.0546439886093,-0.15532758832,0.083303168416,0.107257202268,-0.202563598752
2017/07/09/10:21:06.372003,525104,1499566869,178981701,,0.614717837976,-0.121705495043,0.0491681540486,0.776660363996,0.603058941295,-0.181686137746,-0.0104278316626,0.00187034296422,-0.0105542844474,-0.00187715500531,-0.0226442347939,0.00410731092083,0.0114878009336,0.731424450874,-0.604043245316,-0.11520306766,0.237727761269,0.180515959859,-0.271707415581
2017/07/09/10:21:06.382085,525105,1499566869,188973593,,0.614670728475,-0.121789526515,0.0490724604989,0.7766669172,0.603019012304,-0.181798734047,-0.0102854667339,0.00428986466654,-0.0166336976406,0.00316821966625,-0.0229241711543,-0.00785504030925,0.0186759335709,0.640439271927,-0.168667346239,-0.252355009317,0.224982321262,0.137344315648,-0.22217464447
2017/07/09/10:21:06.391812,525106,1499566869,198971876,,0.615343869481,-0.121517598732,0.0492263124971,0.776528890268,0.603336531719,-0.181360744447,-0.00980777477032,0.0177659039425,-0.00126445568358,0.00871542310893,-0.0226653365884,-0.0277873295308,0.0196480301111,0.794844686985,0.235520020127,-0.0460580438375,0.115057587624,0.206335186958,-0.249749988317
2017/07/09/10:21:06.401946,525107,1499566869,208970163,,0.614802719441,-0.120947875232,0.0486040962269,0.776288405022,0.603547166032,-0.181642514554,-0.0106361416964,0.00477930594193,-0.000925547956251,-0.00572910027382,0.0072007641544,-0.0162398923453,0.000986379930136,0.432700902224,-0.410357296467,-0.21182616055,0.273492872715,0.130952954292,-0.251456856728
2017/07/09/10:21:06.412177,525108,1499566869,218981735,,0.615397225987,-0.121538311894,0.0490944322336,0.7769057946,0.602860435801,-0.181333865785,-0.00973192592446,0.0140402946914,0.00653593208453,-0.00513519997675,0.00222230047112,-0.0289778742679,0.00716374230675,0.231002509594,-0.571066141129,-0.0237512327731,0.314602404833,0.0876936018467,-0.247422844172
2017/07/09/10:21:06.421959,525109,1499566869,228972772,,0.615638906714,-0.121653586327,0.0492865904902,0.776648824547,0.603292077088,-0.181007362658,-0.00957119202148,0.0184904422431,-0.0089898845101,0.00479909868967,-0.0188601298652,-0.0493085132794,-0.00274778414762,0.14571531117,0.156144544482,0.0564659871161,0.0682192891836,0.0242826491594,-0.18452116847
2017/07/09/10:21:06.432168,525110,1499566869,238974396,,0.615035836675,-0.121397795758,0.0491628061555,0.776523062604,0.603316528088,-0.181432793741,-0.010160784226,0.00926450773689,-0.00919636955881,0.00863428511642,-0.0226849779333,-0.0221191431013,-0.0087295824364,-0.0948448106647,0.185807332397,-0.359637528658,0.0362358614802,0.0210189819336,-0.17475771904
2017/07/09/10:21:06.441832,525111,1499566869,248971661,,0.615685861439,-0.121569664679,0.0493823488733,0.776989170882,0.602885146063,-0.180900495108,-0.00960936305028,0.000685925486271,0.00437712817007,0.000829178917271,0.00287334171498,0.00593967879886,0.00819451514498,-0.0465921498835,-0.134096428752,0.0145634934306,0.126550942659,-0.0608546733856,-0.179461449385
2017/07/09/10:21:06.451957,525112,1499566869,258981175,,0.615835422129,-0.121902697234,0.0492939505276,0.776743772457,0.603126703239,-0.181168136541,-0.00924110876977,-0.0102748250739,-0.00345206951733,-0.00843138680189,0.00971583010884,0.0221463410721,-0.0155669635727,0.537554860115,-0.0936765223742,0.0371921919286,0.135126769543,0.131934076548,-0.227580428123
2017/07/09/10:21:06.461791,525113,1499566869,268974858,,0.615433930713,-0.121017341819,0.0488976417246,0.77646717337,0.603406778966,-0.181374447688,-0.0101142227877,-0.0231464631111,-0.00498259209167,-0.0151594120971,0.0112915673275,0.0408552814115,-0.0164094305276,0.381283015013,0.526639103889,-0.0666673928499,0.0440447255969,0.0423366874456,-0.178684338927
2017/07/09/10:21:06.472002,525114,1499566869,278975360,,0.615489592254,-0.121419319006,0.0489962917105,0.77627527956,0.603681841416,-0.181298462341,-0.00978735103976,-0.00198439548493,-0.00289344035862,0.00139955357635,-0.0106924198524,0.00664492967886,0.0033506183567,0.216627135873,-0.10443687439,-0.070200279355,0.183803856373,0.0375544652343,-0.182894870639
2017/07/09/10:21:06.482136,525115,1499566869,288968720,,0.615372644762,-0.121918598992,0.0490995925746,0.776799070789,0.602954925426,-0.181489972314,-0.0094842751364,0.000142820185507,-0.00905058877062,0.0147289448679,-0.02559129237,-0.00763752281316,-0.00253269664909,0.32872569561,-0.320038944483,0.135137528181,0.213086485863,0.0564831979573,-0.221541017294
2017/07/09/10:21:06.491699,525116,1499566869,298976583,,0.615254009019,-0.121309817802,0.0489554854383,0.77672514052,0.603145361074,-0.181138640064,-0.010125343184,0.00512395185847,-0.0119777411935,0.00240380059084,-0.0201862683597,-0.0182340415922,-0.000756380868032,0.68625664711,0.0675319805741,-0.368383944035,0.209646373987,0.17167852819,-0.232266932726
2017/07/09/10:21:06.501987,525117,1499566869,308976302,,0.615530049843,-0.121343524268,0.0490903613,0.776788691917,0.603093821666,-0.181052945081,-0.00984893171372,-0.0105553692094,0.00127434451502,-0.00500848598524,-0.00369168829227,0.0200806750127,-0.00817356561921,0.255781829357,0.162897735834,0.019794344902,0.1134859249,0.00571927800775,-0.176092684269
2017/07/09/10:21:06.511889,525118,1499566869,318967155,,0.615725527706,-0.122063189898,0.0497316735089,0.776571284645,0.60328006617,-0.18140408612,-0.00909720651711,0.00261241059738,0.0167892251612,0.00327207601046,0.0282609940271,0.00192400721147,0.00952348529804,0.715768396854,-0.212154462934,-0.229490533471,0.189296334982,0.182397440076,-0.230246320367
2017/07/09/10:21:06.521718,525119,1499566869,328969739,,0.615394327665,-0.122090420923,0.0490049436137,0.776833177808,0.602920915466,-0.181458424466,-0.00945641261532,0.00661000997188,-0.0088097245022,-4.65110148107e-05,-0.0122384227264,-0.0107309623438,-0.00162439877297,-0.00961223617196,-0.00896069407463,-0.325294077396,0.0411217883229,-0.00127463787794,-0.159416571259
2017/07/09/10:21:06.532094,525120,1499566869,338976105,,0.615140134087,-0.122115786002,0.0490047918315,0.776594528843,0.603188819628,-0.181571572508,-0.00979539194596,0.00973349340826,0.00540654189246,-0.00359882274819,0.00096371955978,-0.00919066835059,0.0138265636597,-0.0953321605921,-0.225104495883,-0.578934431076,0.0586102828383,-0.0224857404828,-0.169607818127
2017/07/09/10:21:06.541799,525121,1499566869,348975486,,0.615374732394,-0.121241954009,0.0489937389309,0.776440677854,0.603470762291,-0.18128069776,-0.010011066515,0.00021147689111,0.00265513826305,-0.00513237093247,0.00944009881055,0.00743559503902,0.028365643069,0.152165204287,-0.0348766520619,-0.167944431305,0.144686639309,0.0294305887073,-0.149073943496
2017/07/09/10:21:06.551919,525122,1499566869,358975607,,0.616083096055,-0.121772451868,0.0495219532145,0.77671459165,0.603225708114,-0.180971376422,-0.00908565378295,0.005692981149,0.0135789139887,-0.0068806780853,0.0169920428142,-0.0120931866706,0.0125023849841,0.488043248653,-0.40938153863,0.100292101502,0.155988156796,0.12626349926,-0.240483850241
2017/07/09/10:21:06.562092,525123,1499566869,368975735,,0.61554289587,-0.121439999701,0.0488643836292,0.776536761367,0.603354763431,-0.181269680076,-0.0097463211969,0.0245067297567,0.00279722837854,0.00592657682828,-0.0075232249892,-0.049585386013,0.00563238798095,0.228613585234,-0.394971519709,-0.0949779301882,0.209482967854,0.0554663799703,-0.201682254672
2017/07/09/10:21:06.572042,525124,1499566869,378976229,,0.615328412498,-0.122210422101,0.0493287605238,0.776538880965,0.603351847732,-0.18128145863,-0.00953661071505,-0.00380933402807,-0.0181652990927,0.00086942301413,-0.0238692173016,0.00885577183042,0.0225430551873,0.0296025201678,-0.62332046032,-0.256955891848,0.23556420207,0.0500629767776,-0.214418783784
2017/07/09/10:21:06.582087,525125,1499566869,388985375,,0.615346773743,-0.121428046139,0.0488232887071,0.776272268225,0.603735730892,-0.181121420209,-0.00997817467928,-0.0205045634942,-0.00692781000202,-0.011652682102,-0.0102948427476,0.0544203771818,0.0315911062025,0.233150601387,-0.589682459831,-0.0746246650815,0.253184407949,0.142918258905,-0.262369394302
