time,.header.seq,.header.stamp.secs,.header.stamp.nsecs,.header.frame_id,.ch0,.ch1,.ch2,.ch3,.ch4,.ch5,.ch6,.ch7
2017/07/09/10:20:44.553509,212388,1499566844,553349018,0,157,356,245,108,77,203,80,217
2017/07/09/10:20:44.570214,212389,1499566844,570030927,0,216,339,186,71,58,153,76,228
2017/07/09/10:20:44.591095,212390,1499566844,590883970,0,268,359,201,65,73,150,77,198
2017/07/09/10:20:44.614097,212391,1499566844,613818883,0,269,442,258,88,78,142,71,192
2017/07/09/10:20:44.630596,212392,1499566844,630222082,0,293,519,296,106,78,139,73,184
2017/07/09/10:20:44.651468,212393,1499566844,651268005,0,381,521,307,117,93,154,80,181
2017/07/09/10:20:44.674300,212394,1499566844,673484086,0,376,521,306,120,102,148,80,128
2017/07/09/10:20:44.690031,212395,1499566844,689932107,0,343,535,345,133,102,127,79,139
2017/07/09/10:20:44.711747,212396,1499566844,711472034,0,447,524,332,123,108,124,81,145
2017/07/09/10:20:44.734126,212397,1499566844,733905076,0,463,445,305,121,113,129,86,166
2017/07/09/10:20:44.756150,212398,1499566844,755881071,0,477,449,305,118,111,125,100,206
2017/07/09/10:20:44.771295,212399,1499566844,771063089,0,488,445,315,118,108,127,106,228
2017/07/09/10:20:44.793540,212400,1499566844,793411016,0,486,473,293,98,99,122,97,221
2017/07/09/10:20:44.816118,212401,1499566844,815857887,0,429,483,289,105,99,124,96,225
2017/07/09/10:20:44.830932,212402,1499566844,830791950,0,480,499,276,92,94,118,96,234
2017/07/09/10:20:44.854095,212403,1499566844,853615045,0,478,509,277,85,89,86,80,234
2017/07/09/10:20:44.876593,212404,1499566844,876328945,0,481,522,287,86,81,75,69,219
2017/07/09/10:20:44.891204,212405,1499566844,890896081,0,500,546,276,90,80,66,69,228
2017/07/09/10:20:44.913525,212406,1499566844,913362979,0,485,482,241,78,72,71,67,228
2017/07/09/10:20:44.936264,212407,1499566844,935908079,0,462,517,254,84,78,71,62,214
2017/07/09/10:20:44.951813,212408,1499566844,951472043,0,442,537,261,99,84,69,60,193
2017/07/09/10:20:44.973793,212409,1499566844,973573923,0,440,542,248,100,93,72,59,193
2017/07/09/10:20:44.996493,212410,1499566844,996231079,0,473,472,239,102,97,75,62,185
2017/07/09/10:20:45.011433,212411,1499566845,11204957,0,477,481,253,109,100,63,62,177
2017/07/09/10:20:45.033481,212412,1499566845,33274888,0,495,449,255,104,97,63,60,207
2017/07/09/10:20:45.057155,212413,1499566845,56607007,0,456,466,256,94,97,64,57,212
2017/07/09/10:20:45.071565,212414,1499566845,71254014,0,489,460,256,105,99,64,67,259
2017/07/09/10:20:45.094177,212415,1499566845,93760967,0,446,486,235,104,99,64,71,282
2017/07/09/10:20:45.116590,212416,1499566845,116203069,0,527,536,229,106,97,59,68,298
2017/07/09/10:20:45.132464,212417,1499566845,132388114,0,484,506,241,114,101,58,72,277
2017/07/09/10:20:45.153747,212418,1499566845,153479099,0,469,494,220,109,94,55,70,264
2017/07/09/10:20:45.176157,212419,1499566845,175971984,0,458,488,211,111,124,62,74,209
2017/07/09/10:20:45.191181,212420,1499566845,190917968,0,458,467,235,106,123,58,66,170
2017/07/09/10:20:45.221300,212421,1499566845,221118927,0,363,452,238,105,125,61,71,167
2017/07/09/10:20:45.236090,212422,1499566845,235970973,0,367,468,215,92,123,58,65,165
2017/07/09/10:20:45.250952,212423,1499566845,250844001,0,360,460,235,97,127,64,75,200
2017/07/09/10:20:45.274029,212424,1499566845,273668050,0,415,469,232,84,111,54,66,206
2017/07/09/10:20:45.296592,212425,1499566845,296181917,0,421,463,202,82,112,67,66,210
2017/07/09/10:20:45.310942,212426,1499566845,310792922,0,435,415,192,74,108,70,70,208
2017/07/09/10:20:45.333917,212427,1499566845,333655118,0,420,376,188,83,112,74,72,217
2017/07/09/10:20:45.356024,212428,1499566845,355914115,0,490,335,153,88,119,70,70,221
2017/07/09/10:20:45.371594,212429,1499566845,371166944,0,426,353,171,85,101,70,69,230
2017/07/09/10:20:45.394093,212430,1499566845,393702030,0,461,462,201,87,95,61,75,271
2017/07/09/10:20:45.418701,212431,1499566845,418452978,0,505,501,204,83,98,53,69,282
2017/07/09/10:20:45.433578,212432,1499566845,433002948,0,543,504,195,75,98,61,77,268
2017/07/09/10:20:45.453598,212433,1499566845,453445911,0,537,522,208,72,83,100,114,273
2017/07/09/10:20:45.476074,212434,1499566845,475857019,0,527,516,205,77,79,111,117,272
2017/07/09/10:20:45.496487,212435,1499566845,493220090,0,566,455,183,85,95,112,118,284
2017/07/09/10:20:45.521590,212436,1499566845,521271944,0,546,410,169,83,93,114,119,273
2017/07/09/10:20:45.536331,212437,1499566845,536046981,0,525,429,170,81,87,114,123,304
2017/07/09/10:20:45.560159,212438,1499566845,560009002,0,554,452,158,83,93,94,95,291
2017/07/09/10:20:45.573797,212439,1499566845,573528051,0,564,425,152,84,112,82,93,294
2017/07/09/10:20:45.596192,212440,1499566845,595912933,0,522,411,137,78,102,82,96,267
2017/07/09/10:20:45.612872,212441,1499566845,612549066,0,531,406,142,79,98,84,96,281
2017/07/09/10:20:45.633959,212442,1499566845,633677005,0,536,470,179,92,99,78,95,347
2017/07/09/10:20:45.656271,212443,1499566845,655993938,0,506,451,194,97,171,93,96,389
2017/07/09/10:20:45.679036,212444,1499566845,678561925,0,503,480,200,96,166,94,97,398
2017/07/09/10:20:45.701191,212445,1499566845,701020956,0,508,536,243,98,176,92,93,389
2017/07/09/10:20:45.716032,212446,1499566845,715826988,0,475,515,239,101,182,98,95,405
2017/07/09/10:20:45.739060,212447,1499566845,738816976,0,504,446,219,103,188,99,84,343
2017/07/09/10:20:45.754074,212448,1499566845,753714084,0,496,444,219,105,141,104,76,320
2017/07/09/10:20:45.776202,212449,1499566845,775981903,0,493,420,224,107,136,112,90,335
2017/07/09/10:20:45.798764,212450,1499566845,798535108,0,539,349,191,112,127,114,97,335
2017/07/09/10:20:45.821042,212451,1499566845,820887088,0,534,345,200,119,122,115,99,304
2017/07/09/10:20:45.836311,212452,1499566845,836055040,0,554,427,226,113,121,116,108,297
2017/07/09/10:20:45.859248,212453,1499566845,858922958,0,559,424,220,102,121,118,114,285
2017/07/09/10:20:45.874313,212454,1499566845,873877048,0,604,417,210,97,123,112,110,264
2017/07/09/10:20:45.896213,212455,1499566845,896028995,0,540,432,225,107,124,110,106,287
2017/07/09/10:20:45.918950,212456,1499566845,918692111,0,522,460,241,108,130,100,103,289
2017/07/09/10:20:45.949320,212457,1499566845,949156999,0,482,422,224,120,159,115,103,291
2017/07/09/10:20:45.956400,212458,1499566845,956114053,0,477,396,219,126,196,127,110,307
2017/07/09/10:20:45.978937,212459,1499566845,978579998,0,542,500,245,131,200,128,103,295
2017/07/09/10:20:45.994431,212460,1499566845,994080066,0,550,466,235,118,201,136,101,301
2017/07/09/10:20:46.016767,212461,1499566846,16357898,0,590,446,208,117,205,139,97,353
2017/07/09/10:20:46.038866,212462,1499566846,38574934,0,574,429,231,112,195,130,98,367
2017/07/09/10:20:46.053916,212463,1499566846,53477048,0,558,486,243,110,140,107,92,370
2017/07/09/10:20:46.076381,212464,1499566846,76229095,0,445,393,219,111,138,111,109,412
2017/07/09/10:20:46.106824,212465,1499566846,106544971,0,424,384,206,115,138,126,110,415
2017/07/09/10:20:46.115047,212466,1499566846,114933013,0,408,397,216,112,255,139,119,386
2017/07/09/10:20:46.136070,212467,1499566846,135907888,0,417,456,237,151,399,141,113,370
2017/07/09/10:20:46.158767,212468,1499566846,158557891,0,450,495,240,163,423,133,110,372
2017/07/09/10:20:46.181460,212469,1499566846,181210041,0,502,487,229,158,431,140,101,337
2017/07/09/10:20:46.196235,212470,1499566846,196058034,0,558,509,254,173,435,153,106,306
2017/07/09/10:20:46.235257,212471,1499566846,235059976,0,563,528,284,202,385,142,101,381
2017/07/09/10:20:46.236539,212472,1499566846,236407995,0,546,497,242,182,237,139,109,435
2017/07/09/10:20:46.256102,212473,1499566846,255842924,0,566,418,230,170,196,138,110,405
2017/07/09/10:20:46.279618,212474,1499566846,279043912,0,530,457,263,175,176,129,105,412
2017/07/09/10:20:46.293991,212475,1499566846,293689012,0,629,439,252,175,176,130,120,439
2017/07/09/10:20:46.316218,212476,1499566846,316034078,0,623,462,246,150,161,139,115,392
2017/07/09/10:20:46.355077,212477,1499566846,354870080,0,697,460,258,137,137,150,124,345
2017/07/09/10:20:46.356253,212478,1499566846,356138944,0,688,442,257,143,152,156,123,375
2017/07/09/10:20:46.376176,212479,1499566846,376005887,0,703,452,256,160,152,154,121,390
2017/07/09/10:20:46.398700,212480,1499566846,398545026,0,593,463,252,146,134,122,113,364
2017/07/09/10:20:46.413745,212481,1499566846,413496971,0,677,413,229,134,121,110,119,380
2017/07/09/10:20:46.438153,212482,1499566846,437961101,0,649,565,250,137,115,87,102,444
2017/07/09/10:20:46.459099,212483,1499566846,458823919,0,646,569,242,138,89,78,101,432
2017/07/09/10:20:46.481165,212484,1499566846,480849027,0,641,527,216,114,86,101,102,425
2017/07/09/10:20:46.496622,212485,1499566846,496381044,0,623,517,223,110,81,97,94,436
2017/07/09/10:20:46.519359,212486,1499566846,518841981,0,572,602,285,116,78,99,89,402
2017/07/09/10:20:46.536945,212487,1499566846,536772966,0,542,422,251,111,83,104,88,318
2017/07/09/10:20:46.557600,212488,1499566846,557431936,0,586,438,260,111,105,101,88,314
2017/07/09/10:20:46.578981,212489,1499566846,578494071,0,582,482,268,113,112,75,87,312
2017/07/09/10:20:46.601179,212490,1499566846,601053953,0,712,517,262,111,117,73,86,327
2017/07/09/10:20:46.616405,212491,1499566846,616100072,0,676,433,192,102,124,92,88,356
2017/07/09/10:20:46.638776,212492,1499566846,638464927,0,698,447,209,106,119,93,92,361
2017/07/09/10:20:46.669421,212493,1499566846,669127941,0,677,453,226,98,102,91,85,357
2017/07/09/10:20:46.676131,212494,1499566846,675844907,0,672,528,273,99,95,92,86,349
2017/07/09/10:20:46.698547,212495,1499566846,698348045,0,560,493,274,107,100,91,83,350
2017/07/09/10:20:46.721482,212496,1499566846,721224069,0,598,489,269,110,98,67,79,300
2017/07/09/10:20:46.736359,212497,1499566846,736078023,0,597,524,259,104,97,67,86,329
2017/07/09/10:20:46.758703,212498,1499566846,758564949,0,569,525,240,108,118,87,106,345
2017/07/09/10:20:46.781064,212499,1499566846,780873060,0,608,459,191,115,128,91,106,334
2017/07/09/10:20:46.795976,212500,1499566846,795875072,0,604,623,274,131,132,98,114,308
2017/07/09/10:20:46.818974,212501,1499566846,818736076,0,598,652,290,134,130,100,111,314
2017/07/09/10:20:46.841011,212502,1499566846,840794086,0,622,632,303,146,142,102,134,350
2017/07/09/10:20:46.856117,212503,1499566846,855917930,0,636,717,365,168,153,115,138,350
2017/07/09/10:20:46.879214,212504,1499566846,878720045,0,601,709,369,172,156,124,140,344
2017/07/09/10:20:46.909390,212505,1499566846,909075021,0,628,589,323,155,148,125,141,358
2017/07/09/10:20:46.916000,212506,1499566846,915791988,0,599,566,318,164,175,137,158,398
2017/07/09/10:20:46.938897,212507,1499566846,938622951,0,595,589,311,158,173,140,141,350
2017/07/09/10:20:46.961267,212508,1499566846,960990905,0,578,494,236,144,154,120,127,400
2017/07/09/10:20:46.976569,212509,1499566846,976166963,0,613,447,209,130,140,107,128,430
2017/07/09/10:20:46.998615,212510,1499566846,998343944,0,611,441,207,142,157,104,121,404
2017/07/09/10:20:47.021320,212511,1499566847,20971059,0,605,420,199,124,128,103,103,387
2017/07/09/10:20:47.036443,212512,1499566847,36168098,0,577,356,188,126,124,92,98,378
2017/07/09/10:20:47.061702,212513,1499566847,61305999,0,557,487,235,122,130,90,99,308
2017/07/09/10:20:47.081115,212514,1499566847,80929994,0,619,522,252,135,141,94,99,320
2017/07/09/10:20:47.096534,212515,1499566847,96223115,0,601,527,253,138,128,92,98,331
2017/07/09/10:20:47.118655,212516,1499566847,118442058,0,677,523,247,146,135,73,104,404
2017/07/09/10:20:47.141379,212517,1499566847,141103982,0,665,593,255,152,150,82,106,398
2017/07/09/10:20:47.156336,212518,1499566847,156101942,0,685,477,223,140,136,79,103,390
2017/07/09/10:20:47.178769,212519,1499566847,178473949,0,569,450,224,131,132,76,94,381
2017/07/09/10:20:47.201358,212520,1499566847,201194047,0,625,517,227,116,126,79,98,430
2017/07/09/10:20:47.216092,212521,1499566847,215785980,0,579,504,220,105,124,95,102,374
2017/07/09/10:20:47.240358,212522,1499566847,238492012,0,574,462,259,101,100,85,93,370
2017/07/09/10:20:47.261204,212523,1499566847,260986089,0,554,436,246,103,105,82,95,393
2017/07/09/10:20:47.276102,212524,1499566847,275902032,0,584,417,225,99,103,78,99,376
2017/07/09/10:20:47.298654,212525,1499566847,298369884,0,547,370,224,102,106,71,95,354
2017/07/09/10:20:47.320918,212526,1499566847,320746898,0,537,460,225,100,93,43,80,317
2017/07/09/10:20:47.336275,212527,1499566847,335827112,0,546,429,163,84,89,65,88,358
2017/07/09/10:20:47.359041,212528,1499566847,358763933,0,624,459,167,82,86,67,90,355
2017/07/09/10:20:47.390675,212529,1499566847,389632940,0,597,485,180,82,84,67,83,355
2017/07/09/10:20:47.396242,212530,1499566847,395934104,0,584,433,150,74,83,71,88,370
2017/07/09/10:20:47.419075,212531,1499566847,418788909,0,618,517,207,101,91,75,91,385
2017/07/09/10:20:47.441168,212532,1499566847,440916061,0,592,521,214,104,95,60,79,358
2017/07/09/10:20:47.456373,212533,1499566847,456183910,0,527,497,217,102,91,59,72,367
2017/07/09/10:20:47.478891,212534,1499566847,478642940,0,610,477,202,95,83,62,75,394
2017/07/09/10:20:47.501372,212535,1499566847,500984907,0,614,487,196,96,87,60,71,354
2017/07/09/10:20:47.516133,212536,1499566847,515903949,0,577,301,135,83,96,64,67,342
2017/07/09/10:20:47.538503,212537,1499566847,538378953,0,606,279,118,78,91,63,69,348
2017/07/09/10:20:47.561185,212538,1499566847,561031103,0,605,289,137,96,115,74,77,342
2017/07/09/10:20:47.584211,212539,1499566847,583862066,0,529,332,147,98,114,70,72,286
2017/07/09/10:20:47.599246,212540,1499566847,598757028,0,513,326,151,96,110,69,70,284
2017/07/09/10:20:47.629802,212541,1499566847,629245996,0,476,354,153,90,102,68,101,368
2017/07/09/10:20:47.643533,212542,1499566847,643409013,0,483,357,206,93,101,67,100,352
2017/07/09/10:20:47.658705,212543,1499566847,658468961,0,535,345,190,75,71,56,97,333
2017/07/09/10:20:47.681236,212544,1499566847,681014060,0,531,335,185,75,71,56,101,368
2017/07/09/10:20:47.704024,212545,1499566847,703768014,0,508,321,186,87,89,66,99,372
2017/07/09/10:20:47.718934,212546,1499566847,718621015,0,595,324,208,85,88,62,74,289
2017/07/09/10:20:47.741136,212547,1499566847,740927934,0,619,327,161,84,92,64,74,290
2017/07/09/10:20:47.763934,212548,1499566847,763577938,0,600,392,159,82,93,60,72,295
2017/07/09/10:20:47.779287,212549,1499566847,778958082,0,584,371,156,86,106,64,72,262
2017/07/09/10:20:47.801269,212550,1499566847,801009893,0,567,374,153,76,97,55,72,259
2017/07/09/10:20:47.823989,212551,1499566847,823681116,0,579,366,131,75,92,55,74,271
2017/07/09/10:20:47.838921,212552,1499566847,838578939,0,509,354,126,74,96,57,79,295
2017/07/09/10:20:47.860941,212553,1499566847,860786914,0,504,324,139,80,103,71,87,296
2017/07/09/10:20:47.884161,212554,1499566847,883929014,0,551,334,173,77,89,68,86,300
2017/07/09/10:20:47.906476,212555,1499566847,906141042,0,557,327,171,77,81,66,83,297
2017/07/09/10:20:47.921528,212556,1499566847,921211957,0,479,287,166,93,96,76,86,302
2017/07/09/10:20:47.944131,212557,1499566847,943739891,0,481,319,173,91,89,74,82,269
2017/07/09/10:20:47.958574,212558,1499566847,958379030,0,422,290,160,85,78,64,71,275
2017/07/09/10:20:47.981381,212559,1499566847,981079101,0,418,283,130,86,82,61,70,280
2017/07/09/10:20:48.003677,212560,1499566848,3436088,0,415,325,142,82,83,65,68,261
2017/07/09/10:20:48.020112,212561,1499566848,19922018,0,438,389,143,62,67,49,58,231
2017/07/09/10:20:48.041486,212562,1499566848,41145086,0,466,359,142,64,72,54,74,325
