time,.header.seq,.header.stamp.secs,.header.stamp.nsecs,.header.frame_id,.pose.position.x,.pose.position.y,.pose.position.z,.pose.orientation.x,.pose.orientation.y,.pose.orientation.z,.pose.orientation.w,.twist.linear.x,.twist.linear.y,.twist.linear.z,.twist.angular.x,.twist.angular.y,.twist.angular.z,.wrench.force.x,.wrench.force.y,.wrench.force.z,.wrench.torque.x,.wrench.torque.y,.wrench.torque.z
2017/07/09/10:23:08.121781,537279,1499566990,929154639,,0.780581545277,0.397715551695,0.163841457778,0.623935960831,0.779057406938,0.0538072346249,0.029635367024,0.00384280363212,0.00197259069612,0.0137125354078,-0.0122872802975,-0.0193353672113,0.0093526310739,7.5138669014,1.43068552017,-0.96248036623,-0.619243741035,2.93280935287,0.115603543818
2017/07/09/10:23:08.131941,537280,1499566990,939158362,,0.780220401011,0.397972463949,0.16344761855,0.624017268226,0.77901807826,0.0537464093444,0.029062109055,0.0107128810358,-0.0227083131125,0.00764686576328,-0.00786635220024,-0.01785193655,-0.0315530406063,7.7639040947,1.53647065163,-0.963586330414,-0.677708506584,3.04816818237,0.104307085276
2017/07/09/10:23:08.141819,537281,1499566990,949154301,,0.780074905628,0.397702604484,0.16325760486,0.624114964278,0.778958024569,0.0535041607617,0.0290208908297,-0.00118398542337,-0.00951021406769,-0.000820399675372,-0.00182705148718,0.0060702472929,-0.0312198638405,8.18524360657,1.81377625465,-1.13726091385,-0.781706392765,3.1587228775,0.058462370187
2017/07/09/10:23:08.151762,537282,1499566990,959160507,,0.780338174104,0.397736589598,0.163615573202,0.624097014339,0.778948091624,0.0536777009566,0.0293511783173,-0.00668745903389,-0.0114147620303,-0.00499479431417,-0.00889109968118,0.0154942202539,0.00147464056085,8.53674316406,1.76072406769,-1.07545745373,-0.742802917957,3.30370998383,0.08544921875
2017/07/09/10:23:08.161737,537283,1499566990,969158610,,0.78064739654,0.396553569568,0.16339121037,0.624503029093,0.778622159497,0.0535990695155,0.0295065948503,-0.00590309674147,-0.0191130104223,0.00861618604591,-0.0254896841154,0.00777111839373,0.00306959410901,8.43086624146,1.97919762135,-1.16534507275,-0.813900709152,3.23673629761,0.066010221839
2017/07/09/10:23:08.171780,537284,1499566990,979155022,,0.780760858628,0.396681755944,0.163729185266,0.624295992734,0.77877979523,0.0535179114625,0.0298726823449,0.00493981135871,-0.0116722919021,-0.00153834817797,-0.0144144463154,-0.0087075028465,-0.00197436691313,8.57259654999,2.0885617733,-1.20665097237,-0.748861014843,3.2784614563,0.117734134197
2017/07/09/10:23:08.182001,537285,1499566990,989153760,,0.780751658112,0.396616092451,0.163990763355,0.624078969368,0.778953541127,0.053362012264,0.0301548736695,-0.000747000731327,-0.023013504013,0.00461146956441,-0.0453491622369,0.00642720696471,-0.0218470827533,8.47827720642,1.93838918209,-1.28002369404,-0.611636996269,3.25618457794,0.144360542297
2017/07/09/10:23:08.191985,537286,1499566990,999166363,,0.780207524034,0.396021700014,0.163291337406,0.624321250625,0.778816477925,0.0527916674847,0.0296801208572,0.00709400445487,-0.0251406530562,0.0110569525187,-0.0265216578674,-0.0134160954678,-0.0211852154915,8.527094841,2.10622143745,-1.26238429546,-0.729052245617,3.26842308044,0.0990650653839
2017/07/09/10:23:08.201862,537287,1499566991,9154413,,0.780803314002,0.395957538703,0.163708284534,0.624462218672,0.7786644385,0.0530580211145,0.0302237665284,-0.010025884817,-0.033686035118,-0.0181784288112,-0.0328322981612,0.0300906171386,-0.0313864330523,8.41137695312,2.21511888504,-1.20240843296,-0.723473727703,3.24350333214,0.098959878087
2017/07/09/10:23:08.211761,537288,1499566991,19198350,,0.781033664305,0.395573255359,0.163290560417,0.624819664591,0.778367972486,0.0530962172178,0.0304052276062,0.0174364967362,-0.0245564298031,-0.000104766779685,-0.0266883983847,-0.0333564987384,-0.0102510883915,8.40801429749,2.38042187691,-1.33830010891,-0.734207928181,3.25036787987,0.115516901016
2017/07/09/10:23:08.221702,537289,1499566991,29159363,,0.781366963164,0.395920370553,0.164143785926,0.624655671526,0.778449740088,0.0537327767794,0.0305627696274,0.0159736944723,-0.0396827383828,-0.00177886079452,-0.0158229510459,-0.017213363021,-0.0634420215297,8.3437871933,2.49905252457,-1.230727911,-0.719548523426,3.24562811852,0.133289575577
2017/07/09/10:23:08.231965,537290,1499566991,39181188,,0.781404708149,0.395560531956,0.163970857912,0.624700084035,0.778418188286,0.0535498636444,0.0307789092663,0.00781467305978,-0.0318989541866,0.009588702667,-0.0169633313742,-0.00739655881913,-0.0273673985633,8.2093038559,2.49159407616,-1.21796047688,-0.721639990807,3.21093773842,0.113337695599
2017/07/09/10:23:08.242064,537291,1499566991,49155133,,0.780615504906,0.394869447898,0.163330635899,0.624657149003,0.778544073606,0.0525511267679,0.0301819603095,0.00292241565313,-0.0387403391387,-0.00188887005821,-0.0244902664217,0.0054378970077,-0.0179480874191,8.44113922119,2.73649334908,-1.13772499561,-0.819698691368,3.31956076622,0.0898655056953
2017/07/09/10:23:08.251818,537292,1499566991,59161672,,0.781545191768,0.394798933701,0.16433237107,0.624977037181,0.7781983332,0.0533799290186,0.0310103269779,0.00458196300348,-0.0333410700544,-0.00522915294677,-0.00643613037572,0.00915389840491,-0.0639923609197,8.33540725708,2.55797195435,-1.09613060951,-0.735810637474,3.29590153694,0.123980976641
2017/07/09/10:23:08.261777,537293,1499566991,69156647,,0.781297706218,0.393836261377,0.163447241289,0.625239512873,0.778044113726,0.0527740980469,0.0306235728352,0.00881260036733,-0.0409316593757,-0.00192883117499,-0.00364026559808,-0.00235357496725,-0.0585395221524,8.3179769516,2.66510272026,-1.17667341232,-0.813991427422,3.23697805405,0.0746716782451
2017/07/09/10:23:08.271784,537294,1499566991,79160103,,0.780779497342,0.393349723126,0.163330320026,0.62562189382,0.777766715418,0.0524947404948,0.0303394887998,0.015912759203,-0.0673074470938,-0.00311868825261,-0.0249578774883,-0.00971991463304,-0.0812525287246,8.3301858902,2.54709005356,-1.15059363842,-0.751631915569,3.22413945198,0.104489788413
2017/07/09/10:23:08.281866,537295,1499566991,89161510,,0.781348638489,0.392874009314,0.163505855565,0.626117850958,0.777340903252,0.0527386902192,0.0305971795483,0.00280345903201,-0.0418885945376,-0.00798520549013,-0.010648203246,0.0102778185579,-0.0459276627423,8.34415531158,2.50036764145,-1.02774333954,-0.688682019711,3.26535058022,0.118076078594
2017/07/09/10:23:08.291803,537296,1499566991,99166674,,0.781185943868,0.39265646142,0.163318840515,0.626147761515,0.777339186334,0.0525427351819,0.0303649653319,0.0050208985038,-0.0500643209503,-0.00181963925462,0.00909037514519,0.0165443729065,-0.0727917665924,8.5302772522,2.52194094658,-1.01957404613,-0.758090257645,3.31469798088,0.0851380899549
2017/07/09/10:23:08.301810,537297,1499566991,109160761,,0.781556413248,0.391676991493,0.163908463795,0.626767982886,0.776814791071,0.0527455442711,0.0306363111594,0.0100607289833,-0.0620705388274,-0.0022336359596,-0.0140017464945,0.00445332321438,-0.0779390402444,8.36755561829,2.54753923416,-1.04730498791,-0.784908235073,3.21417880058,0.0859382078052
2017/07/09/10:23:08.312252,537298,1499566991,119192751,,0.781520685953,0.390776621088,0.163248321857,0.627131736979,0.776552290812,0.0523291840086,0.0305610963357,0.0158452322123,-0.0726650336714,0.00953248409226,-0.000831435485184,-0.00893102168461,-0.107344215831,8.40943813324,2.56701111794,-1.00298607349,-0.764977157116,3.25559425354,0.1019558236
2017/07/09/10:23:08.322105,537299,1499566991,129160538,,0.781632090488,0.390206117636,0.163288344717,0.627309857174,0.77640481364,0.0523999906859,0.0305311222516,-0.00494758162759,-0.0646940008492,-0.014278018458,-0.00357082847659,0.0358546759496,-0.0805507031106,8.54316329956,2.49004030228,-0.912998735905,-0.752561509609,3.32149958611,0.120807014406
2017/07/09/10:23:08.331827,537300,1499566991,139166978,,0.781369071696,0.389871405107,0.163270856013,0.627673713406,0.77612075099,0.0524911738351,0.0301158770616,0.0167041435489,-0.0754633428954,-0.00398544676719,-0.00346187525866,-0.00344744347214,-0.104075386503,8.34911441803,2.54967236519,-0.945063352585,-0.743354856968,3.21527934074,0.117596253753
2017/07/09/10:23:08.342111,537301,1499566991,149159279,,0.781612645522,0.388842446884,0.163009444461,0.628392404262,0.775541017544,0.0524361040171,0.0301591009183,0.0148931558779,-0.0783897067687,0.00263778118295,0.00836791814652,0.00537668544083,-0.108518136294,8.53727149963,2.55212306976,-1.00727963448,-0.810335040092,3.27266740799,0.0720319077373
2017/07/09/10:23:08.352017,537302,1499566991,159159093,,0.782278737586,0.388455134454,0.163504111072,0.628293515605,0.775574696319,0.0528523120543,0.0306232230386,0.00972883808973,-0.0810374936545,-0.00407299350896,-9.10462818315e-05,0.0129856822148,-0.112052697433,7.30914878845,2.24834775925,-0.708696484566,-0.686574995518,2.81698560715,0.0850842297077
2017/07/09/10:23:08.362225,537303,1499566991,169170429,,0.782066595738,0.387419489342,0.163584372123,0.629004576086,0.775039031266,0.0523073894378,0.0305234383412,0.0170698519495,-0.0870990040321,0.00443300437696,0.00826630668343,-0.00236252404998,-0.128283150296,7.31856632233,2.80344247818,-0.741464793682,-1.01813721657,2.76356911659,-0.0276675280184
2017/07/09/10:23:08.371760,537304,1499566991,179160482,,0.781970111542,0.386020323112,0.163281623317,0.629313305068,0.774818846519,0.0517797169086,0.030649307659,0.0166886079617,-0.0817791851222,0.0067040153083,-0.00332209917991,-0.0105017286265,-0.119113542875,5.4366517067,2.30083417892,-0.208657354116,-0.851276755333,2.06672930717,-0.0227793604136
2017/07/09/10:23:08.382021,537305,1499566991,189159129,,0.782778368107,0.385329676157,0.163737733793,0.63028740524,0.773951676103,0.0527076851991,0.0309594860123,0.0187402260053,-0.105513472732,0.00638128531716,-0.0164306018925,-0.0161178227216,-0.135702506198,3.96962451935,1.87833249569,0.519181907177,-0.732668817043,1.57061731815,-0.0519926100969
2017/07/09/10:23:08.391609,537306,1499566991,199153498,,0.782494384589,0.384269284234,0.163551070843,0.630381040563,0.773920781975,0.0521115374133,0.0308343087251,0.02357403068,-0.111435348664,0.0092759123941,-0.00938698785614,-0.0222344724311,-0.165503593927,3.98844718933,1.74919891357,1.02921068668,-0.660146951675,1.59594857693,-0.00944407656789
2017/07/09/10:23:08.402224,537307,1499566991,209161692,,0.782324431872,0.383299955492,0.163835004876,0.631298747039,0.773178513982,0.0521404376354,0.0306309038016,-0.00237133618317,-0.101013169084,0.000223017296421,-0.0201688734969,0.0221459420067,-0.113881178737,4.28958702087,1.81738746166,0.933543801308,-0.650027096272,1.65335023403,-0.0145464269444
2017/07/09/10:23:08.411698,537308,1499566991,219160390,,0.782785595182,0.381930056648,0.164087562049,0.63191353978,0.772665224167,0.052157242289,0.0308763936081,0.0105980976033,-0.113226852598,0.0249584078126,-0.0193308844467,-0.00417241510435,-0.153997254255,5.21847105026,1.95387768745,0.768921494484,-0.655468642712,1.96174895763,0.0282424334437
2017/07/09/10:23:08.421689,537309,1499566991,229167436,,0.782860974051,0.380340356871,0.163878321604,0.63253402472,0.772160749973,0.0520121596126,0.0310357700883,0.00337046390037,-0.130104809874,0.00565807206592,-0.0306821874464,0.0233176923143,-0.152956193286,5.45767021179,2.08448076248,0.422284901142,-0.698309183121,1.96948361397,0.00673674838617
2017/07/09/10:23:08.431833,537310,1499566991,239153700,,0.783301924955,0.379091998975,0.165000109808,0.63333485939,0.771478767278,0.0521353835534,0.0314542414076,0.0266339834346,-0.123269362599,0.0239240608236,0.0112103187388,-0.0243376068153,-0.182303566265,5.57249689102,1.99546480179,-0.00740688107908,-0.66871625185,1.96098673344,0.00142429163679
2017/07/09/10:23:08.444145,537311,1499566991,249153919,,0.783581494508,0.377300346914,0.165007160099,0.634267492359,0.770711117738,0.052191877271,0.0313867659944,0.0162891355004,-0.143474437836,0.0122678074936,0.0115699487239,0.020464272964,-0.208628243703,6.40006351471,2.14110183716,-0.0998669490218,-0.691909134388,2.27345633507,0.0293048024178
2017/07/09/10:23:08.451748,537312,1499566991,259160711,,0.783716077218,0.376068470613,0.164765242664,0.634823521896,0.770267572906,0.0519576192821,0.0314224120033,0.027926603794,-0.142440361751,0.0222519372624,-0.00153938406141,-0.0243019037936,-0.206917562145,6.32058477402,2.24421548843,-0.251030117273,-0.750360369682,2.228307724,0.00780127104372
2017/07/09/10:23:08.461760,537313,1499566991,269153464,,0.78422394708,0.375178222435,0.165050326631,0.635582417587,0.769596396118,0.0524689425317,0.0316762940619,0.0362969364485,-0.156351274039,0.0285836847716,-0.0120467099084,-0.0486451509907,-0.205892213254,6.9943189621,2.03774309158,-0.357268512249,-0.675536751747,2.50144648552,0.0544752255082
2017/07/09/10:23:08.471700,537314,1499566991,279174957,,0.784428576236,0.373775516071,0.165391342541,0.636423434996,0.76888779672,0.052516861831,0.0319178111034,0.0270135546869,-0.147207349831,0.0162403248159,0.00446497072328,-0.0210948317837,-0.22227169089,7.30137300491,2.25611162186,-0.674104988575,-0.751603960991,2.61344242096,0.0561729930341
2017/07/09/10:23:08.481720,537315,1499566991,289166448,,0.785009478015,0.372094709182,0.165928294856,0.637199492393,0.768215896831,0.0527224331727,0.032272089965,0.0400473074878,-0.153434862189,0.032728878887,0.00435251440716,-0.0603418972734,-0.229020048405,7.19428873062,2.21598339081,-0.650204062462,-0.810916602612,2.55986118317,0.0173546783626
2017/07/09/10:23:08.491768,537316,1499566991,299160858,,0.785103439709,0.370790512595,0.166101718547,0.638005477924,0.767539480361,0.0529331694522,0.0320972864464,0.0384373016504,-0.157151415317,0.0302214335374,0.00712421879787,-0.0521162700699,-0.218564323647,6.46750354767,0.937981843948,-0.476501315832,-0.157699406147,2.31617641449,0.171103462577
2017/07/09/10:23:08.501645,537317,1499566991,309159123,,0.785503497403,0.369590826647,0.166271017615,0.638382936168,0.767192598096,0.0531651241094,0.0324994432958,0.0358355894967,-0.152895428916,0.0347115662455,0.0235160447327,-0.0513690185724,-0.217732621953,5.15387296677,-0.349103868008,-0.113753087819,0.390018433332,1.87449467182,0.231479018927
2017/07/09/10:23:08.511910,537318,1499566991,319160620,,0.785355381836,0.366830371598,0.166317464043,0.640033333283,0.76586241001,0.0527043777234,0.0321613088822,0.0242286655285,-0.163316771461,0.0257907939282,0.0298464860246,-0.02832386427,-0.23103077217,4.81893587112,-1.01897704601,0.435688227415,0.682122945786,1.80222058296,0.295200616121
2017/07/09/10:23:08.521818,537319,1499566991,329159400,,0.785670037534,0.366042032583,0.166486646329,0.640161620902,0.765721488961,0.0530382919397,0.0324135782564,0.0149080571536,-0.16813352735,0.0172874655813,0.0129174792898,-0.00428475532001,-0.224218552802,4.84291696548,-0.374788790941,0.648325145245,0.263603508472,1.75287246704,0.149854362011
2017/07/09/10:23:08.531870,537320,1499566991,339162277,,0.786004126346,0.364622633603,0.166870000523,0.641059356514,0.764956020098,0.0531127872613,0.0326223937081,0.0304901388317,-0.152632368383,0.0429513658854,0.0158257588363,-0.0484296188432,-0.225696964286,5.44758224487,0.376411736012,0.728392243385,-0.196093335748,1.95478999615,0.0859169661999
2017/07/09/10:23:08.541940,537321,1499566991,349168168,,0.786304281532,0.363230655097,0.167270138628,0.642006284238,0.764126929901,0.053598482536,0.0326369218579,0.023475322906,-0.173207275044,0.0259786614899,0.0178983026961,-0.0207310368113,-0.253250349831,6.53262281418,1.33865332603,0.214329361916,-0.719247400761,2.25679922104,-0.030439959839
2017/07/09/10:23:08.552120,537322,1499566991,359166931,,0.78622955121,0.361493156351,0.167536166029,0.642973478351,0.763334653085,0.0532353413191,0.0327309023907,0.0281341023609,-0.182170388242,0.0246190649325,0.00264782406538,-0.029965975836,-0.256839650168,6.76082229614,1.6005730629,-0.268249630928,-0.893245518208,2.30819416046,-0.0757824331522
2017/07/09/10:23:08.561586,537323,1499566991,369157254,,0.787018838227,0.358626836636,0.167812046331,0.64425875563,0.762223483699,0.0532708179937,0.0332901883653,0.0273862554915,-0.204456641362,0.0253283042832,-0.0234214849902,-0.0232982617658,-0.281164273228,7.03130149841,1.69677889347,-0.31456977129,-0.832960188389,2.40892505646,-0.0477259084582
2017/07/09/10:23:08.571896,537324,1499566991,379163140,,0.786973876029,0.35746715135,0.16803650628,0.644952316732,0.761634823671,0.0532622405644,0.0333472374291,0.0316057314837,-0.225616434522,0.030052111881,-0.0376872641501,-0.0357063836923,-0.292952933565,6.2820687294,1.62833189964,-0.292278558016,-0.804742753506,2.11076807976,-0.0748447775841
2017/07/09/10:23:08.581899,537325,1499566991,389156884,,0.787620016058,0.354995376519,0.168552306039,0.646235325814,0.760501179071,0.053578090826,0.0338710567354,0.0382290455096,-0.195402925373,0.0469672294711,-0.0159160237973,-0.0643586452314,-0.271682321431,5.11370801926,1.1490932703,0.258694559336,-0.56429451704,1.71867251396,-0.0368987619877
2017/07/09/10:23:08.591832,537326,1499566991,399160329,,0.787994191534,0.352909758252,0.168802320072,0.647053400264,0.759790976182,0.0535303380036,0.0342647432804,0.040031790556,-0.21207556157,0.0290471033386,-0.00750413249378,-0.0574299504118,-0.288413824302,4.97635650635,0.990614771843,0.537696182728,-0.516580104828,1.67651379108,-0.0272533781826
2017/07/09/10:23:08.601881,537327,1499566991,409160362,,0.788340188014,0.350288644284,0.168870717221,0.648525975277,0.758540863623,0.0533870283587,0.0343459285456,0.0284573126383,-0.227233063704,0.0224684078133,0.000556008782934,-0.0196712783482,-0.319027467502,4.64798593521,0.720329403877,0.742661297321,-0.418537557125,1.57256805897,-0.00291195884347
2017/07/09/10:23:08.611792,537328,1499566991,419153341,,0.788270365957,0.348804074171,0.169471784213,0.649434785655,0.75774213257,0.0537233220196,0.0342800872402,0.0170016584456,-0.188800353212,0.0346225599262,0.0218835948856,-0.0116660829831,-0.252295350209,4.87641382217,0.758818566799,0.65919393301,-0.40416765213,1.62802946568,0.0112280296162
2017/07/09/10:23:08.622032,537329,1499566991,429161605,,0.789076846214,0.347443231187,0.170143924084,0.650183387381,0.757041102022,0.0541474533208,0.0349053853013,0.0412779373296,-0.188353302137,0.0436100410338,0.0278508223002,-0.0719845100529,-0.290073271262,5.61958551407,0.891502737999,0.470601141453,-0.505817830563,1.91347050667,0.0159963034093
2017/07/09/10:23:08.631770,537330,1499566991,439159338,,0.78916625443,0.345196322452,0.170035139181,0.6516406622,0.755798913671,0.0540526903643,0.034795921119,0.0443650630947,-0.215877613391,0.0394520840296,0.0165991489377,-0.0643756207179,-0.336678302397,6.31595563889,1.14500212669,0.137288466096,-0.669583559036,2.13780450821,-0.0425002388656
2017/07/09/10:23:08.641879,537331,1499566991,449165314,,0.789559439332,0.342473461659,0.170647504737,0.652767274254,0.754813105763,0.0539281722026,0.0352677370114,0.0282329075201,-0.219518071856,0.019849031187,-0.00410087392958,-0.0201773147196,-0.309708120362,6.45894193649,1.2310693264,-0.0991422981024,-0.673088133335,2.14743518829,-0.040859349072
2017/07/09/10:23:08.651797,537332,1499566991,459159927,,0.789490307518,0.34050303258,0.170690274884,0.65381602861,0.753924039341,0.0537992469337,0.0350540249454,0.0174039793687,-0.236554340334,0.0212624288815,-0.0171156612963,0.00156335287276,-0.295504173648,6.5241484642,1.12118721008,-0.480124861002,-0.576792359352,2.12751698494,0.00262917764485
2017/07/09/10:23:08.661633,537333,1499566991,469160236,,0.790146387151,0.338455261057,0.170718562137,0.65485456699,0.752981474438,0.0541753643335,0.0353472084557,0.0291840638693,-0.247193593212,0.0215828556945,-0.0112489730775,-0.0217240488146,-0.333350423275,6.93827962875,0.962014317513,-0.627518296242,-0.464882135391,2.28920650482,0.0417026616633
2017/07/09/10:23:08.671772,537334,1499566991,479159785,,0.790335663648,0.335825429956,0.17077881058,0.656193455161,0.751819811643,0.0538893435737,0.0356799505883,0.0401162246426,-0.236808888999,0.0288341028079,-0.0141698177449,-0.0548460842544,-0.338850371929,6.35318088531,0.853906869888,-0.478884100914,-0.461770474911,2.08634090424,0.0425126440823
2017/07/09/10:23:08.681976,537335,1499566991,489153893,,0.790221399369,0.333042920938,0.170777901556,0.657522272678,0.750678975565,0.053511228048,0.035806215246,0.0443323063646,-0.263909704153,0.0247402484658,-0.011029185467,-0.0586502340052,-0.369861958368,5.39741182327,-0.0598004981875,-0.303236931562,-0.248685270548,1.73433482647,0.034187477082
2017/07/09/10:23:08.691823,537336,1499566991,499152146,,0.790859706545,0.3314889474,0.171905626609,0.658233021333,0.750003050995,0.0539702924198,0.0362204453361,0.0329510019981,-0.237656149945,0.0224086050481,0.00527350474424,-0.0368148352227,-0.332865974471,4.78755950928,0.0855696499348,0.479898095131,-0.301867604256,1.53345417976,0.0397799983621
2017/07/09/10:23:08.701921,537337,1499566991,509160505,,0.791187042588,0.32889345744,0.17121524008,0.65971110252,0.74871060616,0.0537582445577,0.0363832458321,0.0131011000202,-0.208644347818,0.00593206213862,0.0021746164531,-0.00298084952573,-0.279093366119,4.54877567291,0.374546170235,0.512023866177,-0.495703756809,1.45862340927,-0.0378839932382
2017/07/09/10:23:08.711886,537338,1499566991,519160938,,0.791252844647,0.327390032886,0.171856411369,0.66014874551,0.748304186813,0.0539005315102,0.0365952251363,0.035156511515,-0.231450758834,0.019772460482,0.00968806844247,-0.0476534874658,-0.316474611483,4.52806615829,0.855805754662,0.671504974365,-0.721267342567,1.43581473827,-0.0815056711435
2017/07/09/10:23:08.721890,537339,1499566991,529161197,,0.791850950212,0.325235460245,0.171811446061,0.661597841921,0.746988503528,0.0542105837052,0.0368467607339,0.0276067355817,-0.209515958502,0.0318796708748,0.0059564188742,-0.0367659615912,-0.290074072283,4.21229028702,0.785513043404,0.394442111254,-0.648931622505,1.28484916687,-0.0704482272267
2017/07/09/10:23:08.732012,537340,1499566991,539166058,,0.791741525331,0.322367791673,0.171969545539,0.662870711103,0.745897157363,0.0536890953201,0.0368419875006,0.0231983404721,-0.236306894295,0.0102096547036,-0.0191882928785,-0.0147873321258,-0.327498753347,4.70891094208,0.738597750664,0.132109716535,-0.645360469818,1.4689463377,-0.0847752764821
2017/07/09/10:23:08.741857,537341,1499566991,549154095,,0.792001861834,0.320158661624,0.171788706046,0.66390182332,0.744974166597,0.0537681126772,0.0368354469861,0.0297812910075,-0.245001934027,0.022355099849,-0.0185179800878,-0.037683754485,-0.336069073798,4.78208303452,0.457274705172,0.202038168907,-0.60585474968,1.49852645397,-0.0610817037523
2017/07/09/10:23:08.751893,537342,1499566991,559160654,,0.792360848746,0.318363664249,0.172059904957,0.665352514328,0.743645599988,0.054107527559,0.0370084957409,0.0294517303719,-0.253768366449,0.0134416765801,0.00697074941154,-0.0315148582267,-0.351604238318,4.71379518509,0.497265100479,-0.0311492420733,-0.55847465992,1.50215661526,-0.0550469793379
2017/07/09/10:23:08.761961,537343,1499566991,569157622,,0.792378345403,0.316412467931,0.172059746454,0.666032689152,0.743032967459,0.0541045059491,0.0370832669296,0.0285518093961,-0.265649080509,0.0028235135086,-0.0043014849753,-0.0186393520012,-0.361729099509,4.45281887054,0.498200803995,-0.00680154422298,-0.47541680932,1.44939422607,-0.0220632720739
2017/07/09/10:23:08.771761,537344,1499566991,579154820,,0.792730131561,0.313321523111,0.172411564983,0.667586940069,0.741624798842,0.0540333988899,0.0374262875007,0.0247405158442,-0.242816360894,0.0144396286072,-0.00219926750544,-0.0312612116047,-0.329939440887,4.57067012787,0.217955946922,0.0209312867373,-0.429741561413,1.47541511059,-0.0273758731782
2017/07/09/10:23:08.781635,537345,1499566991,589152290,,0.793178925115,0.311832497796,0.172255743374,0.668679525864,0.740619997623,0.0543440698274,0.0373688759087,0.0341129144632,-0.229671575604,0.0137433556531,0.0124737439191,-0.0328646509138,-0.325817673358,4.01561927795,0.417106330395,-0.258450716734,-0.4311452806,1.27103388309,-0.0314436927438
2017/07/09/10:23:08.791821,537346,1499566991,599154422,,0.793351143438,0.308440931356,0.17249196587,0.670377644965,0.739084028748,0.0542112771249,0.0375466245309,0.0330814710372,-0.249089229552,0.00753940834402,-0.0119600582994,-0.0349541744188,-0.330527694217,3.69107818604,0.270427703857,-0.354351967573,-0.527445673943,1.13585627079,-0.101628310978
2017/07/09/10:23:08.801992,537347,1499566991,609167385,,0.79363382032,0.306653609902,0.172516164421,0.671175997418,0.7383422839,0.054213477574,0.0378728285745,0.0120834952784,-0.2340347969,0.00652166135184,-0.00808800288007,0.00157988588537,-0.32323096466,3.06834053993,0.299322009087,-0.302724391222,-0.427464067936,0.86443990469,-0.0577113106847
2017/07/09/10:23:08.811816,537348,1499566991,619166368,,0.793448278611,0.303960742349,0.172239438252,0.672575406999,0.73711773261,0.0536425007674,0.0377127602376,-0.000789349733487,-0.210338509664,-0.0080316755276,0.0162663312482,0.0326887452587,-0.294945390412,3.05764222145,-0.117403589189,-0.321777045727,-0.347263664007,0.898527681828,-0.0301028229296
2017/07/09/10:23:08.821658,537349,1499566991,629161227,,0.794074847031,0.301888835854,0.172476169456,0.673126893414,0.736559693464,0.0539986770546,0.0382641634379,0.0247998752224,-0.238082490062,-0.000600518142121,-0.000434839396367,-0.0171904977121,-0.318107995572,2.60385394096,-0.0121966833249,-0.203940495849,-0.342696547508,0.711521089077,-0.0652563348413
2017/07/09/10:23:08.831816,537350,1499566991,639172918,,0.793936387575,0.29950345258,0.172518231271,0.674531069271,0.735294837943,0.0537711069381,0.0381838439719,0.0169023564214,-0.250434383418,-0.00489702745598,-0.00820387547788,-0.00772741097469,-0.339093823922,3.01042819023,-0.0279294103384,0.334009379148,-0.377104848623,0.878844559193,-0.0558917969465
2017/07/09/10:23:08.841962,537351,1499566991,649156062,,0.794197171773,0.297712827564,0.172542549356,0.675465968514,0.734419092281,0.0537783799682,0.0384994561162,0.0201526587628,-0.233351320228,0.00249468601081,0.0316568436791,-0.0148823228534,-0.342938043605,2.62872290611,-0.157294884324,0.184475004673,-0.329241544008,0.762609481812,-0.0464743152261
2017/07/09/10:23:08.851813,537352,1499566991,659188476,,0.793623601643,0.295745234311,0.171867674226,0.676838993952,0.733234940351,0.0533054865544,0.0376035053874,-0.00136908829018,-0.217394413085,-0.00868640741937,0.00233840598991,0.0301896845373,-0.285714704455,2.69771385193,-0.161565244198,0.133699178696,-0.296000272036,0.812288880348,-0.0193715691566
2017/07/09/10:23:08.861824,537353,1499566991,669190586,,0.793967776184,0.292844735349,0.172104778076,0.678379891421,0.731779311032,0.0535034881888,0.037909624275,-0.00545946829542,-0.230951565691,-0.0110895288996,-0.0110280941153,0.0339746239094,-0.306126750246,2.52338767052,-0.46036413312,0.267556011677,-0.236643448472,0.71328163147,-0.0140523761511
2017/07/09/10:23:08.872058,537354,1499566991,679188885,,0.793923180493,0.290595711049,0.171993136343,0.67914300154,0.73108492363,0.0531740359983,0.0381069520684,-0.00367330647964,-0.2361203034,-0.00485866799014,0.00541854566834,0.0305110098253,-0.324655292512,1.96559071541,-0.400990009308,0.278325468302,-0.22616392374,0.474801599979,-0.0326236449182
2017/07/09/10:23:08.881876,537355,1499566991,689186781,,0.793991868749,0.288225011077,0.171851869208,0.680233377327,0.730090476782,0.0528075646172,0.0382336135118,0.00597380170346,-0.244008418005,-0.00489800455331,-0.00353296995135,0.0155772174127,-0.336894752293,1.24971818924,-0.339778989553,0.456388950348,-0.236455962062,0.218754693866,-0.0415107347071
2017/07/09/10:23:08.891949,537356,1499566991,699215247,,0.793912099016,0.285656468729,0.171346876227,0.681631822667,0.728798909138,0.0527718473036,0.0380176340579,0.0161860899574,-0.231252406176,-0.00896380694437,-0.00701889535133,-0.00775076180767,-0.315835917479,0.570305585861,-1.01631963253,0.5730073452,-0.015425552614,-0.0258588604629,-0.0375259444118
2017/07/09/10:23:08.901897,537357,1499566991,709189086,,0.794251070645,0.284407828824,0.172295422547,0.682374237615,0.72804912062,0.0532176558623,0.0384416298826,0.0120467817954,-0.229984376601,-0.0148032446355,0.00101159006995,0.00292195690943,-0.312339849942,-0.030150923878,-0.716646313667,0.908471226692,-0.0160401538014,-0.231084004045,-0.0255800578743
2017/07/09/10:23:08.911913,537358,1499566991,719183543,,0.793814806731,0.281995100318,0.171132163176,0.683492297872,0.727082708739,0.0525226937876,0.0378203654222,0.00896783357859,-0.224512821333,-0.0176314915207,0.00590264201951,0.00893144985463,-0.307127562171,-0.615469813347,-1.08143818378,1.11091661453,0.0724052414298,-0.402031242847,-0.00296031311154
2017/07/09/10:23:08.921829,537359,1499566991,729189026,,0.794534260143,0.280152617504,0.171857110659,0.684151215763,0.726376552244,0.0530904519902,0.0386732753641,0.0146650366852,-0.212279791303,-0.00431004486591,0.00569845883949,-0.0172321490876,-0.290402730114,-1.43717181683,-1.21967840195,1.45358192921,0.150290310383,-0.665970444679,0.00746986782178
2017/07/09/10:23:08.931798,537360,1499566991,739188525,,0.795556516673,0.277641773867,0.172276823954,0.68561259004,0.724909859397,0.0537973357394,0.0393308885751,0.0120828643029,-0.233516941976,0.00237264534715,-0.0019219350838,-0.0196307624179,-0.3183934072,-1.40380859375,-1.14636611938,1.82376551628,0.0237144976854,-0.636629581451,-0.0123783163726
2017/07/09/10:23:08.941980,537361,1499566991,749181212,,0.794915271721,0.275304518126,0.171466689013,0.687038700389,0.723641128218,0.0532278173225,0.0385764329946,0.00329409950842,-0.233091659901,-0.0286544687855,0.0072125470788,0.0127805708782,-0.335769730098,-1.01107752323,-0.505196690559,1.83311498165,-0.345301061869,-0.423075377941,-0.129787892103
2017/07/09/10:23:08.951862,537362,1499566991,759187143,,0.794801524421,0.272590405051,0.171205905107,0.687826820771,0.722921003001,0.0525128575801,0.0390113808585,0.0028633858415,-0.225027576673,-0.0272178956851,0.0210422228859,0.0306541407015,-0.328962163344,-0.175101950765,1.12415289879,1.6404941082,-1.09937155247,-0.117885798216,-0.278566390276
2017/07/09/10:23:08.961676,537363,1499566991,769183884,,0.794279580696,0.270797412439,0.170340107015,0.688805257965,0.722066900187,0.0518736066869,0.0384166263798,0.00158030946665,-0.21919974915,-0.0203565600952,-0.0139567612973,0.0263257243464,-0.2911916589,-0.733564198017,1.89594566822,1.47587049007,-1.39282143116,-0.293518304825,-0.337614029646
2017/07/09/10:23:08.971889,537364,1499566991,779188584,,0.794681970618,0.268756005903,0.170356560385,0.690165742501,0.720737084491,0.0523001770056,0.0383926347423,-0.00248965478453,-0.216791445449,-0.022883644295,-0.0260592336244,0.0359888511352,-0.279838989339,-1.26594436169,1.72752261162,1.80766868591,-1.29156517982,-0.522343039513,-0.336681336164
2017/07/09/10:23:08.982077,537365,1499566991,789184432,,0.794276236101,0.265935866771,0.170467732239,0.691168385457,0.719817122509,0.0513235949055,0.0389289313308,0.000794251013504,-0.254872355099,-0.00969405517905,-0.0543406664078,0.0109602405769,-0.31466019338,-2.17363548279,0.714464366436,2.01584482193,-0.75735449791,-0.851993501186,-0.187975689769
2017/07/09/10:23:08.991934,537366,1499566991,799188941,,0.794425311494,0.26407338654,0.170456659125,0.691898460101,0.719107253201,0.051383716313,0.0389999102753,-0.0130489328657,-0.273638699605,-0.0190181075169,-0.077984928298,0.0360436826515,-0.323280048257,-2.84521341324,0.1972245574,2.0493555069,-0.262842833996,-1.07884693146,-0.0682355463505
2017/07/09/10:23:09.002092,537367,1499566991,809192546,,0.794421166179,0.261637829745,0.170253234884,0.692698646049,0.718343572373,0.0509202683234,0.0394743469366,-0.0129031258708,-0.265157299888,-0.0158096457449,-0.0717110663636,0.0343237821001,-0.302585380815,-3.03167080879,-0.445805579424,2.4867272377,0.157342284918,-1.14961004257,0.0275567397475
2017/07/09/10:23:09.011843,537368,1499566991,819180149,,0.794723731066,0.259414386041,0.170336202016,0.694083733626,0.716966806685,0.051267479869,0.0397242285771,0.00439159553771,-0.22661180047,0.00341835652209,-0.0267773596905,-0.0179540369832,-0.296682901378,-3.19180679321,-0.655192732811,2.71412181854,0.123173840344,-1.20992863178,-0.027528706938
2017/07/09/10:23:09.021904,537369,1499566991,829181192,,0.794448322185,0.257857104242,0.170117130249,0.695081016436,0.716028107974,0.0513986465765,0.0390423912011,-0.00195895325473,-0.2179296342,-0.00148723173591,0.01099884329,-0.00121121468017,-0.306515462717,-3.54003548622,-0.343850880861,2.73039722443,-0.0234184619039,-1.33137118816,-0.0350878201425
2017/07/09/10:23:09.031783,537370,1499566991,839183424,,0.794255052089,0.254932785985,0.169921028917,0.696405187035,0.714781075517,0.0507751369479,0.0391115714404,0.00267833800448,-0.209617362941,-0.0105642465326,0.0581726489552,0.00557818571957,-0.318711298982,-3.57360601425,-0.516427278519,2.83187842369,-0.0377503633499,-1.35173416138,-0.0455588698387
2017/07/09/10:23:09.041816,537371,1499566991,849181760,,0.794552072345,0.253802195327,0.170037969597,0.696988379786,0.714170362217,0.0512268655428,0.0392899531757,-0.00271879229155,-0.225395774482,-0.00755603322798,0.0156044258742,0.0125888803859,-0.320044849191,-3.79760694504,0.0214454010129,2.5996966362,-0.146173164248,-1.48433506489,-0.0171308331192
2017/07/09/10:23:09.051819,537372,1499566991,859188516,,0.793793465632,0.251195255228,0.169417695591,0.698142918157,0.7131292254,0.0502886712709,0.0389130215829,-0.0025048757932,-0.212128566487,-0.00224026884287,-0.00716091783202,0.00831086903559,-0.301270119843,-4.0566740036,0.244230926037,2.35134768486,-0.247942268848,-1.536195755,-0.0776128172874
2017/07/09/10:23:09.061730,537373,1499566991,869184342,,0.794401816158,0.249429158533,0.169298600113,0.699176623652,0.712061676371,0.0508839576247,0.0391285169644,0.00108048055899,-0.198177036464,-0.00570772057363,-0.0115089471629,0.000108709386565,-0.276393855613,-4.03755569458,-0.386910498142,1.9825707674,-0.0484335497022,-1.58203196526,-0.0439610294998
2017/07/09/10:23:09.071884,537374,1499566991,879188215,,0.794737092349,0.246953805275,0.170085796353,0.700467449006,0.710742376916,0.0512515601577,0.0395462276235,-0.00438643437365,-0.228168287637,-0.00667548954911,-0.0088400286475,0.0106988751973,-0.314893005777,-4.18092441559,-0.576059341431,2.45102977753,0.159901976585,-1.6641561985,0.0334389172494
2017/07/09/10:23:09.082282,537375,1499566991,889187091,,0.793551201591,0.244939819926,0.169046237277,0.701482560609,0.709878371711,0.049957038961,0.0387196177201,-0.00435710250874,-0.216612750853,-0.0074849589345,0.00207592319127,0.0107875758946,-0.292846887894,-4.22292327881,-0.481673717499,1.94146895409,0.136294096708,-1.64311134815,0.0177678763866
2017/07/09/10:23:09.091988,537376,1499566991,899207854,,0.794162709601,0.24342531349,0.169260257332,0.701978111989,0.709320290524,0.0503791346583,0.0394131771256,-0.0101932122379,-0.218230383897,-0.0142209731904,-0.00750026724758,0.0221634997532,-0.28717221267,-3.94586730003,0.0216886773705,2.12219333649,-0.0703241378069,-1.57509577274,-0.0142503902316
2017/07/09/10:23:09.102031,537377,1499566991,909212302,,0.794155859373,0.241128682099,0.169439723393,0.703117681552,0.708186964463,0.0504030166789,0.0394497802688,-0.0128910070988,-0.201045308777,-0.00627726182907,-0.00958165682739,0.0228374274643,-0.253831065739,-4.10647249222,-0.0777631178498,1.90309584141,-0.122270703316,-1.61010217667,-0.033498890698
2017/07/09/10:23:09.111974,537378,1499566991,919186645,,0.793994530017,0.238776310171,0.169203306144,0.704256363351,0.707069649668,0.0503533430775,0.0392431655148,-0.0190453495958,-0.224346514354,-0.0177560423671,-0.000647120200739,0.0441853598651,-0.300423201137,-3.80699515343,-0.0253492668271,1.76395452023,-0.190144211054,-1.58382487297,-0.0619637295604
2017/07/09/10:23:09.121989,537379,1499566991,929193905,,0.793584364238,0.236953081651,0.16892560426,0.705326744794,0.706052385295,0.0498210393636,0.0390137967274,-0.0175728877776,-0.244828026249,-0.0221252950035,-0.0114196528086,0.0428046256423,-0.344008017953,-4.44553375244,-0.302124857903,1.53365051746,0.0587971061468,-1.81563556194,0.00725091248751
2017/07/09/10:23:09.131759,537380,1499566991,939182681,,0.793253353303,0.234647635919,0.168496516872,0.706469863571,0.704944801349,0.0493332952349,0.0389792880778,-0.00488675610329,-0.207532122821,-0.0226412394816,0.0102463611749,0.0176346550896,-0.299411537987,-4.54802703857,-0.628065109253,1.66493797302,0.0842371433973,-1.85373580456,-0.00447039306164
2017/07/09/10:23:09.141742,537381,1499566991,949183367,,0.793369572113,0.232301635796,0.16833529201,0.707612378776,0.703774896179,0.0496720486124,0.038965426961,-0.0167475726444,-0.203952822932,-0.0313341079555,0.0179922617339,0.0468161996641,-0.285991425392,-4.60251617432,-0.867229878902,1.64509916306,0.161719858646,-1.89406943321,0.0311350151896
2017/07/09/10:23:09.151919,537382,1499566991,959192091,,0.793484992296,0.23047566355,0.16794801439,0.70812415075,0.703271341644,0.0493637555335,0.0391513318528,-0.0108012607962,-0.246036856903,-0.032285543772,-0.0103950375438,0.0292173297455,-0.318563570001,-5.79705858231,-0.780640125275,1.9879437685,0.298919409513,-2.27354359627,0.0539515055716
2017/07/09/10:23:09.161902,537383,1499566991,969182497,,0.793574075418,0.228239041695,0.168070672336,0.70932896008,0.702042616411,0.0493571943761,0.0394012499623,-0.0174823805841,-0.24827571056,-0.0344855665241,-0.0150199042824,0.038727334603,-0.32680456921,-6.04148101807,-0.19541220367,1.94718790054,-0.00525532290339,-2.36832165718,-0.0309259742498
2017/07/09/10:23:09.171870,537384,1499566991,979196865,,0.793350671761,0.226089961368,0.16766057294,0.710364073861,0.701013987456,0.0491256074253,0.0393566595899,-0.0263271691243,-0.217749567001,-0.0446318109549,-0.019438753759,0.0675987286069,-0.276325789733,-6.00473594666,-0.302836894989,2.18823409081,0.0167239494622,-2.34612512589,-0.0137685313821
2017/07/09/10:23:09.182022,537385,1499566991,989183953,,0.792878351406,0.224053799029,0.166913213494,0.711037010506,0.700395959894,0.0485199191554,0.0389574960792,-0.00838902690117,-0.192816526572,-0.0387320680249,0.0169986367497,0.0338598900128,-0.271379736203,-6.27279615402,-0.348904728889,1.82144105434,0.108408220112,-2.42837262154,0.0104583576322
2017/07/09/10:23:09.191737,537386,1499566991,999188223,,0.792369638732,0.221905968788,0.166130051264,0.712529197128,0.698944974275,0.0479699726171,0.0384310799154,-0.0247909073017,-0.206608647393,-0.0386924234027,0.00505772282203,0.0645061642258,-0.289345251623,-6.44720983505,-0.472169339657,1.4068492651,0.199654713273,-2.55365562439,0.0495953261852
2017/07/09/10:23:09.201730,537387,1499566992,9201453,,0.792380703315,0.220252215671,0.16600564511,0.713202670234,0.698260195266,0.0478701573225,0.0385110233142,-0.0191575684969,-0.208953560679,-0.0440432634822,-0.0288606261587,0.0673049058385,-0.272346265529,-6.87155628204,-0.599121272564,1.57144391537,0.353870093822,-2.71631288528,0.0768332481384
2017/07/09/10:23:09.211916,537388,1499566992,19190740,,0.791980432109,0.218565495025,0.165045426492,0.713836820691,0.697654074746,0.0475436895459,0.0381494823103,-0.015194898139,-0.221215985539,-0.0507708175806,-0.0278374823862,0.0522714936454,-0.262813853116,-7.51614809036,-0.413228690624,1.34319424629,0.331765592098,-2.88601756096,0.0623323395848
2017/07/09/10:23:09.221636,537389,1499566992,29182259,,0.792361379345,0.216670394306,0.165150981147,0.714484928116,0.696973512541,0.0473638015986,0.0386766157836,-0.0116655904067,-0.165267250402,-0.0454974934325,-0.00566993853692,0.0397739345266,-0.2005226871,-7.33428049088,0.0579180717468,1.44823801517,0.172522947192,-2.82164573669,0.0217484049499
2017/07/09/10:23:09.231988,537390,1499566992,39185176,,0.79199798418,0.214869946821,0.164361137494,0.715629886847,0.695831339324,0.0470753400325,0.0384255725661,-0.00985641045904,-0.206328570799,-0.0510902279493,0.0033813134068,0.0370251526468,-0.275940732635,-8.09137630463,-0.263347029686,1.46094512939,0.220182865858,-3.05620121956,0.0311231017113
2017/07/09/10:23:09.241987,537391,1499566992,49188453,,0.791909276182,0.213100971539,0.163693381239,0.716286364677,0.695183895256,0.0470263994694,0.0379699000139,-0.01109044991,-0.202244972869,-0.0446253309667,-0.0233853210077,0.0296592316705,-0.254627924623,-9.06912708282,-0.411863595247,1.48756229877,0.24247071147,-3.34563803673,0.044532649219
2017/07/09/10:23:09.251866,537392,1499566992,59185205,,0.792097539653,0.211298798028,0.163523921505,0.716765365552,0.694670062712,0.046707598179,0.0387209890064,-0.0228729985046,-0.208201318932,-0.0766990386918,-0.0256014696646,0.0758946805651,-0.247568748012,-8.20844745636,0.0931117683649,1.7410954237,0.0407807864249,-3.02444696426,0.0119039081037
2017/07/09/10:23:09.261979,537393,1499566992,69189267,,0.791771801049,0.209038836276,0.162569215892,0.717957644501,0.693482751417,0.0463224881718,0.0383760508443,-0.00351697327003,-0.195061322609,-0.0655633565275,-0.0417176046616,0.0367974348284,-0.224375629045,-8.64384269714,-0.113410413265,1.49623179436,0.13299113512,-3.14636111259,0.0489089861512
2017/07/09/10:23:09.271949,537394,1499566992,79188904,,0.791071697328,0.207127204602,0.161160264533,0.718507007645,0.693009901273,0.0452361272291,0.037929533289,-0.0225603697787,-0.212928966642,-0.0781560374917,-0.0375716367746,0.078259017813,-0.246035998113,-9.28786849976,0.0613989457488,1.1285122633,0.016518227756,-3.37393093109,-0.0220294296741
2017/07/09/10:23:09.281689,537395,1499566992,89180961,,0.790634662609,0.204757497351,0.160585527914,0.719055306202,0.69249976311,0.0442609094428,0.0380067968917,-0.0425026110917,-0.202885574773,-0.091848345574,-0.0714555010219,0.135345775868,-0.199310541496,-9.88076210022,-0.233386844397,1.4651235342,0.208795100451,-3.5968580246,0.0610126666725
2017/07/09/10:23:09.291862,537396,1499566992,99214456,,0.790943058343,0.202597339808,0.160118752586,0.719817605359,0.69169484217,0.043844861853,0.0387103141333,-0.0387059526202,-0.223243468837,-0.076003195395,-0.121783035439,0.113914490384,-0.180162004798,-10.1913690567,-0.380966544151,1.29090249538,0.266029089689,-3.77005076408,0.0459041111171
2017/07/09/10:23:09.302086,537397,1499566992,109188860,,0.79037547872,0.200351390945,0.159143242975,0.72041431016,0.691129434149,0.0429119780968,0.0387542140187,-0.0384318920997,-0.222767451078,-0.0818254935705,-0.144725257402,0.113215133947,-0.176830006361,-9.99163818359,-0.329980611801,1.25710952282,0.231615900993,-3.63445711136,0.0408762581646
2017/07/09/10:23:09.311691,537398,1499566992,119187550,,0.789613228558,0.197814028514,0.158101295651,0.721161519685,0.690442014284,0.041522717834,0.0386231969206,-0.0272038573152,-0.23126924376,-0.0859832088147,-0.16308238394,0.0955783293575,-0.175516050837,-9.7635011673,-0.458462327719,1.02198147774,0.291692554951,-3.45616531372,0.0761901810765
2017/07/09/10:23:09.321945,537399,1499566992,129187858,,0.790015849008,0.196711072607,0.157648233204,0.721383651835,0.690182517371,0.0413043922714,0.0393403960278,-0.0159703432909,-0.224061700441,-0.0877977134641,-0.172152467661,0.074363674368,-0.156370006603,-9.0638961792,0.220603987575,1.40909838676,0.140077382326,-3.21976971626,0.031522154808
2017/07/09/10:23:09.331850,537400,1499566992,139188645,,0.79014631886,0.193441658134,0.156832114367,0.722016924057,0.689531414743,0.0401852485464,0.0402881528074,-0.0269901131272,-0.23099195322,-0.0990773970902,-0.181349695395,0.100602074648,-0.155882518613,-9.59633159637,-0.217255800962,1.37075102329,0.246477022767,-3.39551568031,0.102036058903
2017/07/09/10:23:09.341998,537401,1499566992,149182440,,0.789447139622,0.191733662765,0.155733426411,0.722169769972,0.689451458341,0.0387904123799,0.0402841635997,-0.0304803724083,-0.24560001729,-0.0912353541972,-0.216849435922,0.106617130508,-0.149342418664,-10.18866539,0.266239494085,1.22968733311,0.0730122700334,-3.66933131218,0.056150149554
2017/07/09/10:23:09.351874,537402,1499566992,159186220,,0.789378021216,0.189673806583,0.154862552352,0.722164312971,0.689486030514,0.0375998579,0.04091417215,-0.0205253621882,-0.228107836434,-0.0879399330195,-0.235773401179,0.0918833903044,-0.0893412335871,-10.9806804657,0.0977742373943,1.13889336586,0.12571580708,-3.97221231461,0.0773474574089
2017/07/09/10:23:09.361871,537403,1499566992,169188708,,0.788352094009,0.186684119267,0.153209400397,0.722936628403,0.688784726413,0.0357978816468,0.0407031158927,-0.0268710338853,-0.254414067739,-0.103316767566,-0.254737687912,0.123304728195,-0.103930014452,-11.3354091644,-0.295190036297,0.471991479397,0.107550680637,-4.08537244797,0.0570980608463
2017/07/09/10:23:09.371833,537404,1499566992,179186083,,0.788718708798,0.184845722724,0.152752346235,0.722929488438,0.688771732429,0.0349859714926,0.041742510139,-0.0171435664937,-0.242228449453,-0.0911441247946,-0.261513837504,0.0971116597343,-0.0856403660598,-10.0917139053,0.381411731243,0.50630402565,0.0369098484516,-3.69248580933,0.0889315009117
2017/07/09/10:23:09.381874,537405,1499566992,189187351,,0.788467258396,0.181766516422,0.151683862965,0.723491278127,0.688206149603,0.033589306371,0.0424785195114,-0.0339218158036,-0.253782652427,-0.112762973817,-0.289450654448,0.147420479156,-0.0954728157922,-10.2531461716,-0.441265195608,0.700201272964,0.206421628594,-3.78364276886,0.111697986722
2017/07/09/10:23:09.391653,537406,1499566992,199181290,,0.788631256168,0.17978739299,0.151069858383,0.723456117423,0.688246003696,0.0323113133727,0.0434127122873,-0.0411998615018,-0.24758982058,-0.126136202373,-0.282004467665,0.170541324164,-0.0951086573455,-9.45348930359,-0.0508857741952,0.980827331543,0.131188750267,-3.52503824234,0.0923442691565
2017/07/09/10:23:09.401792,537407,1499566992,209184603,,0.787965835666,0.177147140208,0.14952261787,0.723503090821,0.688268574193,0.0304254595776,0.0436341467267,-0.0206688918836,-0.253804996082,-0.108708608721,-0.327178801493,0.127772517301,-0.038617637386,-9.65262889862,-0.105509117246,0.815476775169,0.117385901511,-3.56591582298,0.11512003839
2017/07/09/10:23:09.411869,537408,1499566992,219194299,,0.788181924549,0.174461669567,0.148748459918,0.723893600776,0.687817544902,0.0290892923872,0.0451541000237,-0.018224615354,-0.261421541969,-0.111810384401,-0.328804333132,0.116519389394,-0.0660186315439,-9.40904331207,-0.262446522713,0.96793615818,0.108323395252,-3.53211975098,0.129231184721
2017/07/09/10:23:09.422030,537409,1499566992,229181599,,0.787888909784,0.171809510471,0.147036650268,0.723894202505,0.687859111377,0.0272071785465,0.045681461356,-0.0320039912895,-0.28549411107,-0.120196384659,-0.348388494477,0.152117417122,-0.105695041759,-9.70563793182,0.122191347182,0.419841080904,-0.0266400240362,-3.6463394165,0.114902801812
2017/07/09/10:23:09.431935,537410,1499566992,239187262,,0.787530824984,0.169596509189,0.146169203001,0.723882957777,0.68789037932,0.025389885518,0.0464289047012,-0.0214845639839,-0.280335817888,-0.128453181799,-0.370878310615,0.13394399352,-0.0601883790035,-9.98392009735,0.313357055187,0.556741416454,-0.0325977094471,-3.73079180717,0.111677661538
2017/07/09/10:23:09.441849,537411,1499566992,249188297,,0.786824699103,0.166965544689,0.144499367018,0.723963313026,0.687863271385,0.0230859643652,0.0467790500141,-0.0149730082046,-0.257707234519,-0.110958183431,-0.370533454693,0.125665376246,-0.0148737891264,-9.54547405243,0.300082594156,0.292298167944,-0.0403444357216,-3.57611727715,0.146019786596
2017/07/09/10:23:09.451966,537412,1499566992,259186867,,0.786994489585,0.164020743077,0.144237903163,0.724183623825,0.687574474054,0.0217431583041,0.048235429719,-0.0207785798639,-0.280747621399,-0.100485082016,-0.418235287908,0.127187663373,-0.0338701878938,-8.70240688324,0.229295641184,0.173892110586,-0.0973669216037,-3.24757194519,0.154900103807
2017/07/09/10:23:09.461701,537413,1499566992,269190716,,0.786721701842,0.161466686849,0.142617273008,0.724180984739,0.68759348532,0.0199575694498,0.0487728993284,-0.0348924742377,-0.291198047918,-0.11785646296,-0.421020151356,0.167739999457,-0.036888385055,-8.62552452087,0.555878281593,0.122494965792,-0.158424451947,-3.31729769707,0.147771179676
2017/07/09/10:23:09.472059,537414,1499566992,279194371,,0.786321567915,0.15874125509,0.141404072711,0.724070805487,0.687708835115,0.0177346668546,0.049633741915,-0.0210892953958,-0.274916410249,-0.132130916717,-0.391809527427,0.156442206393,-0.0262617741459,-7.47549104691,0.287035375834,-0.0674773603678,-0.0544305965304,-2.88550448418,0.167815834284
2017/07/09/10:23:09.481718,537415,1499566992,289217374,,0.786594170618,0.15621836837,0.140208303198,0.724014541594,0.68771615702,0.016472939831,0.0507747298034,-0.0190709926101,-0.269568338703,-0.133220837936,-0.394521119172,0.159395419896,-0.00250009828622,-7.06031703949,0.308759361506,-0.036337248981,-0.116848655045,-2.79277658463,0.131084799767
2017/07/09/10:23:09.491765,537416,1499566992,299189909,,0.786265485135,0.154310512818,0.138708150826,0.723959123983,0.687795496133,0.0146782641257,0.0510400907498,-0.016294663943,-0.267842475644,-0.127317918927,-0.374753058209,0.147053663481,-0.0145028952158,-7.0902466774,0.702464163303,-0.26334553957,-0.235832631588,-2.82506012917,0.132201820612
2017/07/09/10:23:09.501823,537417,1499566992,309185587,,0.786377428284,0.151783635795,0.137503381885,0.724036032335,0.687667507303,0.0132806879914,0.0520465811211,-0.00550987965918,-0.260508661579,-0.115828851591,-0.351077850555,0.115193607778,-0.0374840925399,-7.42943239212,0.689435720444,-0.0798516049981,-0.212283208966,-2.89378857613,0.175849556923
2017/07/09/10:23:09.511663,537418,1499566992,319189030,,0.786130758442,0.149815137054,0.136042583879,0.72399905415,0.687712904431,0.0118522581225,0.0523053978773,-0.00385467560413,-0.26730318336,-0.11836223439,-0.362968883279,0.103592372934,-0.0513065391442,-7.76952981949,0.424854457378,0.322975456715,-0.0886494368315,-3.01147174835,0.230546981096
2017/07/09/10:23:09.521898,537419,1499566992,329207955,,0.786446935014,0.146263949825,0.135724602368,0.724696546097,0.68687288001,0.0102356579986,0.0539980933675,-0.00959905289716,-0.242943540995,-0.129269153551,-0.338736596803,0.133144932209,-0.0350926452735,-6.77052402496,0.155014768243,0.524541378021,-0.108769543469,-2.68073987961,0.224181383848
2017/07/09/10:23:09.531968,537420,1499566992,339185761,,0.786169800588,0.144248157901,0.134029716158,0.724038467973,0.687540120012,0.00846665014857,0.0546369481628,-0.00972847450092,-0.264707509191,-0.127944044499,-0.346591987006,0.138466771956,-0.0358233390908,-5.71538209915,0.494511008263,-0.0992053747177,-0.188435748219,-2.28934693336,0.188341081142
2017/07/09/10:23:09.541902,537421,1499566992,349227114,,0.786284839847,0.142414054239,0.13362568352,0.724478204457,0.687053842913,0.00739945147923,0.0550780929528,-0.00626284809018,-0.248968458002,-0.113916938124,-0.331335264272,0.128759717855,-0.0358861593577,-5.45215892792,0.294796347618,-0.251998186111,-0.20305237174,-2.21947073936,0.190357536077
2017/07/09/10:23:09.551988,537422,1499566992,359185177,,0.785847285245,0.138799698865,0.132184459374,0.724728267435,0.686740942845,0.00533797085447,0.0559224630063,0.0141394700855,-0.2514058953,-0.10143991172,-0.325331570694,0.0770003071451,-0.0632923137254,-5.90926885605,0.160521104932,-0.387403458357,-0.14610157907,-2.34208297729,0.211645931005
2017/07/09/10:23:09.561762,537423,1499566992,369193899,,0.786351135316,0.137336051913,0.130965641486,0.724476477018,0.68693364899,0.00437801969308,0.0568931373435,0.00112485567545,-0.239506416732,-0.111883449268,-0.315542808106,0.101815968582,-0.0502852337054,-5.88390159607,0.601275205612,-0.546641886234,-0.277224838734,-2.35629272461,0.216478660703
2017/07/09/10:23:09.571891,537424,1499566992,379189680,,0.786722978826,0.135771342585,0.129979523126,0.72440978841,0.686959449959,0.003458018072,0.0574909964998,0.00691326303197,-0.227661686816,-0.109427964077,-0.288629525285,0.0894825220737,-0.0628428087287,-5.0840921402,1.17358005047,-0.0803916454315,-0.355689108372,-2.08404803276,0.209317058325
2017/07/09/10:23:09.582009,537425,1499566992,389185757,,0.786136823284,0.133090096048,0.128734676298,0.724680594889,0.686651289616,0.00158463590647,0.0578405635285,0.0213760101877,-0.228621840705,-0.106271656926,-0.27284640782,0.056309982141,-0.0612102658654,-5.41635942459,0.0226302146912,-0.387265920639,-0.0876506268978,-2.17601966858,0.25657248497
2017/07/09/10:23:09.591863,537426,1499566992,399182119,,0.786700658917,0.130841180851,0.128108890832,0.724860733356,0.686356702288,0.000757077304324,0.0590831727079,0.00144815598384,-0.230187602099,-0.106362331405,-0.262824641079,0.097550867766,-0.0642831850786,-5.11915636063,0.490665078163,-0.107727512717,-0.223383069038,-2.10739850998,0.231092900038
2017/07/09/10:23:09.601792,537427,1499566992,409187053,,0.786507111512,0.128439341415,0.126630790701,0.725500677152,0.68568127328,-0.000275888504524,0.0590752300976,0.00674685778309,-0.222053379847,-0.104539199663,-0.231406021287,0.0847820617123,-0.0811073755234,-5.55490207672,0.24494086206,-0.0920172706246,-0.156828731298,-2.28602266312,0.260186970234
2017/07/09/10:23:09.611848,537428,1499566992,419185151,,0.787011633413,0.127059807606,0.126195215876,0.725624958044,0.685509070463,-0.000694859111351,0.0595420166486,0.00581104677152,-0.225365761425,-0.105503952741,-0.206916763382,0.0837552269374,-0.110050887009,-5.07972240448,0.780888259411,-0.299834489822,-0.406464278698,-2.10776519775,0.223800480366
2017/07/09/10:23:09.621980,537429,1499566992,429194808,,0.787863778905,0.125192564877,0.126110935393,0.726271611889,0.684743393003,-0.000628934884881,0.0604618552891,0.00167673872482,-0.186116212035,-0.112860047187,-0.152301565698,0.0976628356978,-0.10084502047,-4.74819660187,0.734446048737,0.194945186377,-0.458423376083,-1.99083650112,0.189513325691
2017/07/09/10:23:09.632094,537430,1499566992,439193989,,0.786718217213,0.122475183027,0.124137054559,0.726805264077,0.684223157397,-0.00280636492674,0.0598740620647,0.0162934190864,-0.209338800039,-0.0962914770111,-0.150260517695,0.0591485783262,-0.149745047721,-4.80999660492,-0.0923254191875,-0.136159613729,-0.274521231651,-1.97581791878,0.231323286891
2017/07/09/10:23:09.641625,537431,1499566992,449184040,,0.787332565377,0.121599981174,0.123135204302,0.726999009012,0.684006769133,-0.00272894110824,0.0599977795959,0.010077790286,-0.22502535189,-0.103419827785,-0.13564204415,0.0677485098747,-0.193647865936,-4.03348064423,0.428542017937,-0.553483963013,-0.265035659075,-1.7693810463,0.228626489639
2017/07/09/10:23:09.651829,537432,1499566992,459186507,,0.787351850004,0.118825901146,0.122113857031,0.727756326931,0.683159432141,-0.00381017418961,0.0604102761244,0.00827579576283,-0.194172633271,-0.11477131115,-0.109947582782,0.0848389950574,-0.157795981726,-3.6828725338,0.485419124365,-0.59123647213,-0.248770475388,-1.66916632652,0.249450743198
2017/07/09/10:23:09.662054,537433,1499566992,469193599,,0.78769992901,0.117269692029,0.121079506719,0.728005335496,0.682876076824,-0.00414177109799,0.0605915911944,0.0169157459467,-0.192990468624,-0.102183864645,-0.10543923618,0.0601000407864,-0.16103158296,-3.38446640968,0.717226624489,-0.543885171413,-0.343420416117,-1.60720717907,0.227651715279
2017/07/09/10:23:09.671915,537434,1499566992,479197927,,0.787681161856,0.116226144619,0.120207656702,0.728486219884,0.682411255058,-0.00433151661232,0.060032860782,0.0321250067198,-0.182965808398,-0.0903164741102,-0.0864172471645,0.0289205672198,-0.153688676446,-2.89034461975,0.778886318207,-0.656415879726,-0.378515839577,-1.41486179829,0.159143850207
2017/07/09/10:23:09.682045,537435,1499566992,489185361,,0.787811818167,0.112698063313,0.119490871234,0.729474138366,0.681278952885,-0.00523039518651,0.0608203319358,0.021287612583,-0.169777170735,-0.0942382166308,-0.0340766178375,0.0407991926499,-0.178255639518,-2.84354305267,-0.236184224486,-0.524859130383,-0.200454816222,-1.35566329956,0.202138572931
2017/07/09/10:23:09.691647,537436,1499566992,499186709,,0.788088574741,0.112016119856,0.118142095863,0.730189570104,0.680559266386,-0.00511055371203,0.0603005712075,0.0187992494183,-0.194733760889,-0.103558734268,-0.0279807825234,0.0455740392139,-0.227478610434,-3.07842206955,0.459359228611,-0.855513095856,-0.335181921721,-1.44904589653,0.181555077434
2017/07/09/10:23:09.701727,537437,1499566992,509186192,,0.788791696377,0.110127644123,0.117732248375,0.731081054138,0.67958242371,-0.00478259627586,0.0605421211925,0.0349075836153,-0.181098344248,-0.0927312759241,-0.0110803100965,0.00204645082447,-0.221679417791,-2.794267416,0.47094643116,-0.387378633022,-0.331124126911,-1.34619987011,0.178768992424
2017/07/09/10:23:09.711773,537438,1499566992,519188890,,0.788850411109,0.109184446836,0.116336396713,0.731639221986,0.679033089768,-0.00495016439486,0.0599467073667,0.0433090245555,-0.170061998991,-0.0866714073093,0.0227489281637,-0.0153166093257,-0.219507842113,-3.35466456413,0.743505656719,-0.654690623283,-0.356156289577,-1.52767264843,0.207359179854
2017/07/09/10:23:09.721676,537439,1499566992,529183116,,0.789399830816,0.106988112933,0.115544788877,0.732815410889,0.677769620766,-0.00457237497572,0.0599083309549,0.0377877586469,-0.1658052058,-0.0842185783752,0.0460288937095,-0.00859138595484,-0.246266914852,-2.51884126663,0.577159523964,-0.870244264603,-0.332538276911,-1.29443466663,0.179270625114
2017/07/09/10:23:09.731886,537440,1499566992,539188858,,0.789695200775,0.106101092537,0.115089252337,0.733493582314,0.677063197935,-0.00441299650889,0.0596080210035,0.0281410568751,-0.166893886391,-0.0875546687889,0.0904912942464,0.00907709270271,-0.310494503472,-2.24533820152,0.823992490768,-0.73839455843,-0.262407660484,-1.24732339382,0.199508726597
2017/07/09/10:23:09.741623,537441,1499566992,549180709,,0.789477575413,0.103851440335,0.113810007543,0.73466162271,0.675857754238,-0.00454514742299,0.0588891992456,0.0266946891722,-0.16811543129,-0.0938691299037,0.089637684277,0.00992013492313,-0.295929947135,-1.56581366062,0.0741788595915,-1.13072454929,-0.159873366356,-0.960971474648,0.175075128675
2017/07/09/10:23:09.751808,537442,1499566992,559191962,,0.79012777789,0.102272684617,0.11296620358,0.735779430589,0.674658283298,-0.00411755629935,0.0587186174036,0.0298686330074,-0.179268384771,-0.0972372450843,0.0837693291371,0.00363350991189,-0.285893576981,-1.05055212975,0.357941925526,-0.992724716663,-0.276048958302,-0.777606546879,0.142471373081
2017/07/09/10:23:09.762079,537443,1499566992,569183763,,0.790678245536,0.100751383752,0.112164189009,0.736523172485,0.67384947688,-0.00397808398003,0.0586913430476,0.0212396940448,-0.186223178615,-0.105291406396,0.0968665384605,0.0223203206306,-0.331931905159,-0.850678443909,0.555983662605,-1.01161396503,-0.311194092035,-0.764463305473,0.124011673033
2017/07/09/10:23:09.772605,537444,1499566992,579189354,,0.790890304611,0.0988760072108,0.111138588689,0.737839441822,0.672446234054,-0.00358873848264,0.0582764219435,0.0353531866265,-0.178158386202,-0.0867089214198,0.099550355214,-0.0155088417849,-0.339031186502,-1.18987393379,0.375051766634,-1.16554498672,-0.381174474955,-0.834757626057,0.10914978385
2017/07/09/10:23:09.781946,537445,1499566992,589209985,,0.790826674208,0.0974294084274,0.109879383185,0.738784698048,0.671474000202,-0.00356381132157,0.0575077058396,0.0330616623917,-0.17976932969,-0.0883210303531,0.0955783027988,-0.0163951517823,-0.31174724069,-1.9715423584,0.595327854156,-1.20664560795,-0.401584118605,-1.11339509487,0.156268537045
2017/07/09/10:23:09.791665,537446,1499566992,599188608,,0.791143191173,0.0948100612079,0.109761572903,0.739911480801,0.67021178039,-0.00337357172366,0.057756289866,0.027909326316,-0.172698780266,-0.100351795862,0.100652153603,-0.00709491732961,-0.29685147753,-1.8233590126,-0.00384472310543,-0.85556769371,-0.303440630436,-0.986810147762,0.12638066709
2017/07/09/10:23:09.802278,537447,1499566992,609186377,,0.792002783292,0.0938435647387,0.108880455553,0.74076681598,0.669282714093,-0.0024374993842,0.0576127725174,0.0460504197165,-0.173480587746,-0.0829610320451,0.0915220714313,-0.0479249885811,-0.29002010826,-1.75314557552,0.17475412786,-0.126736015081,-0.356371462345,-0.985907375813,0.115963548422
2017/07/09/10:23:09.811933,537448,1499566992,619182128,,0.791996591318,0.091852802165,0.107617600904,0.741561286418,0.66842913815,-0.00265570419183,0.0572912994489,0.0382471028826,-0.184499396126,-0.0855463646567,0.0897190599353,-0.0423098208446,-0.292324290176,-2.05320906639,0.524262547493,-0.361337810755,-0.430883020163,-1.13154888153,0.125118017197
2017/07/09/10:23:09.821921,537449,1499566992,629182334,,0.792009937464,0.0909033023234,0.106456396172,0.742643278556,0.667314414116,-0.0023792429795,0.0562740857985,0.0262881666814,-0.197472641382,-0.0918425299386,0.0927108454497,-0.016256274332,-0.351457281858,-1.8616001606,1.14398300648,-0.734321653843,-0.492042720318,-1.01751542091,0.117430374026
2017/07/09/10:23:09.831924,537450,1499566992,639194267,,0.792173100976,0.0880960907471,0.105798865614,0.74397716973,0.665819399337,-0.00232770146042,0.0563655940504,0.0015431986089,-0.197441823591,-0.111526508212,0.0927983040753,0.0345803169726,-0.344008452606,-1.61369335651,0.573801875114,-0.419854104519,-0.504931092262,-0.948408663273,0.0644610375166
2017/07/09/10:23:09.841620,537451,1499566992,649185914,,0.792747777643,0.0864896596005,0.105203025228,0.745173913946,0.664483046404,-0.00171727005273,0.056348646828,0.0159836073163,-0.216748482509,-0.0972307228611,0.0555709780833,0.0062821289177,-0.324536276526,-1.11922776699,0.853618264198,-0.227663084865,-0.591540455818,-0.787404239178,0.0366208739579
2017/07/09/10:23:09.851759,537452,1499566992,659185377,,0.792176652178,0.0842174312279,0.103639906291,0.746347644206,0.663231718738,-0.00219973406031,0.0555341554292,0.0203469586926,-0.204686069359,-0.0886121338053,0.0683480161377,-0.0171042715377,-0.341331570668,-1.81200110912,0.338437199593,-1.0417175293,-0.51991379261,-0.956923305988,0.0442314445972
2017/07/09/10:23:09.861942,537453,1499566992,669186360,,0.792239360267,0.082102208924,0.102723399704,0.747258842824,0.662231678148,-0.0019878000166,0.05522205112,0.0087237586697,-0.198626847937,-0.0995766912925,0.0845577968264,0.0117031988908,-0.328957092526,-1.3691174984,0.403496801853,-0.949922204018,-0.501567602158,-0.816102862358,0.0363087914884
2017/07/09/10:23:09.871792,537454,1499566992,679188114,,0.792855183527,0.0802955384888,0.102430454371,0.748325993243,0.66101430872,-0.00146052387286,0.0553729028879,0.010166806418,-0.178354443386,-0.0969394703958,0.115945276595,0.00385005496035,-0.310495954738,-1.43103790283,0.543981432915,-0.380718529224,-0.558348417282,-0.875138103962,0.0363217294216
2017/07/09/10:23:09.881794,537455,1499566992,689186407,,0.79295139455,0.0781317031153,0.101035916545,0.749314356461,0.65992308454,-0.00138825893926,0.0550235443135,0.0122322769035,-0.217546614184,-0.0882960369696,0.0800946588308,-0.0170482458934,-0.363499338061,-1.37929821014,0.943980634212,-0.817107379436,-0.745616018772,-0.836179435253,-0.0217548478395
2017/07/09/10:23:09.891702,537456,1499566992,699181047,,0.792523442601,0.0766886124946,0.0997062773986,0.750401036396,0.658757562356,-0.00126158982155,0.0541771816001,-0.00791664908004,-0.207202776248,-0.102059879103,0.0786159432685,0.033990396784,-0.327857077497,-1.29683375359,0.807520985603,-0.965911209583,-0.572555303574,-0.806005895138,0.0604682862759
2017/07/09/10:23:09.901927,537457,1499566992,709182001,,0.792024513886,0.0745622793419,0.0990021184136,0.751735652422,0.657294309217,-0.0016360153054,0.0534324190142,-0.00439095276533,-0.179172632826,-0.111487042694,0.110637822356,0.0312927675339,-0.321950326849,-0.944477796555,0.599127650261,-0.840755164623,-0.54769974947,-0.644130587578,0.00655589438975
2017/07/09/10:23:09.911740,537458,1499566992,719188523,,0.792238327891,0.0725649310558,0.0978393825074,0.752678196691,0.656227656916,-0.00123327988006,0.0532848340981,-0.00925726519795,-0.205764613747,-0.107111367783,0.0838030133776,0.0357568287756,-0.326207633506,-1.07178413868,0.128203988075,-0.688829958439,-0.50016528368,-0.763816416264,0.00385130569339
2017/07/09/10:23:09.921798,537459,1499566992,729188170,,0.792206308714,0.0707575791461,0.0970309525625,0.75368631928,0.655098754692,-0.00116925405368,0.0529262371339,0.00671565648964,-0.201318187382,-0.0950262526558,0.0827183874825,0.00407331638219,-0.316800346336,-0.748694658279,0.394553273916,-0.738203823566,-0.415556758642,-0.598153054714,0.0250097326934
2017/07/09/10:23:09.931922,537460,1499566992,739182590,,0.792343670633,0.0686343593356,0.096178225551,0.754672662395,0.653973244287,-0.00121156786439,0.0527892081174,0.00213841856038,-0.206259037778,-0.0985430890551,0.0954655585605,0.00915645431464,-0.337712068779,-0.583081543446,0.229291975498,-1.11013531685,-0.374610513449,-0.563081622124,0.0223095752299
2017/07/09/10:23:09.941783,537461,1499566992,749181484,,0.792089283393,0.0669253047906,0.0951275599629,0.755775229352,0.652744318054,-0.00111208440727,0.0522247184304,-0.00266385757679,-0.199490086827,-0.097999979651,0.0736339040632,0.0153565327032,-0.326013772096,-0.424619704485,0.202451914549,-0.807406783104,-0.31184476614,-0.588777303696,0.0506447926164
2017/07/09/10:23:09.951867,537462,1499566992,759185532,,0.791931693949,0.0652595461179,0.0939756964729,0.756699256373,0.651722447783,-0.00122503822291,0.0516002494291,-0.0168391124672,-0.195848072117,-0.105706004412,0.0784242825066,0.0433096616958,-0.323219474441,0.101647049189,0.0973034650087,-1.16840422153,-0.438424706459,-0.334619671106,-0.0386285558343
2017/07/09/10:23:09.961978,537463,1499566992,769219367,,0.791768112035,0.0627326941764,0.0930760138204,0.757864321027,0.650384473823,-0.000945460538907,0.051388843432,-0.00689270903259,-0.221499771639,-0.100093423453,0.0700695333705,0.00606576343091,-0.357002930906,0.268171489239,-0.0181887503713,-0.922133386135,-0.370834261179,-0.261419564486,-0.0177832730114
2017/07/09/10:23:09.971836,537464,1499566992,779186337,,0.791747847546,0.0612324743237,0.0921624363044,0.758743859648,0.649391638851,-0.000728496968273,0.0509678735048,0.00259797239679,-0.203374553769,-0.0842309583097,0.0890408182786,-0.0163759999784,-0.32453721198,0.202343598008,0.0649761408567,-0.793237328529,-0.294289946556,-0.316690295935,0.00199516955763
2017/07/09/10:23:09.981881,537465,1499566992,789187798,,0.791980068976,0.0587638325966,0.0916808288215,0.75991842751,0.647994427398,-0.000444729899175,0.0512543442842,-0.0102283941371,-0.183106802866,-0.0943068442157,0.0880619958389,0.0136791025425,-0.303039396495,-0.253539890051,-0.208138287067,-0.817973256111,-0.374846875668,-0.504561305046,-0.0116439275444
2017/07/09/10:23:09.991848,537466,1499566992,799185859,,0.791529404772,0.0581238539523,0.0902954167854,0.760420529332,0.647489340275,-0.000679880459259,0.0501767930788,-0.0224209356154,-0.185688977295,-0.103797894257,0.0856163559898,0.0472628179717,-0.315092898609,0.54165661335,0.59392952919,-0.919797599316,-0.509518384933,-0.22391679883,-0.0298633575439
2017/07/09/10:23:10.001955,537467,1499566992,809181061,,0.791641822124,0.0556427945417,0.0900028013079,0.761771659533,0.645889347859,-0.000331020031706,0.050306853215,-0.0324174199183,-0.189654500979,-0.109046723728,0.093949973428,0.0623688698097,-0.30872501376,1.23800361156,-0.171938717365,-0.92110401392,-0.31541711092,0.0437339246273,-0.0483354702592
2017/07/09/10:23:10.012064,537468,1499566992,819187982,,0.790676590593,0.0538491672254,0.0884512897038,0.762769909438,0.644789569566,-0.000956812577998,0.0492702825628,-0.0244923019166,-0.184236525203,-0.106630362277,0.084137300954,0.0475292436751,-0.291650154915,0.700565457344,-0.0667760819197,-0.965042769909,-0.265977621078,-0.150150492787,-0.00835420377553
2017/07/09/10:23:10.021944,537469,1499566992,829181142,,0.790327767962,0.0519686988686,0.0874764784106,0.76390318358,0.643494110608,-0.000886495662653,0.048646375557,-0.0277745397785,-0.174571521835,-0.0933701487941,0.0828663822199,0.0564601385517,-0.301033059122,0.192165657878,-0.790098786354,-1.65239405632,-0.200353085995,-0.325026541948,0.0138295013458
2017/07/09/10:23:10.031789,537470,1499566992,839181755,,0.790467914855,0.0504072410157,0.0868048496494,0.764978559969,0.64224322559,-0.00020382828909,0.0482845775045,-0.0465873493886,-0.188598090563,-0.0989370164282,0.0877593400376,0.080136510273,-0.340517651536,0.564170897007,-0.22028157115,-1.33328056335,-0.303464263678,-0.402547180653,0.014305151999
2017/07/09/10:23:10.041678,537471,1499566992,849204722,,0.790019340329,0.0496778005632,0.0857556794165,0.765354040038,0.641862387448,-0.000492118271407,0.0473880448599,-0.0374845816522,-0.155477277008,-0.0971358765596,0.10671585773,0.0779229879643,-0.290221503046,0.877286434174,0.145716562867,-1.45505094528,-0.482338398695,-0.296992510557,-0.024797482416
2017/07/09/10:23:10.051840,537472,1499566992,859210196,,0.788973081117,0.0473238022468,0.0847066930551,0.766753315176,0.64023850246,-0.000970861012739,0.0467233460233,-0.0537751683897,-0.163539655787,-0.0972820788141,0.0974340886055,0.104325062555,-0.282287830367,0.951504707336,-0.425693869591,-1.56106352806,-0.345496296883,-0.180171087384,-0.0262542366982
2017/07/09/10:23:10.062059,537473,1499566992,869195179,,0.788831653556,0.0464554315716,0.0836223706139,0.767439541462,0.639475257117,-0.000603232698353,0.0459084071274,-0.0344058434844,-0.164048497159,-0.0843725779395,0.112272498019,0.0442268513414,-0.317025155982,1.56107795238,-0.0203799922019,-1.28434693813,-0.417294740677,0.110090278089,-0.0521168969572
2017/07/09/10:23:10.071878,537474,1499566992,879188194,,0.788594689109,0.0447923490003,0.0831128038373,0.768275545987,0.638495744902,-0.000634353477002,0.0455572911278,-0.0391750577818,-0.161796516601,-0.0925029009369,0.0960203382172,0.0588759895139,-0.292642893848,0.623071551323,-0.131577521563,-1.18623697758,-0.365257650614,-0.117737472057,-0.02264399454
2017/07/09/10:23:10.082050,537475,1499566992,889184511,,0.788340244387,0.0438522681652,0.0822532471828,0.768832016092,0.637847943476,-0.000824979228011,0.0452399319567,-0.044373295761,-0.16887916181,-0.0963169827104,0.0913442134182,0.0641547539686,-0.284904977573,0.613558888435,0.762998878956,-0.906565129757,-0.47602891922,-0.164471805096,-0.0177687965333
2017/07/09/10:23:10.091706,537476,1499566992,899185609,,0.788000229095,0.0421816575075,0.0814331332165,0.769713681027,0.636809621131,-0.000658132606929,0.0448767482818,-0.0337159971126,-0.160663206663,-0.0908991727113,0.0701491892088,0.0379256106186,-0.27456782916,0.0763858482242,0.224135175347,-0.961863517761,-0.418714642525,-0.180927857757,-0.0263137482107
2017/07/09/10:23:10.101970,537477,1499566992,909219003,,0.787504014049,0.0399760806172,0.080633221578,0.770743614597,0.635575442717,-0.000907518860514,0.0446913143927,-0.039528706039,-0.132445172482,-0.0897657580869,0.0801469339155,0.0568716483273,-0.236377008061,-0.282662510872,-0.886702418327,-0.423895776272,-0.161721885204,-0.219666704535,0.014924004674
2017/07/09/10:23:10.111789,537478,1499566992,919182145,,0.786703243204,0.0388223333485,0.0795162016505,0.771818826547,0.634343675818,-0.001065874659,0.0436195351845,-0.0554283887728,-0.148852001826,-0.0902244975436,0.0616997420361,0.0929979952562,-0.241750996286,0.124298125505,-0.602370262146,-0.747750639915,-0.221914485097,-0.051615793258,-0.0217316187918
2017/07/09/10:23:10.121722,537479,1499566992,929186220,,0.785918618241,0.0378224281873,0.0785827100458,0.772153880244,0.633988716215,-0.00168965512141,0.0428233347821,-0.0764335150155,-0.146634152563,-0.0959839850453,0.0757055329893,0.141530087132,-0.223514849266,0.0797873660922,0.122308209538,-0.614246547222,-0.368576914072,-0.127889081836,-0.0294984616339
2017/07/09/10:23:10.131866,537480,1499566992,939181600,,0.785020823835,0.0365850221043,0.0775575220554,0.772736522123,0.63333467544,-0.00216222329866,0.0419616617023,-0.0842297262667,-0.146978712968,-0.0894665724334,0.0579896287617,0.160279309044,-0.228358752691,-0.120039880276,0.607281982899,-1.10492193699,-0.501990795135,-0.30327129364,-0.0559498593211
2017/07/09/10:23:10.141778,537481,1499566992,949181478,,0.784444012605,0.0352565532405,0.0766800603706,0.773462384343,0.632485483023,-0.00237871690202,0.0413811004886,-0.0792329382905,-0.117546021899,-0.109776663529,0.0949174673704,0.166020971427,-0.229753627657,0.20459574461,-0.0192319303751,-0.866526663303,-0.413842111826,-0.190145134926,-0.0690033733845
2017/07/09/10:23:10.151898,537482,1499566992,959188281,,0.783887987688,0.0344312250375,0.0754583965337,0.774030464325,0.631834355298,-0.0026275670162,0.0406851773197,-0.0960947641335,-0.137534849075,-0.116575203993,0.064809089337,0.192685082312,-0.226162277328,0.353636473417,0.453293204308,-0.99646794796,-0.521580934525,-0.205311283469,-0.0404579788446
2017/07/09/10:23:10.161818,537483,1499566992,969181095,,0.783518749812,0.0329963290496,0.0750964568264,0.77486841558,0.630820909314,-0.00268300430983,0.0404564011736,-0.0726787230254,-0.135660211451,-0.0929986918986,0.0583119533227,0.132076704064,-0.2147383557,0.495638161898,0.676595687866,-0.201306730509,-0.465778231621,-0.179131448269,-0.0509275048971
2017/07/09/10:23:10.171815,537484,1499566992,979189216,,0.781748753421,0.0313448536132,0.0734878218955,0.775757120334,0.629819996658,-0.00360216247603,0.038918973343,-0.0725462167803,-0.114224492393,-0.0793235064562,0.0718385221149,0.126795909062,-0.182604457245,-0.255528390408,0.115932993591,-0.775521874428,-0.521585702896,-0.342142134905,-0.0610600560904
2017/07/09/10:23:10.182158,537485,1499566992,989185933,,0.78118895458,0.0309786651481,0.0722289882478,0.775876896964,0.629708556232,-0.0042344675703,0.0382654445988,-0.0739597302407,-0.127317735588,-0.0923506354385,0.0607168652589,0.125608113122,-0.225632476961,-0.693860530853,0.8364123106,-1.07320070267,-0.626611828804,-0.5050303936,-0.0419900417328
2017/07/09/10:23:10.191900,537486,1499566992,999184926,,0.780882837869,0.0290531156688,0.0720132253879,0.776457138493,0.628989990392,-0.00433629903884,0.038302748992,-0.0655736656148,-0.119129174874,-0.0931866741263,0.0694591797684,0.109753528896,-0.198474455212,-0.413206219673,0.518910229206,-0.876271724701,-0.458128601313,-0.396348655224,-0.0266088303179
2017/07/09/10:23:10.201982,537487,1499566993,9181584,,0.780561459099,0.0276138233514,0.071177109761,0.77765353461,0.627533105352,-0.00388458557798,0.037974883687,-0.0694650362891,-0.111937929742,-0.106399425015,0.0885151167424,0.117650708881,-0.211462273466,-0.305053859949,-0.0174019187689,-0.737172842026,-0.411116421223,-0.309895157814,-0.0423114150763
2017/07/09/10:23:10.211766,537488,1499566993,19187510,,0.77956799211,0.0270539174439,0.0701361383735,0.778040641867,0.627107817941,-0.00447235917972,0.0369938141328,-0.0647591602901,-0.101309979794,-0.103975869825,0.0779869524262,0.110517969692,-0.181905702967,-0.534767329693,0.108013749123,-0.482090294361,-0.309079527855,-0.314975917339,-0.00832601636648
2017/07/09/10:23:10.221818,537489,1499566993,29180623,,0.77898978019,0.026014621559,0.0694158967718,0.778648321112,0.626388024588,-0.00458091702687,0.0363847479181,-0.0719385772105,-0.118524843754,-0.0940319902318,0.0654580839194,0.112064707391,-0.204180708791,0.17586222291,0.330417722464,-0.182286009192,-0.3614538908,-0.0695211216807,-0.0217594709247
2017/07/09/10:23:10.231957,537490,1499566993,39188876,,0.777490955125,0.0248613059851,0.0682988384697,0.779151315193,0.625810409497,-0.00583656411964,0.0353623234181,-0.0865250135554,-0.10609897676,-0.0862780380175,0.0763154768542,0.154477736827,-0.197769139047,-0.287217289209,0.220585525036,-0.561406910419,-0.350075155497,-0.282644152641,-0.0121292704716
2017/07/09/10:23:10.241627,537491,1499566993,49182757,,0.776449077675,0.0242076747241,0.0671787911464,0.779376334097,0.625576218994,-0.00640521564537,0.0344368594755,-0.0948504673807,-0.118621332629,-0.0914002543864,0.0400281488608,0.17049173595,-0.174829468016,-0.5864148736,0.400902748108,-0.89800131321,-0.441502928734,-0.521716475487,-0.00952629745007
2017/07/09/10:23:10.251879,537492,1499566993,59200496,,0.776689531414,0.0234445504402,0.0667858441188,0.780065489911,0.624713875649,-0.00603641280852,0.0345538238372,-0.10265464386,-0.108236187815,-0.0871414877193,0.0401608084675,0.186425360411,-0.169339690529,0.424010574818,0.223996087909,-1.19383370876,-0.373498409986,-0.236109450459,-0.0383664220572
2017/07/09/10:23:10.261788,537493,1499566993,69188599,,0.77518964056,0.0225592601111,0.0652309810446,0.780378800076,0.624386188834,-0.0068057402683,0.0332339808669,-0.109095158617,-0.0931103448216,-0.111394592309,0.0498749731235,0.205987283365,-0.156143473871,1.59763717651,0.122462585568,-1.18830239773,-0.259983569384,0.124328732491,-0.0692423582077
2017/07/09/10:23:10.271645,537494,1499566993,79182495,,0.774642958712,0.0213435302248,0.06495173649,0.780728879101,0.623951490876,-0.00729232168538,0.0330722907646,-0.0811839069165,-0.0976176491116,-0.09375552232,0.0640906418281,0.123747897065,-0.15589400852,1.75472462177,-0.213647082448,-0.77277392149,-0.24090513587,0.227824881673,-0.0707447901368
2017/07/09/10:23:10.281570,537495,1499566993,89181289,,0.773368203973,0.0207697832411,0.0637238763743,0.78141195727,0.623164110082,-0.00756499066831,0.0316956756929,-0.0679212870418,-0.0839322924199,-0.0817063048698,0.0630085335573,0.10017089292,-0.148467921729,0.978466391563,-0.281899571419,-0.870301663876,-0.238684549928,0.0583679154515,-0.071566991508
2017/07/09/10:23:10.291571,537496,1499566993,99183098,,0.773334216643,0.0203375609328,0.0633128597628,0.781557365197,0.622975194648,-0.00749301575756,0.0318409559134,-0.0696450821351,-0.10687977652,-0.0851269031855,0.0549419571523,0.0898634689134,-0.180705305284,1.82402849197,0.0419724583626,-0.502368807793,-0.228611782193,0.295491635799,-0.0684012696147
2017/07/09/10:23:10.302139,537497,1499566993,109188297,,0.772955071277,0.0196065706248,0.0625087195895,0.782160255233,0.622247654051,-0.0072942850872,0.0313047211761,-0.0630400947525,-0.084807951377,-0.0812697924409,0.0734604309939,0.0852406125541,-0.155906498478,1.56127154827,0.0163067951798,-0.639274537563,-0.161099284887,0.170393884182,-0.0407972373068
2017/07/09/10:23:10.311824,537498,1499566993,119189187,,0.771993652778,0.0188065912034,0.0614467242629,0.782366873661,0.622020202004,-0.00788760342198,0.0305078515994,-0.0843381015593,-0.105054609817,-0.0938825924394,0.0569178179608,0.121143058004,-0.175221617033,1.89238488674,0.110296458006,-0.711157381535,-0.10868986696,0.278973966837,-0.0221303645521
2017/07/09/10:23:10.322078,537499,1499566993,129185549,,0.771040483871,0.0171822060384,0.0603598969095,0.78334978987,0.620798515878,-0.00833969410856,0.0300459464243,-0.0676502515372,-0.0742097685354,-0.086465405039,0.0640676039028,0.109880942214,-0.125544216805,1.78433763981,-0.730665326118,-0.711023628712,-0.0234621949494,0.315106421709,-0.0425455532968
2017/07/09/10:23:10.332002,537500,1499566993,139198846,,0.770610987888,0.0159695591363,0.0600324563809,0.783743524916,0.620307575742,-0.0084037663968,0.0298994203936,-0.0752229539437,-0.0991287471612,-0.0851594987021,0.0360881957536,0.116083793821,-0.138299474348,2.13660645485,-0.378742188215,-1.01342988014,-0.104240037501,0.405330449343,-0.057753264904
2017/07/09/10:23:10.341949,537501,1499566993,149182857,,0.769758737704,0.0150917105891,0.0592656972934,0.78434838177,0.619569614654,-0.00877137278939,0.0292262148018,-0.0613398434017,-0.085699246807,-0.068165793855,0.0406617650865,0.0892344128124,-0.148317518065,1.90042078495,-0.70595407486,-0.639426410198,-0.0165975429118,0.359113842249,-0.053257972002
2017/07/09/10:23:10.351996,537502,1499566993,159181952,,0.768716396788,0.0146094155693,0.0581489058278,0.784491439184,0.619431282421,-0.0091987779948,0.0281682567483,-0.075692130851,-0.107083302255,-0.087173989672,0.0385122033564,0.105536126891,-0.162785978832,1.35066652298,-0.0519719906151,-0.844227552414,-0.133004933596,0.192826509476,-0.0294132381678
2017/07/09/10:23:10.361887,537503,1499566993,169182145,,0.768141930487,0.0137079459139,0.0575278866864,0.784722919832,0.619137454092,-0.00959938832828,0.0280464574274,-0.0597249762324,-0.0764497116116,-0.0753971688272,0.0355125225514,0.0895055447282,-0.117500296326,1.67738080025,0.104539550841,-1.10408520699,-0.177946776152,0.343638181686,-0.044173117727
2017/07/09/10:23:10.371867,537504,1499566993,179181792,,0.76775434012,0.0128435551908,0.0566112449838,0.785420619992,0.618274404619,-0.00965415163342,0.0275319385366,-0.0600036914834,-0.0920271414219,-0.076359478027,0.0400548326033,0.0817662162608,-0.140972808756,1.45315146446,-0.213581264019,-0.849482893944,-0.139211177826,0.232524737716,-0.0864787772298
2017/07/09/10:23:10.381623,537505,1499566993,189181749,,0.767341116107,0.0114916892901,0.0563308824635,0.785723118412,0.617875065793,-0.00976970357215,0.0278233203846,-0.0601838426468,-0.0813860973664,-0.0796588866002,0.0479003755205,0.0894881514951,-0.135644366179,1.53468894958,-0.191911771894,-0.424726545811,-0.0885405018926,0.271939903498,-0.0636046230793
2017/07/09/10:23:10.391666,537506,1499566993,199180333,,0.766520713613,0.0110056874388,0.0554710058374,0.786335345291,0.617137871778,-0.00995992082546,0.0268024614649,-0.0655959834586,-0.0968992093966,-0.0820987669036,0.0329294245147,0.0855631466614,-0.143945642834,1.42793118954,-0.546572089195,-0.224729388952,0.0503178648651,0.321707397699,-0.0463394112885
2017/07/09/10:23:10.401963,537507,1499566993,209185916,,0.766343346416,0.0101393009031,0.0548192104194,0.786626385343,0.61676187475,-0.0100856789579,0.0268700356645,-0.06832552448,-0.0893911474193,-0.0806501077993,0.0588654898896,0.0921498122642,-0.136006295997,1.73024952412,-0.114504739642,0.187739998102,0.00260981917381,0.364905118942,-0.0536638051271
2017/07/09/10:23:10.411705,537508,1499566993,219192749,,0.765432442303,0.00926372304198,0.0540805837181,0.787360961081,0.615866200232,-0.0100604071236,0.0258907046125,-0.0705786457863,-0.0923853000387,-0.082824334498,0.063213002632,0.0870083185189,-0.150088121262,1.37687587738,-0.738950490952,0.157781437039,0.0852997973561,0.327199727297,-0.035410605371
2017/07/09/10:23:10.421905,537509,1499566993,229199222,,0.764352333612,0.0085824887369,0.0530190391613,0.787606489153,0.615574602858,-0.0106498250151,0.0251099141453,-0.0732965523855,-0.0941854849361,-0.0678112623124,0.0742898188157,0.0875804676666,-0.168171696072,1.17622125149,0.23565877974,-0.241393208504,-0.148591279984,0.249731719494,-0.071857765317
2017/07/09/10:23:10.431814,537510,1499566993,239185590,,0.763693723366,0.00787292342129,0.0518525722389,0.78791760021,0.615190023141,-0.0110104002951,0.0246142599281,-0.0656410536248,-0.0891026953735,-0.0745220201419,0.0577506706518,0.0842255938499,-0.158251519065,1.09908497334,-0.201747924089,-0.614303052425,-0.219806239009,0.237581774592,-0.081780180335
2017/07/09/10:23:10.441710,537511,1499566993,249185317,,0.763374073736,0.00702101269731,0.0510612538659,0.788453646599,0.614517367133,-0.0109717693527,0.0242667042176,-0.0747103287984,-0.0967021394795,-0.0882687439849,0.0580671988954,0.107596627755,-0.177530270219,1.59900772572,-0.530909597874,-0.741235375404,-0.0146608371288,0.452480763197,-0.0658324956894
2017/07/09/10:23:10.451849,537512,1499566993,259182736,,0.762357369934,0.00549261063042,0.0507589902904,0.789092697146,0.613706784915,-0.0112228981432,0.0238902494227,-0.0808138800668,-0.10652078041,-0.083684107837,0.0588728307908,0.100310243825,-0.183770784944,1.74219477177,-0.286331176758,-0.260924339294,-0.0543426126242,0.527097642422,-0.0878116935492
2017/07/09/10:23:10.461951,537513,1499566993,269183522,,0.762104295073,0.00558933369464,0.0499917704503,0.789384131323,0.613363940413,-0.0109935976527,0.0231626990337,-0.0527961812635,-0.080860827803,-0.0761665207834,0.0556202404025,0.0599122534316,-0.1416528811,2.65340423584,0.303334742785,-0.454440653324,-0.125118076801,0.851266741753,-0.0936464890838
2017/07/09/10:23:10.472057,537514,1499566993,279188551,,0.761165852061,0.00457214293964,0.0482818645385,0.78967593407,0.612999128259,-0.011563921127,0.0225890157364,-0.072399550758,-0.0743737149681,-0.104425354338,0.0699307674208,0.108599741407,-0.134316655151,2.48269486427,-0.238974452019,-0.689980268478,-0.0210586376488,0.826850354671,-0.114947557449
2017/07/09/10:23:10.481688,537515,1499566993,289183715,,0.760698892862,0.00322892195613,0.047826361573,0.790377918629,0.612106967603,-0.0114482949226,0.0222877207846,-0.0567342912618,-0.0917484910512,-0.0923421128742,0.0581129110531,0.0657267224667,-0.153922041876,2.09119534492,-1.09143280983,-0.315460205078,0.16039916873,0.755374550819,-0.086748726666
2017/07/09/10:23:10.491807,537516,1499566993,299187893,,0.760039000023,0.00305705061372,0.0470593523283,0.790780339075,0.611611417272,-0.0116642688903,0.0214912639661,-0.0862634763613,-0.110944654025,-0.102269240805,0.0698490236296,0.11270025633,-0.179747261208,1.51491427422,-0.329582154751,-0.223386272788,0.080288387835,0.562281966209,-0.0644862577319
2017/07/09/10:23:10.501877,537517,1499566993,309188530,,0.758920695805,0.00102751780371,0.0460628782918,0.791436673054,0.61077197487,-0.0119876258005,0.0210210391356,-0.0953777609164,-0.109204504277,-0.109730928835,0.0813229308349,0.130104106299,-0.181033585679,2.07209730148,-0.934259057045,0.195249959826,0.170327872038,0.815706253052,-0.0975761711597
2017/07/09/10:23:10.511965,537518,1499566993,319182503,,0.757953931367,0.001461508191,0.044282862158,0.791412354722,0.610840842823,-0.0123706756994,0.0196701783247,-0.0940691705156,-0.0841209236038,-0.107408794576,0.0924183472105,0.143947613719,-0.162592292768,2.42484760284,-0.120936192572,-0.537892997265,0.0177230611444,0.916704595089,-0.109284311533
2017/07/09/10:23:10.521737,537519,1499566993,329181767,,0.756792690209,0.000267119045119,0.0434939666759,0.791913977203,0.610195123378,-0.0131291415164,0.0190207718108,-0.0955758519427,-0.0792108855282,-0.119384016419,0.107280747178,0.143389482281,-0.154722617443,2.6301419735,-0.600167393684,-0.343055516481,0.0485373586416,1.09126985073,-0.153602391481
2017/07/09/10:23:10.531930,537520,1499566993,339186265,,0.756395353091,-0.000918236111147,0.0425717601173,0.793033412649,0.608756960339,-0.0127952641788,0.0186882550105,-0.0904566303742,-0.0770064582505,-0.105874459937,0.0824873878521,0.140429650837,-0.131326126439,3.12093114853,-0.770426511765,-0.608662486076,0.128609284759,1.2490645647,-0.168155670166
2017/07/09/10:23:10.541700,537521,1499566993,349185365,,0.755544810669,-0.00191532738401,0.0417000563809,0.79325906861,0.608471119391,-0.013253913111,0.0180909016473,-0.0820763421747,-0.0989873287761,-0.106828912464,0.0555331200004,0.111192016044,-0.189417246205,2.86238479614,-0.843255758286,-0.386662006378,0.0580649226904,1.17013120651,-0.20017491281
2017/07/09/10:23:10.551886,537522,1499566993,359207639,,0.75416786836,-0.00320755381378,0.0403226585578,0.793878966056,0.607675626106,-0.0138618823545,0.0171571824165,-0.100355023959,-0.113380287393,-0.109615347045,0.0725594146401,0.14364478133,-0.192019215569,2.61962151527,-0.942638874054,-0.687625288963,0.12925170362,1.14368116856,-0.181028217077
2017/07/09/10:23:10.561905,537523,1499566993,369183724,,0.753000593615,-0.0049667987767,0.0394161374231,0.794638604968,0.606683236017,-0.0144568456792,0.0166113889647,-0.10220799112,-0.11449489203,-0.110918616763,0.0705519521697,0.146650779592,-0.178838203486,2.57103013992,-0.967224657536,-0.313566505909,0.0953849703074,1.10838270187,-0.193348616362
2017/07/09/10:23:10.571870,537524,1499566993,379183203,,0.752980097127,-0.00517658996256,0.0388191293261,0.795150729043,0.606035713576,-0.0139014005642,0.0162105840564,-0.087684116512,-0.0836260689602,-0.11312512109,0.10962627272,0.116952375438,-0.198085000943,2.54525876045,-0.0896642357111,0.340498358011,-0.123611032963,0.997493088245,-0.148928195238
2017/07/09/10:23:10.581990,537525,1499566993,389181929,,0.751426280095,-0.00578561214043,0.0369792831662,0.795349699267,0.605795310113,-0.014636344503,0.0147199029004,-0.0878121191989,-0.0864137569727,-0.101827043155,0.0931735873524,0.125071982665,-0.184553870082,2.34595680237,-0.0156508684158,-0.163975343108,-0.171237975359,1.01456081867,-0.188812613487
2017/07/09/10:23:10.591887,537526,1499566993,399187852,,0.750742796111,-0.00639751719626,0.0361810569262,0.795853719587,0.605141184569,-0.0147389926569,0.0142746577674,-0.116685518774,-0.0791552006361,-0.127250964432,0.111252755897,0.186510325115,-0.16225259951,2.82562255859,-0.361753821373,0.391633808613,-0.0860801786184,1.13528466225,-0.190062895417
2017/07/09/10:23:10.601801,537527,1499566993,409216582,,0.749653728121,-0.00725798832189,0.0348511028515,0.796235538705,0.604650664858,-0.0151867467239,0.0132628471496,-0.0917710755743,-0.0883166660313,-0.108632951433,0.109217804751,0.115807849778,-0.188905255385,2.70503282547,-0.770772516727,0.0330262035131,0.06179138273,1.14752244949,-0.171557456255
2017/07/09/10:23:10.611840,537528,1499566993,419201559,,0.748824902909,-0.00852872144169,0.0343096717098,0.796927507245,0.603743821581,-0.0153439925368,0.0128260668994,-0.0885399151339,-0.106133481726,-0.107063275299,0.0727351845393,0.10987998705,-0.176501216177,2.74445438385,-0.895984530449,0.431125074625,0.092131331563,1.18654954433,-0.231324821711
2017/07/09/10:23:10.621963,537529,1499566993,429192243,,0.747688448913,-0.00879062880054,0.0325112614291,0.797439622033,0.603090188414,-0.0155288817019,0.0114510996285,-0.104282772078,-0.0991465027657,-0.115014501803,0.086848857008,0.143956285321,-0.172903077417,2.69066667557,-0.689351141453,-0.211529865861,0.137382179499,1.17714190483,-0.153811067343
2017/07/09/10:23:10.631728,537530,1499566993,439189365,,0.747075161839,-0.00916899796408,0.0316412694671,0.797470334387,0.603049311513,-0.015849788932,0.01101716153,-0.0875678154284,-0.080444533719,-0.112395948093,0.0764609070437,0.127630100123,-0.143265939542,3.38026428223,-0.300283133984,-0.0496952682734,0.0277049094439,1.43885087967,-0.194708317518
2017/07/09/10:23:10.642087,537531,1499566993,449186529,,0.746096904527,-0.0110751105516,0.0307331272074,0.798260996819,0.60200414348,-0.0160472238244,0.0106244434381,-0.103751322197,-0.102423172059,-0.114709706039,0.0955174178788,0.132586348508,-0.196705975554,3.52665615082,-0.824861705303,-0.0249828286469,0.133061215281,1.48914730549,-0.220360189676
2017/07/09/10:23:10.651846,537532,1499566993,459181372,,0.745418163511,-0.0117880860521,0.0298569146347,0.799027898439,0.60099658398,-0.0160875233922,0.00993554988984,-0.102977821709,-0.08781897015,-0.128733591765,0.104121533195,0.144468094624,-0.184048786857,3.92731809616,-1.01101732254,0.143983542919,0.242035776377,1.66885757446,-0.184817135334
2017/07/09/10:23:10.661916,537533,1499566993,469195690,,0.743740244292,-0.0129270870203,0.0282454298968,0.799516928938,0.600343904695,-0.0168744131913,0.00866779196334,-0.100420784649,-0.0860569616875,-0.119258460023,0.0992227899516,0.140822950534,-0.18778984424,3.28987455368,-1.18121004105,-0.0260515362024,0.165914773941,1.48437857628,-0.228762477636
2017/07/09/10:23:10.671928,537534,1499566993,479188543,,0.742714860476,-0.0121708657176,0.0265359993474,0.799528147458,0.600339567314,-0.017218444633,0.00711832168075,-0.107018643715,-0.0819171160827,-0.122986599665,0.105462393711,0.157410560383,-0.177955871862,3.96232962608,-0.419258058071,-0.453003227711,0.0780907645822,1.70962655544,-0.207161515951
2017/07/09/10:23:10.681812,537535,1499566993,489182586,,0.741580127133,-0.0144377378936,0.0255954143492,0.800452040405,0.599096212531,-0.017683092105,0.00689691206757,-0.102999796132,-0.0932180450161,-0.121105001075,0.091762823958,0.145709244933,-0.18780693665,3.48173427582,-1.29846835136,-0.00771589390934,0.232673406601,1.54960858822,-0.217080622911
2017/07/09/10:23:10.691911,537536,1499566993,499188469,,0.741115715985,-0.0150474236799,0.0247244006338,0.800938289791,0.598449522307,-0.0177254782611,0.00646781401558,-0.102712369191,-0.0697041850233,-0.11622434931,0.103220067933,0.152724527461,-0.167860219903,3.10443758965,-0.949073314667,-0.0134385097772,0.146759569645,1.33404695988,-0.179593473673
2017/07/09/10:23:10.701722,537537,1499566993,509182861,,0.739787647276,-0.0163929771042,0.023732928548,0.80154969934,0.597632214741,-0.0179995067274,0.00546197305071,-0.102542617629,-0.0967348158315,-0.11090269632,0.0856854533368,0.145727838635,-0.183739880873,3.71319103241,-2.00755357742,-0.286279588938,0.293857812881,1.67121899128,-0.262350797653
2017/07/09/10:23:10.711989,537538,1499566993,519185974,,0.739041116163,-0.0165500184302,0.0223621559981,0.801905948404,0.597167597648,-0.0178527491272,0.00435770381707,-0.108248853348,-0.117968539439,-0.113215105113,0.102949263047,0.121839171349,-0.216151742136,3.8972902298,-1.3528264761,0.0497257746756,0.275551915169,1.70068836212,-0.214317411184
2017/07/09/10:23:10.721826,537539,1499566993,529190098,,0.738020538556,-0.0185209792096,0.0216685168331,0.802413198217,0.59647380375,-0.0182570380994,0.00432912540539,-0.102830250626,-0.103408751158,-0.128946832846,0.11159690446,0.122396139092,-0.174818970823,4.28238582611,-1.71272850037,-0.0479655712843,0.28778231144,1.86275827885,-0.213400214911
2017/07/09/10:23:10.731737,537540,1499566993,539192205,,0.737166830932,-0.0192538760073,0.0205140634001,0.802962392599,0.595727275808,-0.0186344154097,0.00362870405367,-0.0956549362712,-0.0683425179952,-0.123164051313,0.0990330544588,0.133892249412,-0.0993007422572,4.58051156998,-1.31965041161,0.142923384905,0.139240697026,1.98270773888,-0.252747178078
2017/07/09/10:23:10.742075,537541,1499566993,549184987,,0.73629977695,-0.0199520491569,0.0193151361632,0.803225645477,0.595374648022,-0.0187017316767,0.0027993165295,-0.0943230414067,-0.0856420039202,-0.115924537947,0.0907270491147,0.121316083656,-0.151804438139,4.02144193649,-1.33833527565,0.387335538864,0.119031682611,1.75068843365,-0.239344537258
2017/07/09/10:23:10.751830,537542,1499566993,559192855,,0.735369694783,-0.0204097349732,0.0181133502576,0.803578180539,0.594904247782,-0.0186420491837,0.00187556248554,-0.0816176423095,-0.0797319347725,-0.103215527542,0.0961373744944,0.0888630539848,-0.133556718014,4.09575605392,-0.935215890408,0.628353655338,0.125732466578,1.72721111774,-0.227094084024
2017/07/09/10:23:10.761743,537543,1499566993,569182525,,0.734871616476,-0.0205303325429,0.0170255179962,0.804125579973,0.594180106362,-0.01820217573,0.000856524472739,-0.0687818315396,-0.0665844334987,-0.108815920214,0.10008075366,0.0626346594244,-0.119395705685,4.06724405289,-0.935445070267,0.499748110771,0.167094290257,1.63125991821,-0.206846386194
2017/07/09/10:23:10.772011,537544,1499566993,579195076,,0.734184032989,-0.0212662408351,0.0159668847743,0.804060384201,0.594252932644,-0.0187054297339,0.000676388800726,-0.0680944047878,-0.0995040556878,-0.102363808968,0.0779172149131,0.0448028089727,-0.174475337452,4.08915519714,-1.2845056057,0.09733325243,0.429785758257,1.68313026428,-0.179023981094
2017/07/09/10:23:10.782099,537545,1499566993,589196652,,0.73387175994,-0.0231475376338,0.0155043661037,0.804969263848,0.593037561567,-0.0181742377718,0.000794929108462,-0.0777078093934,-0.0794794315302,-0.110506259802,0.0668141770301,0.0848024546082,-0.106311764102,4.56182718277,-2.31571006775,0.345787972212,0.561547517776,1.88702046871,-0.194997280836
2017/07/09/10:23:10.792018,537546,1499566993,599218085,,0.732868466976,-0.0228402879496,0.0142264498206,0.804929830049,0.593080854438,-0.0185173178247,-0.000421588474636,-0.0796478893901,-0.0735480007772,-0.101307143328,0.0899952975562,0.0872686894925,-0.115072736181,4.48278141022,-1.59799611568,0.0886991769075,0.439799308777,1.82464385033,-0.202507972717
2017/07/09/10:23:10.801859,537547,1499566993,609189195,,0.732302654829,-0.0244695469832,0.0130697665824,0.805384950059,0.592458633473,-0.0186478231434,-0.000329444148193,-0.0716259949399,-0.0788501537472,-0.102650773583,0.0841785350212,0.0685206648093,-0.112951300908,4.53216409683,-1.81644916534,0.0876783207059,0.39676874876,1.85621249676,-0.211244761944
2017/07/09/10:23:10.811935,537548,1499566993,619195412,,0.731785202963,-0.0241523370521,0.0118610830608,0.805713162078,0.592025174427,-0.0181856629753,-0.00133227628189,-0.0461587472201,-0.05725257953,-0.0975341771845,0.0999225736321,0.0220488764289,-0.110402786117,5.27143287659,-1.55765938759,-0.166077062488,0.278090715408,2.17805361748,-0.204059794545
2017/07/09/10:23:10.821954,537549,1499566993,629192163,,0.73140845494,-0.0258117473736,0.0111125179383,0.806411661191,0.591079396261,-0.0179971256451,-0.00121798142238,-0.0467886751031,-0.0798425942363,-0.0993589457668,0.0742229883163,0.0052923506568,-0.132460635414,4.9506149292,-1.87536859512,0.110654085875,0.376534640789,2.02736282349,-0.218002229929
2017/07/09/10:23:10.832000,537550,1499566993,639194839,,0.730991063465,-0.0263618843782,0.0104580829155,0.806566090601,0.590870597679,-0.0179248834564,-0.00133298305068,-0.0434426873013,-0.0858491252074,-0.0959504395332,0.0661531279893,-0.00787805001489,-0.144208625167,5.07682561874,-1.73450696468,-0.0793082267046,0.413467079401,2.07558369637,-0.187161415815
2017/07/09/10:23:10.841987,537551,1499566993,649182948,,0.730564465192,-0.0264779925638,0.00891710321248,0.806822399748,0.590525759643,-0.0176869534545,-0.00202833428789,-0.0371638713291,-0.0814734961415,-0.0941813742079,0.0799323253858,-0.0369955217891,-0.170681248725,5.31226873398,-1.78750431538,-0.264041662216,0.477726995945,2.17340683937,-0.1991456002
2017/07/09/10:23:10.851876,537552,1499566993,659187094,,0.729903877743,-0.028206436956,0.00846955904719,0.807566774265,0.589507854237,-0.0176816905903,-0.00193719226784,-0.0478224957816,-0.0841062882925,-0.0995075714026,0.0531025831786,0.00266992431379,-0.158547597875,5.59154987335,-2.34223413467,0.251522481441,0.602170050144,2.28143572807,-0.187457054853
2017/07/09/10:23:10.861992,537553,1499566993,669187683,,0.729960891698,-0.0283275070031,0.00770949352947,0.807991333627,0.588942201233,-0.0171035436435,-0.00213475670289,-0.058066040689,-0.0806508342208,-0.103107884234,0.0703964645905,0.0198056753684,-0.158398585614,6.06696748734,-2.24162149429,0.193867921829,0.60749900341,2.46309614182,-0.20627643168
2017/07/09/10:23:10.871870,537554,1499566993,679194814,,0.728983135261,-0.0288782303789,0.00606396521122,0.808407455696,0.58836862727,-0.0170090046359,-0.00323075534606,-0.0419456615211,-0.0846476086335,-0.0945180019157,0.0801902617375,-0.0193838790146,-0.1633907184,5.91755342484,-2.10177850723,0.016861833632,0.533538818359,2.57825803757,-0.218233808875
2017/07/09/10:23:10.881964,537555,1499566993,689212213,,0.729242596504,-0.030132031933,0.00601202209047,0.808454026513,0.588311548719,-0.0169067622474,-0.00240209279449,-0.0488791566766,-0.0907165112541,-0.0926611182526,0.0728754333676,-0.00988038242503,-0.182117536455,5.27208328247,-1.73893666267,0.616060614586,0.462351202965,2.19772458076,-0.188939481974
2017/07/09/10:23:10.891886,537556,1499566993,699194552,,0.728144302392,-0.0313342197226,0.00519077604412,0.809563182237,0.586787481863,-0.0166536972385,-0.00324953285556,-0.0481842097073,-0.0833142707955,-0.0809832496523,0.0607317382072,0.00540253326086,-0.145186264782,3.72030043602,-1.66871404648,0.509876787663,0.439944028854,1.81600046158,-0.15818798542
2017/07/09/10:23:10.901917,537557,1499566993,709186537,,0.727404318734,-0.0313297131048,0.00375274818694,0.809527509271,0.586831661426,-0.0166458214713,-0.00409017225516,-0.0633406786931,-0.0775928330693,-0.0840850385299,0.0813684266666,0.0426841439143,-0.151793337941,4.38690662384,-1.1110496521,0.459515601397,0.266444712877,2.00222992897,-0.185932725668
2017/07/09/10:23:10.911991,537558,1499566993,719198559,,0.726629929047,-0.03197131002,0.00318937430193,0.809712486376,0.586567010584,-0.0168547990915,-0.00455491483792,-0.0715470530003,-0.0729596953996,-0.08699465989,0.0810519322301,0.0617561758442,-0.147678716335,4.46599054337,-1.30788516998,0.350009322166,0.254552811384,2.03495788574,-0.203389123082
2017/07/09/10:23:10.921895,537559,1499566993,729194179,,0.725557792097,-0.0326204617481,0.002083033774,0.810273691841,0.585779503522,-0.0169250648636,-0.00569734536422,-0.071427461942,-0.0555332807882,-0.0832010452761,0.0892905569348,0.0737679413597,-0.0960895381596,4.29245424271,-1.44345808029,0.121800504625,0.299003005028,1.91287899017,-0.181399226189
2017/07/09/10:23:10.931809,537560,1499566993,739194300,,0.725489759665,-0.033623911254,0.00158147037287,0.810518964185,0.585447378032,-0.01681467361,-0.00525766144456,-0.0760649412844,-0.0555695177846,-0.0887868452424,0.111537967436,0.074527312079,-0.135016864862,4.78712034225,-2.03799796104,0.00582474656403,0.555642366409,1.98273932934,-0.166369616985
2017/07/09/10:23:10.941734,537561,1499566993,749189579,,0.724919761146,-0.0340888102566,0.00101975240326,0.81099122163,0.584794538891,-0.0165463332615,-0.00589954054183,-0.0674631777816,-0.0664540062629,-0.0804807597781,0.0780944966127,0.0611331971912,-0.148622636127,4.83675861359,-2.3125166893,0.163094952703,0.596397638321,2.00071811676,-0.176091820002
2017/07/09/10:23:10.951808,537562,1499566993,759183029,,0.724237943121,-0.0339045467134,-8.76059415465e-05,0.811371343979,0.584257720815,-0.0165031189318,-0.00686330121928,-0.0788172758167,-0.0684543034821,-0.0907298631407,0.085734409125,0.0767222220999,-0.143703285891,4.8404750824,-2.02173113823,-0.341134160757,0.494160234928,2.02870178223,-0.163405463099
2017/07/09/10:23:10.961688,537563,1499566993,769204694,,0.723891944005,-0.0354975634542,-0.000262097483335,0.811920380474,0.583502102985,-0.0163544638154,-0.00656681784609,-0.088736010045,-0.0796917463625,-0.0849538255191,0.0732535458152,0.0893373468649,-0.157012460809,4.83913183212,-1.69833135605,0.296796143055,0.365042239428,1.92418754101,-0.18138165772
2017/07/09/10:23:10.971930,537564,1499566993,779187500,,0.721972696231,-0.0360214975709,-0.00195251181535,0.812383783348,0.582815086051,-0.0171874981186,-0.00798460596051,-0.0759326833691,-0.0711828422718,-0.0806885378933,0.0777857119594,0.0580191909845,-0.158643895825,4.05022001266,-1.35655391216,-0.0401615202427,0.266866505146,1.731569767,-0.152711600065
2017/07/09/10:23:10.981949,537565,1499566993,789183104,,0.722391968846,-0.0358219585254,-0.00208703038297,0.812395776913,0.582825892597,-0.0161593368312,-0.00812135486166,-0.0629676166663,-0.0424958535757,-0.0929258189798,0.104074855024,0.045794696959,-0.0978192308826,5.08162498474,-1.10163903236,0.0831059738994,0.233572468162,2.04894971848,-0.167930215597
2017/07/09/10:23:10.991886,537566,1499566993,799186857,,0.721091168099,-0.0366833135964,-0.0032993475531,0.812601085703,0.582515599681,-0.0166004968017,-0.00891488355245,-0.0592538880748,-0.0320533927572,-0.0873483799017,0.104030111923,0.0459566861609,-0.0411560283494,4.87773180008,-1.88349890709,-0.262888550758,0.439513921738,2.0864739418,-0.141283065081
2017/07/09/10:23:11.001940,537567,1499566993,809189506,,0.720606034657,-0.0368845698801,-0.00415847848372,0.812446630339,0.582723661471,-0.0166263208173,-0.00933663044344,-0.055297455655,-0.0557303886486,-0.071214492706,0.077979832999,0.0279648058627,-0.0449850466937,4.61211109161,-1.59968054295,-0.280391961336,0.42869669199,2.04640483856,-0.177346467972
2017/07/09/10:23:11.011856,537568,1499566993,819189283,,0.720003821712,-0.0377286685433,-0.0046517927088,0.812645033817,0.582447332549,-0.0163393190571,-0.00980716433302,-0.0814118455411,-0.0636322818595,-0.0845154819392,0.0928423635521,0.0636497214347,-0.0378345486279,4.5381231308,-1.8135086298,-0.189224839211,0.491820633411,1.98303997517,-0.142564862967
2017/07/09/10:23:11.021975,537569,1499566993,829189436,,0.718990173493,-0.0374807086713,-0.00593711579749,0.812636164517,0.582431037824,-0.0167358844247,-0.010791685321,-0.0853148695791,-0.053287074828,-0.0812746396279,0.0881247171041,0.0906763260133,-0.0152217770619,4.0012383461,-1.00775718689,-0.535783410072,0.276067018509,1.77974379063,-0.139718368649
2017/07/09/10:23:11.031823,537570,1499566993,839191466,,0.718606582952,-0.0378826667238,-0.00628927315648,0.812345286269,0.582832865857,-0.0166673796766,-0.0110988651775,-0.0833388782278,-0.0238305292877,-0.0826173868122,0.10373726604,0.106348071836,0.00887750607558,4.28137016296,-1.1286329031,-0.587528586388,0.254216700792,1.92566764355,-0.158662900329
2017/07/09/10:23:11.041863,537571,1499566993,849180807,,0.717439978326,-0.038912130089,-0.00739030662655,0.812345403262,0.582808088602,-0.0172219258712,-0.0115361574271,-0.0802276536795,-0.0572662324656,-0.0846623583472,0.0899955183514,0.07757364406,-0.0241816799746,4.59463405609,-1.91081786156,-0.677462458611,0.472265660763,2.04073762894,-0.141173228621
2017/07/09/10:23:11.052025,537572,1499566993,859189103,,0.716785250333,-0.0396530720308,-0.00804768494635,0.812908287227,0.582019089701,-0.0170611531788,-0.0119504323209,-0.0875820892626,-0.0514072849164,-0.0827498092161,0.0803103553226,0.094998821026,-0.0329414758949,3.8606274128,-2.3393163681,-0.264767497778,0.572190284729,1.71145617962,-0.12493558228
2017/07/09/10:23:11.061790,537573,1499566993,869188475,,0.715961168005,-0.0403569756799,-0.008634798071,0.812768431378,0.582204671291,-0.0170514598694,-0.012427606288,-0.0944128160215,-0.0637115872246,-0.087129546919,0.0743322526207,0.102826134163,-0.09476458838,4.33695983887,-2.02449989319,0.36983537674,0.546615183353,1.77191448212,-0.104854390025
2017/07/09/10:23:11.072105,537574,1499566993,879192685,,0.715110346794,-0.0399490260321,-0.00959670536386,0.813377535752,0.581327562156,-0.0170241258697,-0.0136172299131,-0.0759768266792,-0.0390564878022,-0.0845927871906,0.0845923062949,0.0689046373334,-0.0647282506386,4.02100944519,-1.12204360962,0.292757540941,0.319123864174,1.65662682056,-0.108274072409
2017/07/09/10:23:11.081825,537575,1499566993,889182771,,0.71476004589,-0.0407181011835,-0.0102116434525,0.813295150322,0.581450113053,-0.0170090415924,-0.0133212986306,-0.0578540880736,-0.0185099796236,-0.0785094636517,0.0793384666255,0.0468749965526,-0.0452018682071,4.05455541611,-1.50077033043,0.520775914192,0.346756011248,1.72463548183,-0.120848707855
2017/07/09/10:23:11.091833,537576,1499566993,899180333,,0.714092224239,-0.0413919283975,-0.0109752946694,0.813700805169,0.580869813954,-0.0169787125878,-0.0138918041635,-0.0781322799766,-0.0650260667781,-0.083749030057,0.0589485506616,0.053093664343,-0.133327992289,3.18109345436,-1.36780226231,1.06969988346,0.277085661888,1.4030610323,-0.154747143388
2017/07/09/10:23:11.101967,537577,1499566993,909184845,,0.71341161202,-0.0409772774232,-0.0120156521743,0.813787175535,0.58072895828,-0.0169107635612,-0.0147761979347,-0.0663793618505,-0.0300558766205,-0.0822512628934,0.096516443821,0.0568077788279,-0.0845327160233,3.44799160957,-0.8557549119,0.154361099005,0.124160200357,1.52650952339,-0.167951911688
2017/07/09/10:23:11.111826,537578,1499566993,919188258,,0.712705551816,-0.0419782085591,-0.0129602914096,0.814096753538,0.580291354379,-0.0171210108431,-0.0146727945333,-0.0557374444855,-0.0256990258931,-0.0767681390813,0.0778373525542,0.0306269291155,-0.0708953203149,3.24373364449,-1.32862234116,0.168565928936,0.179306641221,1.4692876339,-0.147469982505
2017/07/09/10:23:11.121962,537579,1499566993,929189639,,0.711801412938,-0.041826106872,-0.0134487870193,0.814164379196,0.580177035181,-0.0170268756099,-0.0155260105743,-0.0789125761949,-0.0454042363349,-0.0828601785875,0.0666808274329,0.0558004879899,-0.102339417468,3.1647400856,-1.16502094269,0.456917226315,0.306791067123,1.4079208374,-0.136287167668
2017/07/09/10:23:11.131963,537580,1499566993,939193999,,0.711438309302,-0.041775114722,-0.0142561398943,0.814502034651,0.579694075356,-0.0169062997615,-0.0159809754287,-0.041853762352,-0.0237090479257,-0.0621276621925,0.0791062667766,-0.0136156389691,-0.072812112005,1.30451714993,-0.48802036047,0.797902524471,0.053175136447,0.682173132896,-0.135262042284
2017/07/09/10:23:11.141857,537581,1499566993,949184129,,0.711162545416,-0.0427474380041,-0.014800341779,0.814789442216,0.579303476716,-0.0168120652187,-0.0155884951597,-0.0614797721197,-0.0173976422668,-0.0770029485275,0.0635634414222,0.0481838123934,-0.0605058826552,1.97878980637,-1.50430083275,0.981838464737,0.239593908191,0.922094225883,-0.166902780533
2017/07/09/10:23:11.151685,537582,1499566993,959188805,,0.710365661683,-0.0432332409583,-0.0153945674979,0.815169417146,0.578757038751,-0.0167619749808,-0.0160669736208,-0.0838102854787,-0.0413156813148,-0.0887064024724,0.037797942898,0.0795300504777,-0.0548647362724,2.18199110031,-1.50584948063,1.37139177322,0.275772809982,0.938720405102,-0.136892780662
2017/07/09/10:23:11.161789,537583,1499566993,969182700,,0.709646452536,-0.0429431341265,-0.0164274390854,0.815098051302,0.578833796803,-0.0168198465211,-0.0168432539858,-0.0725791281744,-0.0199099499258,-0.0802466065013,0.0887878893189,0.0485519403909,-0.0959444060135,2.00321793556,-0.42822009325,0.387109577656,-0.0302493944764,0.973028302193,-0.129193738103
2017/07/09/10:23:11.172122,537584,1499566993,979188655,,0.709535655098,-0.04264012101,-0.0169917295561,0.815578747379,0.57816272132,-0.0162576531644,-0.0171715815603,-0.0583462249554,0.0135837056353,-0.0786569174743,0.0976052348947,0.049651328155,-0.0576470278139,2.36904430389,-0.723577618599,0.91173517704,0.0867116600275,0.973461806774,-0.131419807673
2017/07/09/10:23:11.181665,537585,1499566993,989184351,,0.708149273925,-0.0431981373876,-0.018048793966,0.81540600928,0.578369931568,-0.0168448419333,-0.0178189109775,-0.0573211472523,-0.0166310835213,-0.0753970243843,0.0590361009339,0.0315067072262,-0.069986349883,1.4933744669,-1.09210062027,0.752380371094,0.143818080425,0.727784574032,-0.118081778288
2017/07/09/10:23:11.191786,537586,1499566993,999191013,,0.708457318454,-0.0433412348695,-0.0180621740654,0.815413115255,0.578383808112,-0.0166199904265,-0.0172452283818,-0.071878348928,-0.0345551868356,-0.07622838872,0.0500336559364,0.0386576674427,-0.0609488726933,1.96656894684,-0.693081200123,0.616901159286,0.147896409035,0.869917571545,-0.122941501439
2017/07/09/10:23:11.201944,537587,1499566994,9184364,,0.707846617093,-0.0436654222006,-0.018780444993,0.815715296893,0.577952675674,-0.0165564554113,-0.0174683393321,-0.0516847472045,-0.0162960656605,-0.0638059711754,0.0382122296191,0.0199301454378,-0.0302015639363,1.84914600849,-0.6888256073,0.721932113171,0.065028578043,0.903908371925,-0.118814252317
2017/07/09/10:23:11.211757,537588,1499566994,19186697,,0.706602627125,-0.043242608118,-0.0200757771112,0.815976684903,0.577549493736,-0.0162886946058,-0.0187965530821,-0.0678300373243,-0.0254497657107,-0.0741403496063,0.0409031293878,0.0450435740367,-0.0604708218638,1.14941442013,-0.0887309014797,0.629414975643,-0.100506827235,0.698062419891,-0.14116807282
2017/07/09/10:23:11.221648,537589,1499566994,29183118,,0.705979442993,-0.0439938654752,-0.0204248288866,0.816014601636,0.577488356829,-0.0168543658266,-0.0185283025577,-0.0445892169865,-0.00971089390521,-0.0695178443394,0.0534922911008,-0.00711304089993,-0.0248312961585,0.46817034483,-0.446628093719,1.13649892807,-0.0202215462923,0.431577056646,-0.111150085926
2017/07/09/10:23:11.232005,537590,1499566994,39188983,,0.70635732083,-0.0430799388335,-0.0211963432645,0.815613820908,0.578071142385,-0.0160790123315,-0.0186899665163,-0.0448696448372,0.00226795037883,-0.0614890003237,0.0446896792018,0.00415150507399,-0.0107240814367,1.27548933029,0.455580025911,0.681995272636,-0.160477519035,0.642265796661,-0.109984241426
2017/07/09/10:23:11.241826,537591,1499566994,49186244,,0.705137103639,-0.0438281969098,-0.0215654850634,0.816049547054,0.577430418484,-0.0165026808013,-0.0191026199454,-0.0462184483529,0.00567965732396,-0.0644634382484,0.0523244334508,0.00671791152831,-0.014942230377,0.70276838541,-0.433902472258,0.99881374836,0.0379941314459,0.4300763309,-0.110052660108
2017/07/09/10:23:11.252014,537592,1499566994,59205574,,0.705262828063,-0.0442930021466,-0.0223186197916,0.816055202566,0.57744953477,-0.0160691539594,-0.0186473443232,-0.056166242969,-0.00420712000994,-0.0728541241741,0.0543599599842,0.0147030496248,-0.0329154413505,1.06049561501,-0.951531529427,0.30747589469,0.207281947136,0.567010462284,-0.109343841672
2017/07/09/10:23:11.261830,537593,1499566994,69181059,,0.704678790936,-0.0441094358023,-0.0228512308996,0.816019243707,0.577497787873,-0.0157547152371,-0.0189917837433,-0.0484885439438,-0.0280340622106,-0.0691655373707,0.0175210895893,-0.00596671255751,-0.0278282165796,1.59241878986,-0.449183493853,0.387577533722,0.155029326677,0.750038802624,-0.0988254770637
2017/07/09/10:23:11.271998,537594,1499566994,79189876,,0.704743580215,-0.043968842876,-0.023340871242,0.816492118693,0.576847180896,-0.0152700775789,-0.0188354648255,-0.0292579617315,-0.0170737293023,-0.0594472394336,0.0291288041077,-0.0464432302199,-0.0509798312311,1.79749071598,-0.474606454372,0.644328355789,0.115593835711,0.754279434681,-0.107516050339
2017/07/09/10:23:11.282035,537595,1499566994,89181115,,0.70460014172,-0.0445441730372,-0.0237561742374,0.81625469476,0.577198168903,-0.0153399881837,-0.0183093380401,-0.00165729826197,0.00268610935995,-0.0529049736615,0.0200430767089,-0.0868236036104,-0.0157377510218,0.932943999767,-0.592240273952,0.763512909412,0.0944553762674,0.484668165445,-0.10275734216
2017/07/09/10:23:11.291963,537596,1499566994,99183161,,0.704944101021,-0.0436142824167,-0.0243482033759,0.815869428129,0.577759846043,-0.0144446424752,-0.0184929404821,-0.000993753574981,-0.000102089060444,-0.0491807065181,-0.00064032756582,-0.0836354732343,0.0245472600545,0.517609596252,0.382553249598,0.650693655014,-0.220179751515,0.343668729067,-0.115113295615
2017/07/09/10:23:11.301759,537597,1499566994,109180771,,0.704640382122,-0.0439903799086,-0.0246282030143,0.816195765407,0.577305707582,-0.0145569404457,-0.0181848291356,-0.0111262257261,0.0038160190582,-0.0544191111732,0.0241301978145,-0.0700231179794,0.00312652295152,-0.177456647158,0.436609894037,0.921297967434,-0.217518925667,0.0650856569409,-0.105821803212
2017/07/09/10:23:11.311903,537598,1499566994,119189358,,0.704603764541,-0.0442519614335,-0.0252420881614,0.816211660409,0.577300424664,-0.0141464313868,-0.0179617252904,-0.00841146926801,-0.0163807585488,-0.0420150165063,-0.0100099590243,-0.0797800085375,-0.00631546382924,0.133833050728,-0.0955157876015,1.10841596127,-0.140061542392,0.16545419395,-0.119115926325
2017/07/09/10:23:11.321872,537599,1499566994,129208345,,0.70442496252,-0.0450160991582,-0.0257326807305,0.816418870511,0.577031597475,-0.0136408620247,-0.0175695837102,0.00352085697212,-0.0136671200039,-0.0419689269273,-0.00625184455009,-0.111401032593,-0.0136616266555,-0.0500760525465,-0.186463817954,0.928894579411,-0.086344435811,0.0836038738489,-0.097209841013
2017/07/09/10:23:11.332003,537600,1499566994,139189679,,0.704719351582,-0.0443817788212,-0.0262195201736,0.816339155327,0.577160300686,-0.0131515826086,-0.0174185724709,-0.00778387694647,-0.0156522042759,-0.0539277055958,-0.00412395527894,-0.0776062781426,-0.0145475022015,0.245381712914,0.06285174191,0.862156271935,-0.13187687099,0.151409581304,-0.126080542803
2017/07/09/10:23:11.342226,537601,1499566994,149183750,,0.704517502114,-0.0439523938125,-0.026856857243,0.81601188308,0.577622838204,-0.0131521049976,-0.0174208378268,0.00783797620324,0.0185257853969,-0.0411633970521,0.00765193966866,-0.083934042141,0.024449146061,0.268470644951,0.185147106647,0.230055227876,-0.131491586566,0.209658846259,-0.10457200557
2017/07/09/10:23:11.351628,537602,1499566994,159182221,,0.704353253513,-0.0447840769266,-0.0272735048951,0.816427083511,0.577056527883,-0.012835459316,-0.01696560996,0.0183751432909,0.000510567838906,-0.0369265877476,-0.00646584446831,-0.119518635668,0.00792483265936,-0.303057670593,-0.347944498062,0.268632084131,0.0157423466444,0.0569054931402,-0.0898400470614
2017/07/09/10:23:11.361856,537603,1499566994,169187530,,0.704507742686,-0.0443988250762,-0.027342577355,0.816155318955,0.577450488397,-0.0125358672802,-0.0168606293951,-0.00687695057109,0.00770392593679,-0.0536473544874,0.0101341878346,-0.0649728958143,0.0139127436351,-0.235668852925,-0.271157562733,1.02124071121,-0.066165626049,-0.0326746851206,-0.111614398658
2017/07/09/10:23:11.371803,537604,1499566994,179189284,,0.704913075449,-0.0440945701401,-0.027740266481,0.815964858135,0.577745554691,-0.0118772841447,-0.0164424586241,0.00036538248571,-0.00894777686297,-0.0298813108147,-0.0207576704319,-0.076669352421,0.00599792613271,-0.127526015043,0.267768204212,0.608293473721,-0.177526563406,0.0165729597211,-0.0983217135072
2017/07/09/10:23:11.381573,537605,1499566994,189194838,,0.705233354295,-0.0440862991646,-0.0277952745272,0.81574894688,0.578068817204,-0.0116641379205,-0.0159388245416,0.00526123239106,0.0188582897543,-0.0454071519459,0.0108659405916,-0.0801491276674,0.022797404712,0.0113127790391,0.17504119873,0.655203104019,-0.0324382185936,0.0472045652568,-0.0777014195919
2017/07/09/10:23:11.391650,537606,1499566994,199182321,,0.704868635656,-0.0435455403796,-0.0284957081046,0.815764538642,0.578042250424,-0.0116118999457,-0.0161411895053,0.00456193716958,0.00368513193996,-0.0349371830138,-0.00147107235941,-0.079231862106,0.0206519647768,-0.393163263798,0.531006515026,0.415329903364,-0.130444049835,-0.0687547847629,-0.0550193488598
2017/07/09/10:23:11.401909,537607,1499566994,209183262,,0.705220592429,-0.0431731395472,-0.0286528642436,0.816022898012,0.577687037658,-0.0109961544125,-0.0162296343472,0.00206592210542,0.0140746857797,-0.0364801580819,0.00718213602975,-0.0588453529002,0.0280394993531,-0.267071425915,0.810051202774,0.638594865799,-0.329418420792,-0.0600739046931,-0.132820889354
2017/07/09/10:23:11.411701,537608,1499566994,219182509,,0.704387067251,-0.0437990199378,-0.0290100656142,0.816075168029,0.577602824676,-0.0115046826334,-0.0162462097335,-0.0179023399005,0.0168721377414,-0.0427272623283,0.0220606589221,-0.00978194738264,0.0139682391882,-0.288075745106,0.284046620131,0.443881601095,-0.160102754831,-0.0727532282472,-0.100658193231
2017/07/09/10:23:11.421643,537609,1499566994,229184292,,0.705360397607,-0.0433670312129,-0.0288185470576,0.815758798828,0.578084199105,-0.0104902474948,-0.0156906209985,-0.00543668900077,0.00255991671507,-0.0285447069194,-0.0208313562321,-0.0275686526294,0.0257795276986,0.683902025223,0.13254570961,0.680494606495,-0.0660229325294,0.1739769876,-0.0920831337571
2017/07/09/10:23:11.431708,537610,1499566994,239229417,,0.704770127611,-0.0434776605948,-0.0294515904199,0.815725767025,0.578118925182,-0.0109936746217,-0.0157835507893,-0.00675747891196,0.0064295511467,-0.0319255067609,0.00757107472142,-0.0262355927204,0.0192339709357,0.252551287413,-0.026043266058,0.0961369052529,0.0313617736101,0.106461271644,-0.0834459364414
2017/07/09/10:23:11.441926,537611,1499566994,249209756,,0.704439220231,-0.0431150773042,-0.0301640844989,0.815540909164,0.578367987327,-0.0110436911567,-0.0161720004926,0.00769546992214,-9.24148598844e-05,-0.0241342922128,-0.013986727178,-0.0542230831474,0.037649110705,0.341642558575,0.22692848742,0.059818085283,-0.0813481062651,0.155052065849,-0.0866828858852
2017/07/09/10:23:11.451978,537612,1499566994,259190100,,0.704600856858,-0.0432142114896,-0.0301659798398,0.815429663156,0.578538479557,-0.0109339131329,-0.0157525128156,-0.00878386804548,0.0266897531522,-0.0338540129241,0.00696949998199,-0.00456514719514,0.0418144820704,0.337002903223,-0.0219021141529,0.446870625019,0.0101456642151,0.143567159772,-0.108118131757
2017/07/09/10:23:11.462094,537613,1499566994,269188419,,0.704254027048,-0.0429103610997,-0.0306334827414,0.815466611712,0.578474489494,-0.0110556788102,-0.0161009985145,0.00803692246393,0.0125720272715,-0.0261903298441,-0.00460896130495,-0.0381682787985,0.0172357541833,0.325978845358,-0.0573346465826,0.471525162458,0.0227477401495,0.192438736558,-0.0940949097276
2017/07/09/10:23:11.471819,537614,1499566994,279188828,,0.704503381582,-0.0429015080786,-0.0307620635632,0.81543928958,0.578526054562,-0.0107792543294,-0.015816980695,-0.00670255638472,0.000531926890347,-0.0271126722983,-0.00649993001243,-0.00865161967256,-0.00317039243928,0.341671049595,-0.00415724515915,0.380324929953,-0.0123665928841,0.234619826078,-0.111763581634
2017/07/09/10:23:11.481938,537615,1499566994,289188272,,0.704471481743,-0.0427357256326,-0.0308067254515,0.815542911752,0.578376659774,-0.0105330408122,-0.0161013530943,-0.0140200439752,0.0192294009704,-0.0297585530002,0.029878412281,0.00657133584159,0.000262778384132,0.906501293182,-0.287910848856,0.436650872231,0.0918959379196,0.376834094524,-0.11577218771
