time,.header.seq,.header.stamp.secs,.header.stamp.nsecs,.header.frame_id,.pose.position.x,.pose.position.y,.pose.position.z,.pose.orientation.x,.pose.orientation.y,.pose.orientation.z,.pose.orientation.w,.twist.linear.x,.twist.linear.y,.twist.linear.z,.twist.angular.x,.twist.angular.y,.twist.angular.z,.wrench.force.x,.wrench.force.y,.wrench.force.z,.wrench.torque.x,.wrench.torque.y,.wrench.torque.z
2017/07/09/10:18:33.903056,509857,1499566716,709703598,,0.780152652094,0.398842351345,0.166162133779,0.622170139293,0.780384223242,0.054552141164,0.0304769713473,-0.00613180432929,-0.0165506625681,-0.0194204218847,-0.0269144455748,0.0280872940141,-0.0151104337489,6.01249074936,1.23106372356,-0.102505415678,-0.666161060333,2.2987780571,0.0194730609655
2017/07/09/10:18:33.912981,509858,1499566716,719704749,,0.779833617975,0.399434244289,0.166071887218,0.621992889143,0.780550211535,0.0544692087666,0.0299886382455,-0.0177721510452,-0.0124698909634,-0.0211276406921,-0.0158830483345,0.0546186909844,0.00593506254728,5.60572719574,1.20506489277,-0.108129702508,-0.656147003174,2.0883731842,0.00126465875655
2017/07/09/10:18:33.923015,509859,1499566716,729731270,,0.779611392491,0.399040101969,0.165540160224,0.622056338138,0.780528784597,0.0541130279552,0.0298748858499,-0.00439043182714,-0.0142706033654,-0.0123841682074,-0.0252690602448,0.0241755016056,0.00287580476814,5.23720884323,1.2244579792,0.0383899472654,-0.687356412411,1.97959256172,-0.0134017234668
2017/07/09/10:18:33.933076,509860,1499566716,739719961,,0.779869076954,0.39864489496,0.165989666256,0.622258078205,0.780345220525,0.0541485599866,0.0303999072946,-0.00177683955364,-0.0251885846404,-0.0198267642332,-0.00294017384623,0.0309477798074,-0.0477273830387,5.1015086174,1.30335903168,0.182650208473,-0.690607368946,1.94225740433,0.0181977823377
2017/07/09/10:18:33.943041,509861,1499566716,749703564,,0.779339346099,0.39914451861,0.16517988021,0.621878200817,0.780696473347,0.0538446146908,0.0296863153748,0.00217116371786,-0.00947007428328,-0.00696349858962,0.00325900871924,-0.000397524178764,-0.0338796255707,5.27680969238,1.41698622704,0.400628834963,-0.736637413502,2.04668879509,-0.00733599252999
2017/07/09/10:18:33.953042,509862,1499566716,759711154,,0.780025611454,0.398715126847,0.165672063157,0.622146314831,0.780431897688,0.0542297104243,0.0303175612492,0.0039895831587,-0.0087017245489,-0.00816113845154,-0.00362241376697,-9.72491413593e-05,-0.0192450473711,5.46745872498,1.61573815346,0.310436099768,-0.71776086092,2.12143492699,0.0447365269065
2017/07/09/10:18:33.962849,509863,1499566716,769704097,,0.779483753336,0.398206008129,0.164994164161,0.622412446373,0.780292868614,0.053438801545,0.029834213257,0.00470020460604,-0.0307755961032,-0.00800532758047,-0.0478987598303,-0.00173818096826,-0.0103426278114,5.92987060547,1.73138475418,0.0181410256773,-0.711648404598,2.30812954903,0.0304917600006
2017/07/09/10:18:33.973002,509864,1499566716,779709796,,0.779892426381,0.39783480885,0.165500362919,0.622187721676,0.780430716547,0.0537033750948,0.0304349004938,0.00427146475352,-0.0304395013366,-0.0183984029228,-0.0282911834483,0.0137578119403,-0.00690569171304,6.27608680725,1.87731027603,-0.150581091642,-0.778489351273,2.43500089645,0.0404352918267
2017/07/09/10:18:33.983328,509865,1499566716,789730855,,0.780192389204,0.398056849035,0.165336410975,0.622593428602,0.780088957304,0.0540517451366,0.0302828367537,0.0148857461387,-0.0749448558997,-0.0162522376254,-0.0436685736089,0.0110888656876,-0.0789608157771,6.4050693512,1.99208581448,-0.355191528797,-0.784343957901,2.48618769646,0.0499779991806
2017/07/09/10:18:33.993228,509866,1499566716,799710423,,0.780000497452,0.397431282524,0.164728782025,0.622897201504,0.779882650601,0.0535218404052,0.0302909268578,0.00501572264313,-0.0274413981772,-0.0170978340602,-0.0145210254433,0.0125577505981,-0.027088515288,4.59857130051,1.85843634605,-0.126344174147,-0.712928175926,1.82924258709,0.0171144045889
2017/07/09/10:18:34.002936,509867,1499566716,809703574,,0.780432171613,0.396237784273,0.164845191199,0.623292399479,0.779556504694,0.0534560947514,0.0306706158243,0.0160521183606,-0.0160821502906,-0.00482873365489,0.0135681947453,-0.0290176880522,-0.0335812581335,3.09697508812,1.56547009945,0.218597397208,-0.669841945171,1.30383598804,-0.0203390922397
2017/07/09/10:18:34.013191,509868,1499566716,819702162,,0.780889143993,0.396160649909,0.165259558803,0.623399868287,0.779427663739,0.0537816555667,0.0311874132198,0.00372419668161,-0.0345214203612,-0.0120847249362,-0.00494422088994,-0.00275436852971,-0.0502322705488,2.91448903084,1.27730715275,0.321336716413,-0.439877092838,1.3307697773,0.0535286590457
2017/07/09/10:18:34.023055,509869,1499566716,829705621,,0.780351585229,0.39599592069,0.164467387647,0.623423763671,0.77946474626,0.053349754392,0.0305176003852,0.0142159822468,-0.0350127266029,9.25460073474e-06,-0.00919931206233,-0.0297979500112,-0.0553502187332,3.57756733894,1.28349530697,0.37072339654,-0.437803417444,1.60796666145,0.0956951826811
2017/07/09/10:18:34.033181,509870,1499566716,839724699,,0.781172977028,0.395681128467,0.165390078383,0.623502045189,0.779316219565,0.0540451182455,0.0314730799434,0.00810763083693,-0.0469531631365,-0.00212220940449,-0.0180175156748,-0.00618006154968,-0.0557853194531,4.79322052002,1.56412184238,0.238109052181,-0.526214838028,2.07839775085,0.102701164782
2017/07/09/10:18:34.042991,509871,1499566716,849703259,,0.780316150399,0.394510413145,0.164771681933,0.624139773622,0.778908672123,0.0530759062058,0.0305576775149,-0.00292477376294,-0.062851394869,-0.00733438040474,-0.0156885776863,0.0238442039282,-0.0729086910981,4.38185930252,1.23904061317,0.160044252872,-0.333967506886,1.85187828541,0.142023354769
2017/07/09/10:18:34.053118,509872,1499566716,859708119,,0.78072260263,0.393958582211,0.164732206677,0.624320203837,0.778741775906,0.0531088362587,0.0310641441533,-0.0145408591657,-0.0402033586775,-0.00875769003305,-0.00950006259377,0.0594795715032,-0.038993339923,4.31883955002,1.28598189354,0.0233539212495,-0.353381633759,1.76629197598,0.109131768346
2017/07/09/10:18:34.063122,509873,1499566716,869704449,,0.780524035832,0.393352699992,0.164265304215,0.624676561312,0.778494812767,0.0528038687992,0.030606726091,0.00558800280117,-0.0604651875685,0.00208270925523,-0.00227478374006,0.0160016938674,-0.0907749657805,3.74305915833,1.10921180248,0.159309402108,-0.319420456886,1.51818931103,0.117658525705
2017/07/09/10:18:34.073187,509874,1499566716,879711277,,0.780629130699,0.393188062406,0.164549868815,0.625039548786,0.77818525899,0.0531028789075,0.0305507675332,-0.00311131644725,-0.0545779259324,-0.0152645432917,0.00972676076797,0.0413245201501,-0.0772985349585,3.93187761307,1.24758160114,-0.0202687177807,-0.333076059818,1.5739068985,0.140857487917
2017/07/09/10:18:34.082843,509875,1499566716,889703919,,0.780742647698,0.392541397224,0.165245288965,0.624927506494,0.778265807147,0.0529034889592,0.0311314295948,0.000173527524837,-0.0562624456467,-0.0142027774031,0.00560665824366,0.0324013724535,-0.100041749144,4.40158939362,1.40358364582,0.0945412889123,-0.41178265214,1.76305317879,0.120390690863
2017/07/09/10:18:34.093158,509876,1499566716,899710253,,0.781072629633,0.391831876735,0.164706631984,0.625956507757,0.777432960597,0.0532302992643,0.0307079372983,0.0223597824559,-0.0787307418271,0.004180480718,-0.0180381856206,-0.0200916580097,-0.100010491162,4.1406583786,1.26721894741,0.283894628286,-0.364562273026,1.70339250565,0.154354304075
2017/07/09/10:18:34.102791,509877,1499566716,909706174,,0.781078877106,0.39094462881,0.164256007148,0.626522759454,0.776996101131,0.0530339893729,0.0305562871374,0.0244826573751,-0.0722823850667,0.00497430125514,-0.00450210366822,-0.0251959423022,-0.103119889221,4.20360898972,1.31320536137,0.269212245941,-0.428396016359,1.71777701378,0.109269142151
2017/07/09/10:18:34.112936,509878,1499566716,919710965,,0.781059880857,0.39061253091,0.163976015737,0.626390128918,0.777125417124,0.0527699839629,0.0304437390431,0.0170592279268,-0.0596955390714,0.00552426197715,0.0151634481685,-0.0194719505158,-0.0963252028015,3.6241209507,1.18285667896,0.248633831739,-0.3461137712,1.47662842274,0.157216668129
2017/07/09/10:18:34.123137,509879,1499566716,929701904,,0.781581029782,0.389773323078,0.164658048177,0.626866316087,0.776695581698,0.0532106191985,0.030841937856,0.0176613077384,-0.0779270018583,0.00547836849466,0.00127928513567,-0.0140273691763,-0.107205440607,3.70248770714,1.2188898325,0.210962146521,-0.329657256603,1.51608133316,0.146133571863
2017/07/09/10:18:34.133125,509880,1499566716,939715330,,0.781377678524,0.389369727564,0.164672100947,0.627085823288,0.776522505756,0.0531463001889,0.0308486476434,0.0113599991492,-0.0816890698395,-0.00330089442171,-0.0075050935274,0.00606100137971,-0.104449241447,4.18799591064,1.2368311882,0.0468775555491,-0.385440856218,1.68422877789,0.131534665823
2017/07/09/10:18:34.142958,509881,1499566716,949703797,,0.781290529291,0.388441282852,0.164673756356,0.627333530961,0.776350639213,0.0527023547563,0.0308996396191,0.0262806299551,-0.0838110617822,0.0101332096738,-0.0144198465631,-0.0330330501434,-0.101434854235,4.18057155609,1.2549790144,-0.0249090380967,-0.402010142803,1.68229138851,0.109308898449
2017/07/09/10:18:34.152850,509882,1499566716,959702888,,0.781674564666,0.386716233289,0.164512433992,0.628544954851,0.77537515628,0.052634192358,0.0308909137249,0.00562788051122,-0.0880579828635,0.00068028137752,-0.0139197233945,0.0192530048041,-0.116455240858,4.10305643082,1.05726909637,-0.0425617545843,-0.309300094843,1.67788255215,0.131414175034
2017/07/09/10:18:34.163117,509883,1499566716,969704607,,0.782024038636,0.386731347352,0.164759561707,0.628469546959,0.775399361568,0.0531108283929,0.0310015891989,0.0277316190822,-0.10111045312,0.0103666607784,0.0113017903481,-0.0228614949328,-0.1565680085,3.9291665554,1.10958099365,-0.00503732636571,-0.320550620556,1.63602089882,0.152671054006
2017/07/09/10:18:34.173128,509884,1499566716,979712099,,0.782397104826,0.38594456968,0.165024834633,0.628897441403,0.775023169804,0.0533627998961,0.0312970613672,0.0329890579847,-0.0925398728352,0.0216371807986,0.0104285280641,-0.04695271326,-0.118453835659,4.16838788986,1.17515349388,-0.149720996618,-0.337707072496,1.70356285572,0.135664284229
2017/07/09/10:18:34.183388,509885,1499566716,989723053,,0.782948299229,0.384335691275,0.165290043921,0.629381122424,0.774602587425,0.0533938481196,0.0319269678279,0.0174630966054,-0.109546718297,0.00356010017544,-0.0119894893448,-0.00068524689478,-0.144463643042,4.379383564,1.12360906601,-0.307891100645,-0.29042711854,1.78467774391,0.171381056309
2017/07/09/10:18:34.193123,509886,1499566716,999707228,,0.782427320401,0.382539840876,0.164996012323,0.630608563818,0.773684653351,0.0526053392711,0.0312661908362,0.0252088557259,-0.13396586305,0.00402764431098,-0.0261564802118,-0.00923934608844,-0.166940068589,4.14482307434,1.09410822392,-0.410143882036,-0.304636120796,1.67841017246,0.144667983055
2017/07/09/10:18:34.203437,509887,1499566717,9708491,,0.782548766198,0.381747142012,0.164566403746,0.630949068882,0.773415755973,0.0526096351081,0.0310413785657,0.0262109587256,-0.114523490098,0.0156782836903,0.0115794521122,-0.0200703919778,-0.188176214403,4.32389307022,1.0992923975,-0.394073456526,-0.277291417122,1.74571454525,0.171344965696
2017/07/09/10:18:34.213071,509888,1499566717,19710583,,0.782889664623,0.379928221467,0.165002894765,0.632044643504,0.772512313002,0.0524586225146,0.0315021872547,0.0233612443748,-0.118280033561,0.0025398890035,0.0171367756737,-0.00358261189298,-0.182369998688,4.27214479446,1.07932889462,-0.537400722504,-0.275001674891,1.72016537189,0.18439656496
2017/07/09/10:18:34.222845,509889,1499566717,29703306,,0.783407418187,0.379886705695,0.165047176511,0.632548516457,0.772043289017,0.0534427539451,0.0312314947325,0.0293069528992,-0.132573215387,0.0112392490563,0.0170588964813,-0.0258927628616,-0.190678834162,4.28399658203,1.09621953964,-0.561761260033,-0.282151520252,1.72362697124,0.157488614321
2017/07/09/10:18:34.233086,509890,1499566717,39708604,,0.784046732941,0.376888602916,0.165317699562,0.633719201401,0.771081172623,0.053010932861,0.0319943745027,0.0135587953893,-0.13149333872,0.000495381665465,0.0139611419012,0.0136305552701,-0.183459113689,4.36176586151,1.13819801807,-0.550330340862,-0.322532981634,1.75866532326,0.162918567657
2017/07/09/10:18:34.243202,509891,1499566717,49709792,,0.783997430208,0.375922168874,0.165070602941,0.633946883548,0.770905643902,0.0528353961003,0.032004030347,0.0302577729467,-0.161315127439,0.00733022880647,-0.0215654721552,-0.0140541769929,-0.205977279781,4.04219102859,0.867401123047,-0.549200594425,-0.185858413577,1.61372995377,0.172470763326
2017/07/09/10:18:34.253310,509892,1499566717,59708429,,0.784259255199,0.374051596761,0.165438198587,0.635199068723,0.769874818926,0.0528442017366,0.0319749373802,0.029367521688,-0.169472428895,-0.00122339688841,-0.0120988160985,-0.00471720645278,-0.241639495389,4.52117204666,1.16444289684,-0.632811188698,-0.3736743927,1.79815530777,0.125580355525
2017/07/09/10:18:34.263013,509893,1499566717,69704894,,0.784398368086,0.37279758001,0.1652344926,0.635635666738,0.769525433507,0.0526916163894,0.0319609123474,0.0216511861797,-0.183182742915,0.000289461375066,-0.00396086175223,0.0134281039878,-0.266089177715,4.34196043015,1.00592243671,-0.664397478104,-0.311456084251,1.69637775421,0.133571997285
2017/07/09/10:18:34.273078,509894,1499566717,79704063,,0.784751145615,0.371340869815,0.165220771243,0.636825229555,0.768528444067,0.0528419497037,0.0320216491427,0.0327549573045,-0.179711839821,-0.00106886459763,-0.00382873788767,-0.00486229775864,-0.255009824481,4.63012361526,1.05482590199,-0.705640673637,-0.320927202702,1.82630050182,0.141807168722
2017/07/09/10:18:34.283345,509895,1499566717,89702496,,0.784893369492,0.369807222131,0.165020902925,0.637941410628,0.767611449405,0.0528963398769,0.0317079891333,0.0191342025784,-0.167947517608,-0.0051426023958,-0.00460951949214,0.0151992258124,-0.223891425514,4.53555870056,0.773564875126,-0.395761996508,-0.185184150934,1.82117164135,0.192919135094
2017/07/09/10:18:34.293128,509896,1499566717,99708824,,0.785239701378,0.367973624766,0.16555366876,0.638734647849,0.766946970735,0.0526309056581,0.0322549451508,0.0249796691517,-0.177507666785,-0.00269048229224,-0.0143486430199,0.00580885984884,-0.24011588171,4.76165342331,0.942769885063,-0.630815148354,-0.281652390957,1.87183117867,0.121396750212
2017/07/09/10:18:34.302858,509897,1499566717,109703808,,0.785131191586,0.366194759331,0.164820442653,0.639424174046,0.76641172066,0.0522220511878,0.031979015784,0.0232986044395,-0.190799101624,-0.0066302140651,-0.00118380130515,0.0155579520545,-0.270286535534,4.76198005676,1.05940580368,-0.527698993683,-0.394457310438,1.85161685944,0.0974317938089
2017/07/09/10:18:34.312981,509898,1499566717,119703354,,0.785332994782,0.364545741051,0.164889532461,0.640752580456,0.765305238687,0.0524034589816,0.0315895514936,0.022988329103,-0.19469473502,-0.0103769529953,0.00794142822032,0.0175456521492,-0.278536793075,4.58052873611,0.947628498077,-0.509948074818,-0.310047656298,1.78044295311,0.119159951806
2017/07/09/10:18:34.323107,509899,1499566717,129702071,,0.78572814389,0.361934588044,0.164797277708,0.641642415879,0.764557590333,0.0521389132743,0.0320661025459,0.0136332015014,-0.196120594445,-0.0135792761122,-0.0261975013396,0.0325095766354,-0.247360515827,4.79801797867,0.790887176991,-0.478301852942,-0.248729586601,1.84509778023,0.119780160487
2017/07/09/10:18:34.333076,509900,1499566717,139710897,,0.785951267659,0.360437736049,0.164762594081,0.642300974179,0.764008518721,0.0519174657696,0.0323267480369,0.019629484906,-0.208906448715,-0.0066606943563,-0.0162273774811,0.0255549655443,-0.275264792958,4.75421333313,0.912071108818,-0.364298522472,-0.25755661726,1.83116877079,0.144898846745
2017/07/09/10:18:34.342988,509901,1499566717,149704800,,0.786087834821,0.357887776955,0.164940686235,0.643592937669,0.762940182802,0.0515699677625,0.0324183045948,0.015045348647,-0.203931368261,0.00128645450964,0.00503869108953,0.0266581848598,-0.286620983684,4.63538789749,0.829411149025,-0.299465060234,-0.164589345455,1.77818655968,0.179902762175
2017/07/09/10:18:34.353144,509902,1499566717,159709377,,0.786297812868,0.35539746373,0.16449541552,0.644867828398,0.761888363872,0.0511953121933,0.0324136530292,0.0121715703653,-0.21222445062,-0.0221496757307,-0.0259742730355,0.0433055709823,-0.292843472775,5.03522062302,0.998050093651,-0.235169604421,-0.258351027966,1.88818848133,0.181270644069
2017/07/09/10:18:34.363297,509903,1499566717,169729006,,0.786869962989,0.353190592176,0.165110728306,0.64662526673,0.760354565248,0.051832593863,0.032404964833,0.0175476257129,-0.240682061588,-0.00557856778127,-0.0375849948989,0.018911381764,-0.306834703841,4.74053812027,0.818319201469,-0.318044602871,-0.167902946472,1.75923120975,0.164676696062
2017/07/09/10:18:34.373332,509904,1499566717,179714813,,0.786845797085,0.351535867132,0.164716585121,0.647398725645,0.759726376375,0.051347381701,0.0324679760208,0.0217410049501,-0.225829582857,-0.00794595573459,1.12079941741e-05,0.0224392724944,-0.319115049261,4.34940576553,0.752396285534,-0.377279251814,-0.0237936675549,1.60544228554,0.255567073822
2017/07/09/10:18:34.382928,509905,1499566717,189701593,,0.786820163634,0.349025967378,0.164516371915,0.648375063445,0.758926509417,0.0508914777814,0.0324096883187,0.0236522945874,-0.243126243555,-0.0106855905614,-0.0197657407986,0.0176339327105,-0.32070349046,4.04800319672,0.56799197197,-0.554258823395,0.0532869584858,1.45809292793,0.236196264625
2017/07/09/10:18:34.393007,509906,1499566717,199706740,,0.786655292062,0.347068327788,0.164160029811,0.649378129642,0.758090323518,0.0507480816673,0.032120683976,0.0169252620515,-0.244340350634,-0.0106749092238,-0.0348880013854,0.0174756453036,-0.311286752715,3.8319709301,0.550950050354,-0.408960103989,0.0953844115138,1.43890929222,0.249148786068
2017/07/09/10:18:34.403017,509907,1499566717,209706414,,0.78693714903,0.343694902465,0.163715504551,0.65071114021,0.75696704455,0.0502870597238,0.0323591887381,0.00722927276446,-0.269544296218,-0.017625468124,-0.0409966632284,0.0413957796638,-0.348623464092,4.09877967834,0.442391604185,-0.31687438488,0.124953597784,1.54164266586,0.265245348215
2017/07/09/10:18:34.412996,509908,1499566717,219710327,,0.786873971962,0.341699408434,0.163587584553,0.651649704289,0.756186599228,0.0498352039714,0.0324182432258,0.00346128683626,-0.268208944571,-0.0228734740299,-0.0544236961328,0.0460044905142,-0.32869905549,4.12522935867,0.510964870453,-0.432876110077,0.0868743807077,1.53922212124,0.22613093257
2017/07/09/10:18:34.423371,509909,1499566717,229717772,,0.78717193607,0.338675523492,0.163561826425,0.653449797656,0.754633178411,0.049888002743,0.0323003895711,0.0106899482193,-0.241062864441,-0.00192025187457,-0.0045537475966,0.0127538103991,-0.314247119696,3.51885318756,0.411388397217,-0.412875890732,0.135938048363,1.30699872971,0.244453698397
2017/07/09/10:18:34.433153,509910,1499566717,239712246,,0.787362939657,0.336054503641,0.163623194366,0.65479023471,0.753474928033,0.0496061075582,0.0326269129258,0.012280383024,-0.27458617941,-0.0151646335697,-0.0261367254552,0.0304631512707,-0.352080144683,3.59035110474,0.595730066299,-0.560659408569,-0.0396978855133,1.32527065277,0.158513888717
2017/07/09/10:18:34.443097,509911,1499566717,249704934,,0.787715193622,0.334000009578,0.163587738939,0.655776150067,0.752594971822,0.0498030508389,0.0328345171888,0.00428152500652,-0.290587297612,-0.0240324815009,-0.0290491645616,0.0515294245682,-0.387786274144,3.29707288742,0.526933789253,-0.646634399891,-0.0160916298628,1.23916387558,0.165559098125
2017/07/09/10:18:34.453202,509912,1499566717,259707261,,0.787257250208,0.331054485246,0.163423189924,0.657279920754,0.751330617396,0.0492319312369,0.0325826039984,0.00428325415681,-0.283775886965,-0.0253018836256,-0.0068461356838,0.0416770355666,-0.414214833314,3.59095740318,0.524058878422,-0.643375337124,-0.0515160635114,1.38255345821,0.145037129521
2017/07/09/10:18:34.463018,509913,1499566717,269703539,,0.787370203158,0.32810653507,0.162883157324,0.658933185538,0.749897036902,0.0490012782736,0.0325632579545,-0.00146168438601,-0.295951400727,-0.0357283283131,-0.0253543119642,0.0508234291388,-0.38237749379,3.58047604561,0.495498269796,-0.493705928326,-0.0546476095915,1.43050217628,0.151105970144
2017/07/09/10:18:34.473244,509914,1499566717,279712897,,0.787626982014,0.324877815649,0.163118325541,0.660320936962,0.748676644349,0.0487721514746,0.032875821758,-0.000874446691511,-0.299306957263,-0.0202999274551,-0.0235209372145,0.0465597484721,-0.369256403538,3.15314745903,-0.6858984828,-0.393710821867,0.199071392417,1.2598156929,0.178124755621
2017/07/09/10:18:34.483208,509915,1499566717,289709106,,0.786953216478,0.321905332468,0.161960318511,0.661779785173,0.747479152719,0.0477467683896,0.0322905295036,-0.00817524960627,-0.315034478857,-0.0361822835365,-0.0248831827864,0.066598130662,-0.429785906602,2.61042141914,-0.629233658314,-0.427269816399,0.171980813146,1.09071195126,0.13926692307
2017/07/09/10:18:34.492989,509916,1499566717,299707941,,0.786892892608,0.318949590633,0.161837989047,0.66317998477,0.746263039424,0.0473736250326,0.032241641416,-0.00765350404931,-0.329279195728,-0.0340527776817,-0.035837613241,0.0673810305021,-0.432758841325,3.06803631783,0.0199578106403,-0.161804646254,-0.0189807265997,1.29253947735,0.122170694172
2017/07/09/10:18:34.502939,509917,1499566717,309702753,,0.78668934276,0.315339583671,0.161107254622,0.664838671094,0.744816454017,0.0468461658835,0.0323021359309,-0.0109935442993,-0.318911217437,-0.0343942338628,-0.035475375493,0.0650781577375,-0.402813748098,2.79342627525,-0.162595286965,-0.174818575382,0.0329619795084,1.22633767128,0.138540104032
2017/07/09/10:18:34.513200,509918,1499566717,319728022,,0.787049604503,0.312049559751,0.161136839791,0.666918460926,0.742938454684,0.047147391386,0.0322388354774,-0.0102434718559,-0.315052152028,-0.0350434436503,-0.0149231467302,0.0616086426196,-0.413519757405,2.5241420269,-0.340813338757,-0.110071778297,-0.0200836807489,1.12513637543,0.0907838046551
2017/07/09/10:18:34.523100,509919,1499566717,329705135,,0.786911725704,0.308461619402,0.160698026703,0.668362575483,0.741685764539,0.046365815183,0.0323095273234,-0.0152422810319,-0.333239574802,-0.037931463084,-0.0348116038587,0.0708731477805,-0.426679510184,1.7975230217,-0.610525488853,0.0273247770965,0.191266551614,0.912936329842,0.119874402881
2017/07/09/10:18:34.533092,509920,1499566717,339710409,,0.786768006883,0.305468679478,0.160477803762,0.670101573344,0.740132383557,0.0460518436476,0.0323599120845,-0.00405250417798,-0.345647784444,-0.0376577567625,-0.0624649070874,0.0417494644437,-0.431511163228,1.17220544815,-0.713542759418,0.0756548494101,0.240361154079,0.702902376652,0.116455815732
2017/07/09/10:18:34.543135,509921,1499566717,349704618,,0.786930144664,0.302575211784,0.160389627818,0.670906696591,0.73939906749,0.0459609205041,0.032570189598,-0.0125296107031,-0.345169756351,-0.0307720485396,-0.0409757963892,0.0450334159331,-0.426371361809,1.32680165768,-0.702928483486,0.335947066545,0.321174412966,0.804326832294,0.162484422326
2017/07/09/10:18:34.553139,509922,1499566717,359705707,,0.786731776283,0.298907502175,0.159928209943,0.672746861935,0.737756242422,0.0454182286923,0.032627764655,-0.0138702922066,-0.341069553454,-0.032826261804,-0.0213869683888,0.0458127532555,-0.438120802357,1.18143749237,-0.719838440418,0.238629192114,0.379326581955,0.794283628464,0.161839962006
2017/07/09/10:18:34.563339,509923,1499566717,369708512,,0.786192393845,0.295938195756,0.159110557036,0.674503089202,0.73620573297,0.0448530726621,0.0321699125249,-0.0167527786141,-0.335954132329,-0.0437002618641,-0.0169457187969,0.0551086174299,-0.458453631904,1.0103738308,-0.833601117134,0.223917677999,0.295895636082,0.68630874157,0.112788446248
2017/07/09/10:18:34.573169,509924,1499566717,379707344,,0.786369172964,0.292830406068,0.159204960726,0.675854733314,0.734936513806,0.0451147265564,0.0324555323398,-0.0149658994021,-0.336403786512,-0.0438754117092,-0.0111595443785,0.0534766422792,-0.453259600607,0.868651866913,-0.832205593586,0.476884782314,0.342329919338,0.642496168613,0.143737614155
2017/07/09/10:18:34.583065,509925,1499566717,389703162,,0.786875549017,0.288973517749,0.159384189462,0.677838434994,0.733077927259,0.0453251958856,0.0328243084914,-0.00432871102157,-0.344783876336,-0.0309949522553,0.00470372943068,0.0200940230861,-0.462419992466,-0.00446486100554,-1.31541132927,0.491633713245,0.451112985611,0.322597980499,0.148502677679
2017/07/09/10:18:34.593188,509926,1499566717,399709563,,0.786472863279,0.286290693283,0.158618106277,0.67909296594,0.731954295143,0.0447902472532,0.0327030148968,-0.00288554356121,-0.362947990106,-0.0356721222368,-0.0148902377488,0.0130965536139,-0.470704439532,-0.0508123859763,-0.233480170369,0.249288782477,-0.00551154464483,0.310737013817,0.0296501740813
2017/07/09/10:18:34.603228,509927,1499566717,409707105,,0.786682052134,0.28213712374,0.158305263529,0.681033599314,0.730139717275,0.0445810389137,0.0331927828407,-0.010027392476,-0.352419577604,-0.0333525629132,-0.0233403192087,0.0196701273308,-0.471582839953,0.470351338387,1.06292915344,0.429664433002,-0.669293403625,0.487093538046,-0.0956270322204
2017/07/09/10:18:34.613077,509928,1499566717,419710081,,0.786714296701,0.279109417912,0.157748316491,0.682650706213,0.728631684442,0.0445123596757,0.033204390827,0.00970726458748,-0.348627057624,-0.0376973438387,-0.0257786963884,-0.0208215934853,-0.480266725399,0.818988800049,2.00166845322,0.589742064476,-1.11142230034,0.604522287846,-0.194954246283
2017/07/09/10:18:34.623354,509929,1499566717,429704838,,0.787343599502,0.275380266003,0.157656055612,0.684520732812,0.726818438361,0.0449505143847,0.033849302283,0.0171688257501,-0.344995105301,-0.0313956060028,-0.0200806687345,-0.0491863512952,-0.467321130803,-0.203014418483,1.35465717316,0.809669315815,-0.844604730606,0.173320114613,-0.157406896353
2017/07/09/10:18:34.633193,509930,1499566717,439717542,,0.7875730652,0.272743369428,0.157691606541,0.685609825516,0.725753474593,0.0450792205805,0.0344807938419,0.0181458847619,-0.366749738587,-0.0362289904239,-0.0289685907061,-0.0496157550079,-0.491395273335,-0.919132113457,0.67735850811,1.00260615349,-0.268345803022,-0.139440000057,0.0260663703084
2017/07/09/10:18:34.643090,509931,1499566717,449711042,,0.787835336856,0.268735062758,0.157336518149,0.687644772191,0.723794176574,0.0451149575036,0.035089853882,0.040845436976,-0.388103750905,-0.0212452375689,-0.0592340857936,-0.103546628117,-0.516739168464,-1.77256202698,-0.483289539814,0.823541522026,0.25072863698,-0.421675503254,0.0670578554273
2017/07/09/10:18:34.653118,509932,1499566717,459712909,,0.78797604247,0.264733029308,0.156689210417,0.689280006869,0.722240375471,0.0447268516641,0.0355164878713,0.0431610475992,-0.413818426646,-0.0294268479362,-0.0790232012983,-0.116504618318,-0.524206866348,-2.47053050995,-1.34123885632,1.02286362648,0.655179023743,-0.70079934597,0.153832048178
2017/07/09/10:18:34.663115,509933,1499566717,469708664,,0.788901859132,0.260873153938,0.156431504272,0.691138229369,0.720386596346,0.0452732967039,0.0363514554779,0.0479104898394,-0.398881597242,-0.0231742401924,-0.0694545402271,-0.136486555148,-0.495622539399,-2.9417757988,-1.0630620718,1.1329780817,0.47284090519,-0.857669472694,0.0872712358832
2017/07/09/10:18:34.673101,509934,1499566717,479701451,,0.78901819861,0.25875895275,0.156446356716,0.692360026867,0.719162870119,0.0459212990527,0.0365184026459,0.0631774286664,-0.352737304305,-8.85759307065e-05,-0.0191594614378,-0.178865697752,-0.459659451993,-3.30640411377,-0.264385253191,1.22153627872,0.195167332888,-0.988593876362,0.0710186213255
2017/07/09/10:18:34.682920,509935,1499566717,489709724,,0.789832357623,0.254069626406,0.156248139468,0.694197577362,0.71731488721,0.0460802273652,0.0377582946841,0.0431202752965,-0.339473006822,-0.0271401974792,0.015581435042,-0.127355481137,-0.471409483998,-3.81516575813,-0.421004980803,1.42921900749,0.0830614864826,-1.18681108952,0.0906940922141
2017/07/09/10:18:34.693138,509936,1499566717,499703420,,0.790587529068,0.250666373517,0.156444422423,0.695622782912,0.715855389277,0.0465156663153,0.0386820155184,0.0460307293377,-0.390371052934,-0.029227793659,-0.0205633699862,-0.129683042146,-0.528209250472,-3.38075232506,-0.134113043547,1.8936445713,-0.0973798036575,-1.03198814392,0.0398720689118
2017/07/09/10:18:34.703241,509937,1499566717,509710505,,0.790680932053,0.24624705862,0.155909626618,0.697563441458,0.713951307526,0.0461146528138,0.0393981524752,0.0587222946058,-0.414720728164,-0.0147991937637,-0.0746505686762,-0.169088784694,-0.507447036506,-4.64395999908,-0.236553445458,1.85077548027,-0.0191001296043,-1.53820347786,0.0751652345061
2017/07/09/10:18:34.713056,509938,1499566717,519710580,,0.791162852899,0.242394883307,0.155354127932,0.699264227556,0.712235488003,0.0461554990672,0.0402469824419,0.0463585517458,-0.417211053565,-0.0242606127804,-0.104104373554,-0.13940286752,-0.489930952593,-4.7604060173,-0.423642188311,1.51540029049,0.155197635293,-1.65979373455,0.0902734175324
2017/07/09/10:18:34.723144,509939,1499566717,529703387,,0.79183463274,0.23953324011,0.155344197639,0.700212385159,0.711234424655,0.0463704947387,0.0412066265644,0.0582024205828,-0.379847566993,-0.0178401203619,-0.116161751779,-0.169730946683,-0.432276191905,-4.53376293182,0.190328612924,1.52573537827,-0.000746309757233,-1.63383293152,0.0719714015722
2017/07/09/10:18:34.733423,509940,1499566717,539703390,,0.792109071792,0.234861534462,0.155003548111,0.701968950466,0.709457187074,0.0457850019464,0.0425890348344,0.0483636239447,-0.390950071256,-0.0232758518858,-0.141791177608,-0.135873438137,-0.424902090019,-4.42211341858,-0.36200645566,1.15892827511,0.204018414021,-1.56285762787,0.0959286168218
2017/07/09/10:18:34.743264,509941,1499566717,549705357,,0.792362134325,0.23115067909,0.154414829018,0.703550339489,0.707880205109,0.0456289627809,0.0429014309251,0.0350504550043,-0.423164826786,-0.0295338373612,-0.137484742011,-0.10141728893,-0.469039945857,-5.01006174088,-0.798472225666,1.43330419064,0.406446695328,-1.82678890228,0.182373329997
2017/07/09/10:18:34.753043,509942,1499566717,559710017,,0.793121822179,0.227449147202,0.154938658256,0.704872774891,0.706449215549,0.0461294006055,0.04422618532,0.0274621177403,-0.42097727551,-0.0209759927265,-0.131516390546,-0.0902894574318,-0.48905610382,-5.66184043884,-0.636144161224,1.5881228447,0.412096112967,-2.10076761246,0.17873814702
2017/07/09/10:18:34.763086,509943,1499566717,569705487,,0.792855664731,0.222295690956,0.154134488589,0.706834042979,0.704519398791,0.0448993789202,0.0449677460728,0.015418725336,-0.416925409675,-0.0395149703815,-0.127093078423,-0.05759457683,-0.48801645244,-6.59405136108,-1.36252939701,1.5865046978,0.533770084381,-2.36520552635,0.191911116242
2017/07/09/10:18:34.773103,509944,1499566717,579709497,,0.793217248388,0.218985839909,0.153903515276,0.708035776541,0.703267100335,0.0448337885751,0.0457236932809,0.0172657315542,-0.451149347073,-0.0390175672427,-0.157226751592,-0.0550727412152,-0.49720901111,-6.89638566971,-0.111466325819,1.30942571163,0.172933354974,-2.39934873581,0.141474321485
2017/07/09/10:18:34.783148,509945,1499566717,589704197,,0.79309498811,0.214843402351,0.152776142047,0.70952441476,0.701796377611,0.0438248068362,0.0462205099297,0.00899754606481,-0.42097408672,-0.0525847858614,-0.162385513246,-0.0207280098612,-0.466488698046,-7.27451086044,-0.0631378442049,1.24573802948,-0.0141988694668,-2.51744484901,0.0673941895366
2017/07/09/10:18:34.793008,509946,1499566717,599707227,,0.793201205387,0.211100066569,0.15288876833,0.711312562764,0.699951949934,0.0436973085205,0.0468214808172,-0.00180638938551,-0.426537051443,-0.0601102214055,-0.140869964835,-0.00491110613048,-0.480641187529,-7.79519462585,0.113821282983,1.17435240746,-0.037105076015,-2.66115403175,0.101202867925
2017/07/09/10:18:34.802894,509947,1499566717,609704351,,0.793334274193,0.206636968338,0.152274764712,0.712759285364,0.698456839964,0.0429934692095,0.0477891770247,-0.0082259760655,-0.418171534815,-0.0538964468402,-0.171891771026,0.00872197076587,-0.434151865677,-8.78355979919,-0.123749010265,0.887338399887,0.0218043141067,-3.08088827133,0.117218442261
2017/07/09/10:18:34.813101,509948,1499566717,619704288,,0.79271893998,0.203140207164,0.151429556044,0.714135321157,0.697115745664,0.0417330121651,0.0479451344709,-0.025106330626,-0.434417578356,-0.065038266426,-0.164897891312,0.0434562971135,-0.473361997417,-9.68406105042,-0.338209450245,1.01666414738,0.22850780189,-3.44112730026,0.196346431971
2017/07/09/10:18:34.823019,509949,1499566717,629704979,,0.791900875967,0.198357444198,0.149983031427,0.716023057099,0.695257072246,0.0403946182917,0.0479255673684,-0.0357654150109,-0.433923503096,-0.07766085758,-0.190676948796,0.0626348799295,-0.466365602959,-10.1194438934,-0.766335129738,0.848534286022,0.385893434286,-3.64688467979,0.235562726855
2017/07/09/10:18:34.833164,509950,1499566717,639705474,,0.792297534105,0.194594833848,0.150071296778,0.716889879285,0.694294668911,0.0398374387608,0.0493638751851,-0.0443283451942,-0.437379304376,-0.0870414951316,-0.190666887987,0.0855485455231,-0.474408899823,-10.3931255341,-0.461066484451,1.02046132088,0.347173452377,-3.80782651901,0.205438151956
2017/07/09/10:18:34.843095,509951,1499566717,649704632,,0.791548246487,0.190628080042,0.148864954341,0.718717870171,0.692469437521,0.0388495551633,0.0492078577038,-0.0365910521687,-0.410883031662,-0.0853958111656,-0.195680768576,0.0774509668136,-0.416053223098,-10.3286962509,-0.67526692152,0.829455316067,0.40434679389,-3.72513604164,0.214621156454
2017/07/09/10:18:34.853318,509952,1499566717,659704098,,0.790998950747,0.185816341546,0.147797425145,0.720111380037,0.691051847082,0.0371748284857,0.0500497463909,-0.0513924351722,-0.401589270052,-0.0994811816126,-0.200120658933,0.0999512287575,-0.40089836508,-10.0452947617,-0.886748075485,0.786624848843,0.469853579998,-3.54668521881,0.234961658716
2017/07/09/10:18:34.863217,509953,1499566717,669701979,,0.790645835632,0.18260429612,0.146401451536,0.721329486762,0.689808390587,0.0364266525716,0.0502120980106,-0.0438752888043,-0.424058160787,-0.111163667662,-0.209903203054,0.09521356513,-0.418646805875,-10.1011533737,-0.382238864899,0.958922624588,0.280217349529,-3.51767277718,0.175718709826
2017/07/09/10:18:34.873251,509954,1499566717,679718562,,0.790247627083,0.179602438942,0.145161518808,0.721854248014,0.689294962079,0.0353667634993,0.0504786283126,-0.047963478995,-0.425786495501,-0.122804929834,-0.202277534586,0.105485799792,-0.431143339695,-10.2978916168,0.429467111826,1.02021968365,-0.0842690393329,-3.54603099823,0.0656608790159
2017/07/09/10:18:34.883301,509955,1499566717,689705011,,0.789782450204,0.174702022216,0.143942791307,0.723863494053,0.687206560131,0.0340315483757,0.0510944165799,-0.0432432371079,-0.412822677988,-0.119555667468,-0.216096537554,0.102901023301,-0.406333857984,-10.413599968,0.463485389948,0.828930258751,-0.218877539039,-3.53260684013,0.00779938232154
2017/07/09/10:18:34.893307,509956,1499566717,699706893,,0.789407458745,0.171020128147,0.143105352576,0.724996118527,0.686044275479,0.0329246481196,0.0513794487109,-0.0409894274718,-0.420101629061,-0.118513075283,-0.215016997293,0.0942957568854,-0.408490646756,-10.3627948761,0.480162680149,1.05341911316,-0.170898497105,-3.63100886345,0.0679668188095
2017/07/09/10:18:34.903151,509957,1499566717,709704153,,0.789197847969,0.166976626955,0.141707790455,0.726481888611,0.684472154894,0.0318942496367,0.0520066489509,-0.0495005670851,-0.430119635899,-0.134645995762,-0.215269130601,0.126268785662,-0.442267343145,-10.482419014,0.348087579012,0.90252494812,-0.058347415179,-3.77495098114,0.111430838704
2017/07/09/10:18:34.913189,509958,1499566717,719702843,,0.788885139937,0.162785392177,0.140135071541,0.727978723103,0.682890935214,0.0308458903115,0.0524926696058,-0.0435099993815,-0.415041256549,-0.139409241067,-0.227400046315,0.11053229702,-0.386506510526,-9.62231826782,-0.0503546856344,0.373576790094,-0.0585615485907,-3.46292233467,0.0737927109003
2017/07/09/10:18:34.923238,509959,1499566717,729705221,,0.7883872963,0.158149913216,0.138964437698,0.729231914084,0.681555589244,0.0293388321536,0.0533106666604,-0.0332212922113,-0.422334199342,-0.145709789731,-0.221482046972,0.0803383714658,-0.407414000842,-9.61517906189,0.185020759702,0.937271535397,-0.0651675015688,-3.45720338821,0.0833424255252
2017/07/09/10:18:34.932960,509960,1499566717,739737785,,0.78884275549,0.155304186111,0.137941439614,0.7298992323,0.680794041151,0.0288887272991,0.0541481823962,-0.0164120832868,-0.407299443099,-0.13804197306,-0.236800276339,0.0467879024121,-0.354732674669,-9.56753253937,0.403193205595,1.04255330563,-0.149212867022,-3.42401242256,0.0587374307215
2017/07/09/10:18:34.942957,509961,1499566717,749705865,,0.788683007639,0.151371877391,0.136485165509,0.730974971327,0.679628862983,0.027847161675,0.0548154675375,-0.00539245155507,-0.377191005156,-0.139495904744,-0.22177005851,0.0340202390599,-0.324401302712,-9.91626548767,0.185324847698,1.15260076523,-0.120705097914,-3.58055329323,0.0991839319468
2017/07/09/10:18:34.952954,509962,1499566717,759716770,,0.788353613625,0.148166040941,0.13443953874,0.732182211707,0.678374242512,0.0267841387211,0.0547741350333,-0.0109586285069,-0.391968682546,-0.147032111338,-0.197409141535,0.0516303731827,-0.383610557544,-10.3902854919,0.483077853918,0.810699760914,-0.131778359413,-3.77999830246,0.128300145268
2017/07/09/10:18:34.962890,509963,1499566717,769705677,,0.788336969847,0.14382781635,0.133190866814,0.733114073082,0.677313678548,0.0256219279914,0.0559772588306,-0.0229631104991,-0.379198540328,-0.171176541464,-0.197573052626,0.0892630959579,-0.341344574703,-9.70452404022,0.212952777743,0.191653639078,-0.150874108076,-3.52049636841,0.0917963013053
2017/07/09/10:18:34.973119,509964,1499566717,779707649,,0.78877814254,0.141382863991,0.131734696485,0.733822890391,0.67652422911,0.0250282980558,0.0565023650987,0.00759146576572,-0.375618452474,-0.144786021616,-0.22792300297,0.0197618625165,-0.310746418728,-9.50037765503,0.235601857305,-0.00554277934134,-0.0603166073561,-3.47816061974,0.105384454131
2017/07/09/10:18:34.983361,509965,1499566717,789704520,,0.788627306165,0.136509653902,0.130138543004,0.735037103639,0.67516499988,0.0237830454151,0.0575069209901,0.00536548927578,-0.400764566174,-0.147660841913,-0.269094666827,0.0311518306068,-0.324458402301,-8.02524852753,0.0457559637725,0.0698160007596,-0.0331107228994,-2.90407657623,0.102166593075
2017/07/09/10:18:34.997775,509966,1499566717,799709171,,0.788611182299,0.133633190213,0.128467465888,0.735884043713,0.674231979476,0.022916459583,0.0579719582258,0.0170134677286,-0.36655871436,-0.152306595126,-0.253765006676,0.01265050276,-0.283742814176,-7.40249013901,0.0751528888941,0.228248015046,-0.0517765432596,-2.69402170181,0.0795122236013
2017/07/09/10:18:35.003301,509967,1499566717,809716128,,0.788421930401,0.130945431876,0.126251804973,0.736441627713,0.673654257715,0.0214307998993,0.0581755176064,0.01698212783,-0.347226356575,-0.162136091924,-0.221321321839,0.0290983011665,-0.273755002944,-7.52473735809,1.08088433743,-0.0715134963393,-0.277079612017,-2.72851443291,0.089409545064
2017/07/09/10:18:35.013120,509968,1499566717,819710645,,0.788155757209,0.126941686365,0.124531763798,0.73728730452,0.672729454256,0.0201499015031,0.058621612391,-0.00436935024606,-0.342410603004,-0.177777526215,-0.234264884532,0.0967362227927,-0.237149982105,-7.82697677612,0.485372543335,0.200337350368,-0.327898174524,-2.9111161232,0.0763910636306
2017/07/09/10:18:35.023391,509969,1499566717,829708843,,0.788362218401,0.123921098927,0.123591039571,0.737879663643,0.672027679417,0.0192922030176,0.0594996721215,0.00574379648353,-0.366818537048,-0.157699246433,-0.255108370737,0.0572651941063,-0.261558805867,-9.16178703308,0.408108472824,0.801486194134,-0.180327862501,-3.40680122375,0.146366998553
2017/07/09/10:18:35.033222,509970,1499566717,839723329,,0.789073371925,0.12046197795,0.122351591086,0.738704544161,0.671030802549,0.0185998599717,0.0607231724685,0.0301880153175,-0.352008840449,-0.143719872557,-0.245381619962,0.0125542555742,-0.231653457041,-8.41733646393,0.645301759243,0.472479462624,-0.202509731054,-3.15984892845,0.154364272952
2017/07/09/10:18:35.043109,509971,1499566717,849703544,,0.78908766339,0.118677896875,0.120105745029,0.738782890394,0.670983591663,0.017585423984,0.0605938399819,0.0170838265588,-0.347032164373,-0.158985001409,-0.243053167993,0.0519311817511,-0.234080859365,-7.58348798752,0.74565756321,-0.0169195272028,-0.216382592916,-2.81126475334,0.121059045196
2017/07/09/10:18:35.053111,509972,1499566717,859702331,,0.789497876872,0.114434899896,0.119223882093,0.739855170519,0.669711138353,0.0165255007348,0.0618726567043,0.0268245270618,-0.340566901945,-0.156879111011,-0.254986417115,0.0398374659185,-0.241492786486,-6.62109994888,0.589344084263,-0.0242678094655,-0.177109628916,-2.42463040352,0.125160187483
2017/07/09/10:18:35.062958,509973,1499566717,869704257,,0.789422003602,0.110518949754,0.117670241309,0.740671380804,0.668756095491,0.0150370036694,0.0628098632561,0.0221006519733,-0.329300239841,-0.158632264422,-0.256145200856,0.0621400539212,-0.205270218984,-6.5343079567,0.279498845339,-0.168711930513,-0.0879494026303,-2.34571957588,0.106462150812
2017/07/09/10:18:35.073317,509974,1499566717,879708313,,0.790034948697,0.108114631004,0.116191610207,0.740841513314,0.668521325649,0.0141049582221,0.063514875866,0.00981426212061,-0.321113437382,-0.165855596881,-0.252865585053,0.0931319985256,-0.195941720756,-6.55052089691,0.678023815155,0.196986034513,-0.159129753709,-2.42755961418,0.123862795532
2017/07/09/10:18:35.083272,509975,1499566717,889707451,,0.789843077142,0.104575025221,0.114670304428,0.741784869921,0.667446572258,0.0128265288688,0.0640762053632,0.015082834054,-0.31373202601,-0.163496505654,-0.248218590305,0.0918969301837,-0.170126564854,-5.8946814537,0.717972576618,-0.0423203408718,-0.283955544233,-2.15886163712,0.0699280202389
2017/07/09/10:18:35.093091,509976,1499566717,899708843,,0.789818666226,0.101843372178,0.113256067371,0.741908962792,0.667317584089,0.0112704023924,0.0642752746,-0.000152278043594,-0.34762300406,-0.155560080441,-0.270408653603,0.121106838309,-0.226498501841,-6.95138788223,1.15334618092,0.0596576221287,-0.35051047802,-2.65129804611,0.144345313311
2017/07/09/10:18:35.103040,509977,1499566717,909704477,,0.789375598807,0.0981897323408,0.111345447613,0.742949750917,0.666170905467,0.00989847934647,0.0643740042966,0.00374130061628,-0.31715606939,-0.154461046402,-0.243494680629,0.128248210991,-0.194867958226,-7.32869338989,0.271336466074,0.163837552071,-0.197680056095,-2.7823369503,0.205464839935
2017/07/09/10:18:35.113000,509978,1499566717,919703933,,0.790266838355,0.0957191784857,0.110015348363,0.743252546988,0.665748456111,0.00922397544851,0.0653418920619,-0.00328451078199,-0.318618800841,-0.164406657777,-0.237245836438,0.145408582929,-0.184421962114,-6.0944108963,0.689020216465,-0.219192072749,-0.26320078969,-2.43109250069,0.164030700922
2017/07/09/10:18:35.123247,509979,1499566717,929705650,,0.789912781027,0.0926209229474,0.108618737109,0.743452617871,0.665509595122,0.00726344571239,0.0657451605683,0.0140244899527,-0.315070737155,-0.147253148834,-0.260155023671,0.110922871975,-0.164296919334,-5.22438621521,0.998243927956,-0.46985539794,-0.24577306211,-2.21351504326,0.16987426579
2017/07/09/10:18:35.133080,509980,1499566717,939709675,,0.789753688257,0.0897986625625,0.106712330993,0.74409071902,0.664786943321,0.00606165519706,0.0659589129353,0.0102689757608,-0.30713784346,-0.153675094312,-0.263588612191,0.119562440773,-0.160335223117,-5.12820911407,0.472155958414,-0.893272936344,-0.153593361378,-2.13287854195,0.178027123213
2017/07/09/10:18:35.143006,509981,1499566717,949704132,,0.790514779262,0.0873506954099,0.105771278729,0.74443066662,0.664318091286,0.0051693433742,0.0669158731187,0.00947948468148,-0.312326462061,-0.154551240037,-0.272597700944,0.118495457629,-0.149320138997,-3.75002145767,0.649934887886,-0.706282675266,-0.225193351507,-1.71553647518,0.10396502167
2017/07/09/10:18:35.153111,509982,1499566717,959720780,,0.790957481641,0.0838403854018,0.104699763077,0.74486119518,0.663745466641,0.00420510125745,0.0678680525112,0.0370235785306,-0.317820437473,-0.140853397386,-0.261125031336,0.0497193647099,-0.174925367668,-3.86668276787,0.58967345953,-0.559830904007,-0.229317575693,-1.67393708229,0.112678259611
2017/07/09/10:18:35.163031,509983,1499566717,969711295,,0.790976930174,0.080719921195,0.102714481343,0.745402902745,0.663086291741,0.00292310645951,0.0684290708207,0.0412254893096,-0.3140818966,-0.137045244729,-0.264674890498,0.0384049101033,-0.161391413077,-3.78859090805,-0.13769453764,-0.962303221226,-0.0273241251707,-1.5399851799,0.127976641059
2017/07/09/10:18:35.172963,509984,1499566717,979710410,,0.791846061464,0.07795081983,0.101965922093,0.745765450084,0.662561986221,0.00245927748577,0.0695662262244,0.0306065020846,-0.292588861808,-0.148687400224,-0.244012282139,0.0591718004778,-0.150397402885,-3.28904438019,0.303009688854,-0.633950471878,-0.125297218561,-1.46335339546,0.153549313545
2017/07/09/10:18:35.183522,509985,1499566717,989712240,,0.791732687532,0.0752509399548,0.100382425318,0.746452996528,0.661786316707,0.00130492392119,0.0696066962773,0.0120038889164,-0.300122912247,-0.169177579328,-0.206766130764,0.0949224927457,-0.193877002679,-2.52586865425,0.700034141541,-0.892599880695,-0.390414565802,-1.14782893658,0.0330636911094
2017/07/09/10:18:35.193234,509986,1499566717,999705437,,0.791682945425,0.0728836106931,0.0980572984014,0.746991501432,0.661173659697,0.000207897598725,0.069663801859,0.0233626070231,-0.295931610541,-0.145166876885,-0.20001309672,0.0701052496472,-0.19625215712,-2.75336146355,0.741478741169,-1.00026774406,-0.424501925707,-1.31370103359,0.0513148531318
2017/07/09/10:18:35.203174,509987,1499566718,9707001,,0.791835419727,0.0707027921848,0.0968283930394,0.747189816449,0.660946905451,-0.000770538287796,0.0696848092547,0.0177860543274,-0.266679860522,-0.159270886011,-0.174254774879,0.0990085445313,-0.167065790153,-2.24581408501,0.45914876461,-0.815905869007,-0.344060391188,-1.06552481651,0.0393611080945
2017/07/09/10:18:35.213213,509988,1499566718,19709865,,0.792246359887,0.0669426956798,0.0957939690365,0.748093342602,0.659806955461,-0.00149215627681,0.0707736232562,0.0323572975699,-0.28483859683,-0.145842298616,-0.199469503993,0.0541575982188,-0.19061969874,-1.99919724464,0.163843154907,-0.570240139961,-0.269793212414,-0.95870912075,0.0382832512259
2017/07/09/10:18:35.222983,509989,1499566718,29703960,,0.792723053285,0.0637559007046,0.0941118266661,0.748439282774,0.659308968142,-0.00267304385117,0.071715963114,0.0281264892704,-0.29844873087,-0.137926116699,-0.199502875596,0.0416354150447,-0.216236195687,-1.96528148651,0.102528654039,-0.26072922349,-0.200169742107,-0.969269514084,0.110354870558
2017/07/09/10:18:35.233141,509990,1499566718,39708896,,0.792980203717,0.0618621839693,0.0928042252896,0.749087633438,0.658557385634,-0.00297571391614,0.0718403256183,0.0493880787831,-0.28229196922,-0.127205483175,-0.21197410276,0.00982814366149,-0.170871007328,-2.11198306084,0.343124032021,-0.39651170373,-0.21232406795,-0.977736651897,0.0730715095997
2017/07/09/10:18:35.243162,509991,1499566718,49703962,,0.793932484751,0.0590441307275,0.0921235719272,0.749395761074,0.658051481486,-0.00357513187403,0.0732219873445,0.0395478366692,-0.299937678493,-0.123052112305,-0.202198209966,0.0108161855265,-0.201382385385,-1.90699923038,0.546159148216,-0.209855020046,-0.266603529453,-0.911819577217,0.0319131463766
2017/07/09/10:18:35.253235,509992,1499566718,59707498,,0.794110225402,0.0559994538925,0.090658977198,0.750032522359,0.657264799904,-0.00450553299242,0.0737149807213,0.0425932148101,-0.27967270347,-0.131446152115,-0.193614123671,0.00677343727462,-0.172908053016,-1.84047460556,0.389149606228,-0.763166904449,-0.263510137796,-0.822949707508,-0.00228374032304
2017/07/09/10:18:35.263412,509993,1499566718,69713570,,0.79447525752,0.0533929081952,0.0895050491733,0.750780405531,0.656380761519,-0.00474657362859,0.0739631571616,0.0512815605537,-0.281438383717,-0.131930945692,-0.175119798311,-0.0176273152699,-0.195275248519,-1.7102946043,0.418175816536,-0.907654166222,-0.251674205065,-0.684853851795,-0.0145572246984
2017/07/09/10:18:35.272998,509994,1499566718,79706351,,0.794632886232,0.0511489051294,0.0877959970653,0.751336139575,0.655690922861,-0.00570063634793,0.074370167345,0.0452611546054,-0.276060166005,-0.128971443924,-0.150209119845,-0.0137948282025,-0.216747772372,-1.83962976933,0.630965054035,-0.610055685043,-0.346586465836,-0.655423343182,-0.0216348264366
2017/07/09/10:18:35.283384,509995,1499566718,89703243,,0.79498608433,0.0481877919899,0.0864051285828,0.75161232,0.655295671005,-0.00641309678859,0.0750025078013,0.0327842892208,-0.279727335376,-0.136370037359,-0.163145258672,0.0187195152988,-0.200731937081,-1.22059333324,1.089884758,-0.442627638578,-0.486777871847,-0.470602631569,-0.0949955582619
2017/07/09/10:18:35.292877,509996,1499566718,99728219,,0.795026261755,0.0459989391851,0.0853385300097,0.752710625634,0.654050412115,-0.00666934442926,0.0748351008216,0.0340565713521,-0.264590488872,-0.132074057438,-0.149068141557,0.0208664801655,-0.204586753731,-1.38208186626,0.802955508232,-0.376887500286,-0.529543876648,-0.453216612339,-0.100661531091
2017/07/09/10:18:35.302908,509997,1499566718,109706245,,0.795561751722,0.0430880238655,0.0843212907828,0.75292315267,0.653681084779,-0.00754967946399,0.0758338177522,0.0380183919024,-0.260444193386,-0.125553804487,-0.139146383295,0.00443854656291,-0.208360436076,-1.19020223618,0.849940538406,-0.443219572306,-0.389488726854,-0.435221165419,-0.0692708641291
2017/07/09/10:18:35.313873,509998,1499566718,119728227,,0.796546458639,0.0411752036594,0.0833894563822,0.753779933988,0.652640169174,-0.0072508487074,0.0763154367785,0.0209166720879,-0.272018481549,-0.128584642562,-0.123787955115,0.0313749990625,-0.232882249866,-0.881325364113,1.07901763916,-0.0382208973169,-0.336891949177,-0.422976732254,-0.0454118140042
2017/07/09/10:18:35.322937,509999,1499566718,129703235,,0.796477673094,0.0383484424698,0.0820841571706,0.754532836675,0.651735738204,-0.00799624067248,0.0765296417246,0.0422455124873,-0.266208199454,-0.112579391725,-0.109802477109,-0.0176569770383,-0.240745842834,-1.09445762634,0.734351992607,-0.762607395649,-0.401285141706,-0.414108455181,-0.11596442759
2017/07/09/10:18:35.333115,510000,1499566718,139708725,,0.796954489692,0.0357364656613,0.0806264915306,0.755021525937,0.651080588627,-0.00829722777982,0.0772510096746,0.0302247580438,-0.251069961575,-0.126538341865,-0.0857852802838,0.00262810907198,-0.255499244848,-0.304225206375,0.733636796474,-0.84624505043,-0.413589179516,-0.18099296093,-0.127046823502
2017/07/09/10:18:35.343515,510001,1499566718,149704397,,0.796954833504,0.03406432381,0.0792737464825,0.755719950765,0.650322059259,-0.00877098012223,0.0767570528598,0.027970549269,-0.271961581213,-0.120021103585,-0.112240429114,-0.000890880542493,-0.245370150301,-0.298616886139,1.21920835972,-0.690046846867,-0.48613229394,-0.179962947965,-0.146831452847
2017/07/09/10:18:35.353181,510002,1499566718,159707748,,0.796615989988,0.0311206353315,0.0776049458556,0.756653216241,0.649219955208,-0.00948665248824,0.0768073143445,0.0249060636564,-0.260246159784,-0.127623173445,-0.0938851241113,0.00678257280418,-0.252295735443,0.126954764128,0.53645169735,-1.37404644489,-0.417062491179,0.0939806252718,-0.214362502098
2017/07/09/10:18:35.363348,510003,1499566718,169706846,,0.797381387125,0.0291178392602,0.0771729695065,0.75718519168,0.648515482244,-0.00971097078204,0.0774851717195,0.0168128363432,-0.25871208419,-0.127988809003,-0.0681758402407,0.0223598939762,-0.246502892983,1.19227957726,0.832010030746,-0.512774944305,-0.440278172493,0.364058822393,-0.257641255856
2017/07/09/10:18:35.373144,510004,1499566718,179710079,,0.797337338992,0.025952778238,0.0758866774215,0.758325825952,0.647164075694,-0.0100130252088,0.0775908509518,0.0332738082618,-0.244764534801,-0.115891965682,-0.0550056447211,-0.0202379934541,-0.251814049575,1.72765696049,-0.145921140909,-0.762674808502,-0.12648576498,0.618507146835,-0.245483487844
2017/07/09/10:18:35.383086,510005,1499566718,189721009,,0.798027416081,0.0247859258349,0.0748952752924,0.758622362369,0.646813889317,-0.00978098520567,0.0776417170695,0.0338668930447,-0.247019919863,-0.114501422541,-0.0661626343926,-0.0185964295185,-0.240119841064,2.85984897614,0.384858310223,-0.856167972088,-0.215030938387,1.05948936939,-0.309209525585
2017/07/09/10:18:35.393248,510006,1499566718,199702535,,0.798317749634,0.0215752018915,0.0736910265056,0.760041994977,0.645074696461,-0.00987548540785,0.0782130209488,0.0284135949201,-0.239447155321,-0.121549719094,-0.0408791865491,-0.0150268519352,-0.258636658904,2.7368683815,-0.0421080738306,-0.974098563194,-0.225634887815,1.02398407459,-0.315875858068
2017/07/09/10:18:35.403425,510007,1499566718,209705294,,0.799329509143,0.0195584529988,0.0732481853268,0.760372347737,0.644561123503,-0.00998062165271,0.079216400182,0.0266729378514,-0.235191462832,-0.116570752251,-0.0400956087217,-0.0207040037345,-0.278185077208,2.60571527481,0.401630014181,-0.501111745834,-0.242496669292,0.862660825253,-0.307275027037
2017/07/09/10:18:35.413161,510008,1499566718,219706970,,0.798550084739,0.0167263927276,0.0715049081825,0.761668485485,0.643100085126,-0.0104934232756,0.0785702666334,0.0279943422971,-0.249566823941,-0.112908698803,-0.0384931513971,-0.0374962276021,-0.295665349171,1.31975889206,0.0429051220417,-1.06253290176,-0.382206439972,0.580848693848,-0.312438011169
2017/07/09/10:18:35.423150,510009,1499566718,229704962,,0.799449010299,0.0152853370848,0.0706719544523,0.76245838243,0.642155737727,-0.00975714433633,0.0787275155335,0.0327588888175,-0.236060176022,-0.112636543555,-0.0169580407389,-0.0424887550305,-0.287871619252,1.0838599205,-0.0460031628609,-0.880365073681,-0.211964190006,0.373506098986,-0.213134378195
2017/07/09/10:18:35.433069,510010,1499566718,239709913,,0.798522891622,0.0124519081046,0.0689819660705,0.763584549876,0.640881248986,-0.0106969550331,0.0780732671331,0.0105519549574,-0.218701472797,-0.126910588204,0.0090845045218,0.00814892111452,-0.274400465538,1.55392384529,-0.172744587064,-1.11368000507,-0.169236332178,0.538318812847,-0.195206165314
2017/07/09/10:18:35.443392,510011,1499566718,249709473,,0.798979941194,0.0108644466344,0.0679256546252,0.764259175215,0.640081296865,-0.010486769053,0.0780632703526,0.0138307607727,-0.212434589324,-0.117616681126,0.0179334617873,-0.00364693202742,-0.266032354035,1.50787246227,-0.0745125859976,-0.984955728054,-0.286022424698,0.523158490658,-0.252505689859
2017/07/09/10:18:35.453152,510012,1499566718,259709883,,0.799268070346,0.00854543789213,0.067276550923,0.764962952253,0.639203602231,-0.0104041917145,0.0783721211299,-0.00451335675269,-0.210504540855,-0.13111652742,0.044379041453,0.0310819642726,-0.262179217291,2.17684292793,0.226502090693,-0.119280509651,-0.285515546799,0.642273068428,-0.258647322655
2017/07/09/10:18:35.463374,510013,1499566718,269705687,,0.799274241668,0.00625408569117,0.0657880822943,0.765670276682,0.638373202584,-0.0104484578511,0.0782273057061,-0.000353735725345,-0.213691709651,-0.109244117292,0.034975825211,0.0178657885439,-0.249105302021,1.40486288071,-0.0534468144178,-0.670845210552,-0.273528337479,0.415153712034,-0.240230172873
2017/07/09/10:18:35.473041,510014,1499566718,279710600,,0.799708994034,0.00439140587148,0.0653635068022,0.767005975834,0.63678718896,-0.00960390706252,0.0781771960361,0.00489438600243,-0.222338697088,-0.104445546993,0.0489241818267,-0.022637254067,-0.3057875592,2.01872634888,0.288360357285,-0.414165198803,-0.297391116619,0.583158612251,-0.274283826351
2017/07/09/10:18:35.483266,510015,1499566718,289711435,,0.799580213659,0.00252127452802,0.0638837525265,0.767739143618,0.635941413924,-0.00986378537999,0.0778320701902,0.0159008412906,-0.224430642633,-0.0958875373667,0.0513967488145,-0.0553248802965,-0.334055653073,1.83218562603,0.0191437602043,-1.04545223713,-0.254477053881,0.544036269188,-0.245443016291
2017/07/09/10:18:35.493207,510016,1499566718,299708706,,0.800122902446,0.00137298846593,0.0630568809665,0.768142184515,0.635452796006,-0.00945881224158,0.077896465189,0.0204242786601,-0.191670130917,-0.106522469717,0.0760727289934,-0.0527634801697,-0.295045366418,2.10783934593,0.618344545364,-1.10076498985,-0.434297204018,0.635936975479,-0.280120313168
2017/07/09/10:18:35.503134,510017,1499566718,309704515,,0.79910983196,-0.000777844347339,0.0610119018677,0.769267740503,0.634225365961,-0.00984820747603,0.0767355289424,0.0150924994471,-0.197445940093,-0.110904009219,0.0519450772607,-0.0335171762333,-0.236527038318,3.06265997887,1.70639145374,-1.02156555653,-0.575863718987,1.05473554134,-0.362661570311
2017/07/09/10:18:35.513007,510018,1499566718,319710706,,0.800456918502,-0.00237417410772,0.0610920408767,0.769761872251,0.633554898056,-0.00870257832309,0.0774539625086,0.000655912415023,-0.208860872693,-0.109861369225,0.0574377447476,-0.0129123636861,-0.205888111168,3.28242707253,1.58164811134,-1.11724936962,-0.621020436287,1.14880383015,-0.402099192142
2017/07/09/10:18:35.523333,510019,1499566718,329702203,,0.799559271211,-0.00448166721818,0.0599958465031,0.770458380072,0.632759261297,-0.00952024161397,0.076934821886,0.00269017120692,-0.212631891183,-0.100231590723,0.053896584649,-0.0283929874966,-0.227439550139,3.2139852047,0.64113843441,-1.08987903595,-0.360954135656,1.12665820122,-0.360896706581
2017/07/09/10:18:35.533276,510020,1499566718,339710068,,0.799851454247,-0.00677141888305,0.0589520488357,0.771617957523,0.631341421733,-0.00883016949566,0.0770439156517,2.12019588591e-05,-0.188987934188,-0.0806440583004,0.0560359338031,-0.0232047957991,-0.22796676992,3.48519277573,0.490744948387,-0.803714156151,-0.476710826159,1.29147553444,-0.454445153475
2017/07/09/10:18:35.543269,510021,1499566718,349703854,,0.799869853959,-0.00845667073389,0.0582743411971,0.772083037831,0.630771859178,-0.00887316861465,0.0770448651215,0.00510387341482,-0.17879832005,-0.0981682331657,0.0509715513656,-0.0313064372509,-0.215369747916,4.32983970642,0.3126116395,-0.860055863857,-0.512092828751,1.64406061172,-0.530257761478
2017/07/09/10:18:35.553038,510022,1499566718,359704880,,0.799457637359,-0.010124878066,0.0572094186773,0.772693543587,0.630114144791,-0.00855481476956,0.0763391601805,-0.023632445602,-0.209624721182,-0.116965871253,0.0437682260133,0.0135998333966,-0.246605285977,4.8965215683,0.0750885605812,-1.05624246597,-0.377890646458,1.82625472546,-0.526035904884
2017/07/09/10:18:35.563026,510023,1499566718,369707943,,0.799210441554,-0.0119453033546,0.0559109929112,0.773155178803,0.629586834387,-0.00867231075529,0.0760018320997,-0.0289361370112,-0.175772864711,-0.112929482563,0.0898889003118,0.0333827066442,-0.190058806708,4.72203874588,0.137248322368,-1.32075321674,-0.373133420944,1.73587918282,-0.485415935516
2017/07/09/10:18:35.573000,510024,1499566718,379731254,,0.798915032709,-0.0137037924249,0.0552946201728,0.773359733512,0.629353317889,-0.00893326485685,0.0758242746303,-0.0169400988306,-0.176939546541,-0.0943645915222,0.0573595135866,0.0211416539214,-0.14773778178,4.04682397842,-0.625426530838,-1.49844801426,0.0709312707186,1.35760629177,-0.320209622383
2017/07/09/10:18:35.583041,510025,1499566718,389715684,,0.798244853651,-0.0154113230003,0.0539160368714,0.774497455349,0.628047797581,-0.00882290250712,0.0750453996139,-0.0325993192622,-0.19233435907,-0.0990923231852,0.0616090101537,0.030352013474,-0.180173640152,3.17405223846,-1.72050857544,-1.44312882423,0.738882303238,0.923275947571,-0.157295390964
2017/07/09/10:18:35.593298,510026,1499566718,399707010,,0.797662190195,-0.0174944116269,0.0527544055511,0.775234121039,0.627196809582,-0.00896801691559,0.0745372007736,-0.0492728023041,-0.192265169906,-0.0915038319883,0.0763400261658,0.0446824898544,-0.240592116898,2.33416557312,-2.7243540287,-1.417085886,1.25729608536,0.527260065079,-0.0319843143225
2017/07/09/10:18:35.603214,510027,1499566718,409702413,,0.797513765063,-0.0185170532878,0.0522815601694,0.776185688938,0.626081561277,-0.00836638581908,0.0740787317933,-0.0573784027205,-0.174183962809,-0.098283841668,0.092612107848,0.0568444099491,-0.263184813461,2.40938448906,-2.64707612991,-1.27544784546,1.21310055256,0.584162771702,-0.0559426993132
2017/07/09/10:18:35.613262,510028,1499566718,419710390,,0.796185171023,-0.0200193125944,0.0505886829734,0.776838225257,0.625389381826,-0.00906820192812,0.072994935386,-0.0494122560852,-0.16674229333,-0.111044990608,0.107196480404,0.0308171074026,-0.281711254101,2.390873909,-1.8492474556,-1.02285277843,0.724934518337,0.669411718845,-0.19489389658
2017/07/09/10:18:35.623008,510029,1499566718,429707066,,0.797051467351,-0.0211854424712,0.0505071704044,0.777550581375,0.624467224598,-0.0077365217476,0.0734569604415,-0.0403693589749,-0.165864751501,-0.105860072938,0.103891298812,1.13818933303e-05,-0.249912786334,2.92250561714,-0.715175747871,-0.765537321568,0.0718532055616,1.04677903652,-0.367220282555
2017/07/09/10:18:35.633389,510030,1499566718,439710090,,0.796427232751,-0.0230124636581,0.0494727819155,0.778556306184,0.62326978641,-0.00779019801878,0.0729668710054,-0.0348735958137,-0.139493295921,-0.100291941575,0.13801949906,-0.0218647214842,-0.261737405255,2.9533662796,0.251573354006,-0.575713932514,-0.385327190161,1.19143748283,-0.481705754995
2017/07/09/10:18:35.643240,510031,1499566718,449704976,,0.79594562758,-0.0250027606984,0.0480538023584,0.779113542092,0.622578567346,-0.00786907970873,0.0729115463677,-0.0387872399504,-0.146839535305,-0.103129461395,0.107236239133,-0.0118919315199,-0.252902495157,3.5386068821,0.461624264717,-0.434770703316,-0.41614151001,1.52080631256,-0.517162322998
2017/07/09/10:18:35.653377,510032,1499566718,459714716,,0.79526811373,-0.0256131436773,0.0467274251169,0.779991621309,0.621585739042,-0.00760627160778,0.0720165560085,-0.0364337839632,-0.150606098682,-0.106124475053,0.0799149914798,-0.0190700248745,-0.251623577694,3.53790283203,0.327124536037,-0.528446614742,-0.393684327602,1.57634103298,-0.557609975338
2017/07/09/10:18:35.663093,510033,1499566718,469706693,,0.794775643588,-0.0277838151026,0.0462395507895,0.780506803241,0.620897285923,-0.00811896761558,0.072317168032,-0.0620571919787,-0.187776311479,-0.100949542847,0.0252526397975,0.0275181539102,-0.255434307319,2.27443361282,0.335740685463,-0.378608465195,-0.288351386786,1.10485780239,-0.487613797188
2017/07/09/10:18:35.673309,510034,1499566718,479715062,,0.794085882324,-0.0292790931417,0.0454918554357,0.781182260513,0.620085938999,-0.00827596313931,0.0719667461369,-0.0754847906414,-0.193625131615,-0.0874024724837,0.0121647369454,0.0543243357387,-0.233908037199,1.49049532413,0.184856384993,-0.120643295348,-0.0714339613914,0.808199822903,-0.392213046551
2017/07/09/10:18:35.683092,510035,1499566718,489702671,,0.793787565732,-0.0304734760327,0.0450444723883,0.781827394714,0.619300612504,-0.00794886250418,0.0717599596709,-0.0778940951217,-0.158080439862,-0.0994591999384,0.0355005369439,0.0755577745171,-0.185498755776,1.34986913204,0.223841041327,-0.235313281417,-0.163417637348,0.787098050117,-0.439930081367
2017/07/09/10:18:35.692878,510036,1499566718,499704990,,0.792003689358,-0.0328314897906,0.0434318462016,0.782867006868,0.618065947603,-0.00908471226266,0.0709309662556,-0.0736677839236,-0.140386631056,-0.102346186106,0.0532341172846,0.0692003524155,-0.204914124041,1.97012507915,0.20673301816,-0.242895662785,-0.22389946878,1.03655481339,-0.49191737175
2017/07/09/10:18:35.703153,510037,1499566718,509707323,,0.791892934668,-0.0335257595238,0.0424521729825,0.783192617394,0.617706669377,-0.00852429306526,0.0705346091943,-0.0738721967068,-0.157517308202,-0.0869680344643,0.0492083542616,0.0498005857736,-0.228745718578,2.3449037075,0.0797933638096,-0.237708002329,-0.186060070992,1.21146714687,-0.53189176321
2017/07/09/10:18:35.713330,510038,1499566718,519710580,,0.791158746938,-0.0342915861093,0.0415866970973,0.783344356198,0.617574971183,-0.00864463459325,0.0699860334193,-0.081118542438,-0.146135879299,-0.0993356109461,0.0600325619936,0.0734292810258,-0.204231694412,2.70047736168,0.0386013686657,-0.372888535261,-0.160502821207,1.35207808018,-0.521771609783
2017/07/09/10:18:35.722960,510039,1499566718,529705418,,0.790442236884,-0.0359591287707,0.0407656089481,0.784033151832,0.61673754438,-0.00895905814126,0.0696171922613,-0.070923041699,-0.120995724011,-0.0970601490582,0.0639602528019,0.0670262549539,-0.139712751446,2.3362185955,0.182693779469,-0.365625679493,-0.233708769083,1.19311118126,-0.526270985603
2017/07/09/10:18:35.733165,510040,1499566718,539716810,,0.790015813578,-0.0378964499775,0.0401656953628,0.78420772949,0.616444645262,-0.0092011417733,0.0702109345121,-0.0549968295903,-0.135142552528,-0.0880009700324,0.0407417374634,0.025611600789,-0.129507995412,1.90353572369,0.103993415833,-0.218996077776,-0.0843334645033,1.02146983147,-0.426507532597
2017/07/09/10:18:35.742959,510041,1499566718,549702296,,0.789327819403,-0.0394135106762,0.0392250188017,0.78488388524,0.615606768393,-0.00934553703099,0.0699875298676,-0.0594874920383,-0.145995104041,-0.0911317683747,-0.014386341884,0.0393224404868,-0.0949758131468,1.86192655563,0.118390709162,-0.174978747964,-0.14725112915,1.02704238892,-0.433315694332
2017/07/09/10:18:35.753145,510042,1499566718,559709777,,0.789141796112,-0.0401963995276,0.0382838700603,0.78470527859,0.615840083362,-0.0089460000129,0.0699899032884,-0.0519625623551,-0.153460524026,-0.090543245476,-0.0231456047773,0.00593168052081,-0.0746451753615,1.80726027489,0.0145702064037,0.0325150936842,-0.0642852932215,0.994396269321,-0.387758433819
2017/07/09/10:18:35.763206,510043,1499566718,569702371,,0.788866342616,-0.042217692606,0.0372998897069,0.784623856679,0.615882290299,-0.00914617291108,0.0705035853528,-0.0359601209541,-0.137069744499,-0.0968237367954,-0.0314130043279,-0.016007459277,-0.000246071876913,1.79860007763,0.095567047596,0.0629562363029,-0.162151053548,1.01305019855,-0.416557610035
2017/07/09/10:18:35.773130,510044,1499566718,579710053,,0.788298899565,-0.0436749201939,0.036430106163,0.784333492662,0.616238014987,-0.00936142463469,0.0705977683891,-0.0300681564837,-0.164315520969,-0.0897942851392,-0.0605390827392,-0.0449049957041,0.0244828076261,1.8692946434,0.104926913977,0.244573026896,-0.0982922762632,1.02774810791,-0.425185799599
2017/07/09/10:18:35.782998,510045,1499566718,589706112,,0.787823123585,-0.0452169926847,0.0354593391184,0.784051749625,0.616554626874,-0.00954049424838,0.0709381770242,-0.0225705456408,-0.159057778546,-0.0785406790838,-0.0852966249825,-0.0539014588733,0.0759438441992,0.41903424263,-1.39947235584,-0.0573791563511,0.182808324695,0.591893255711,-0.309346497059
2017/07/09/10:18:35.792999,510046,1499566718,599706617,,0.788373226391,-0.0451794431669,0.0345310104286,0.783738637666,0.616945698834,-0.00869739846449,0.0711063132234,-0.0214424896447,-0.149675651205,-0.0846172683998,-0.0417209457727,-0.0633491525957,0.0385827921209,1.49115788937,0.404926329851,0.319911599159,-0.178933277726,0.901585936546,-0.38277938962
2017/07/09/10:18:35.802952,510047,1499566718,609705537,,0.788121878683,-0.0468549495709,0.0341012504989,0.783955707768,0.616646577211,-0.00839593703835,0.0713439227488,-0.0150588349095,-0.114583066829,-0.0840481100504,-0.0071342714437,-0.0614948892046,0.0579483660442,0.999348402023,0.271274805069,0.706516027451,-0.0550360009074,0.72807508707,-0.259835153818
2017/07/09/10:18:35.813181,510048,1499566718,619709215,,0.787688609647,-0.0485389571606,0.0333900254528,0.783755660323,0.616855422868,-0.00863507961241,0.071706956361,-0.020545358387,-0.140420150139,-0.0782555307217,0.0148685513505,-0.0765357552047,0.0176253172669,0.253422915936,-0.481940150261,0.612117946148,0.0932327881455,0.571819007397,-0.210677236319
2017/07/09/10:18:35.823003,510049,1499566718,629704000,,0.787590208423,-0.0495687958618,0.0326480075482,0.783350200719,0.617354843252,-0.00835908012194,0.0718720135112,-0.0238674476834,-0.136642864902,-0.0852233533383,0.00992038719033,-0.0508463463774,0.0573551923652,0.268701851368,0.34707826376,0.391743212938,-0.144164547324,0.274929255247,-0.194747716188
2017/07/09/10:18:35.833268,510050,1499566718,639732813,,0.787500881991,-0.0507343162741,0.0316209193603,0.783679587994,0.616954866845,-0.00748122966814,0.0718124421021,-0.0382037567736,-0.141638453177,-0.0834059488415,0.0132330252206,-0.0321888653403,0.0322466348008,-0.061894249171,0.242694109678,0.495226979256,-0.272314727306,-0.0665142089128,-0.148682802916
2017/07/09/10:18:35.843676,510051,1499566718,649711401,,0.786833172072,-0.0515921075749,0.0303478672589,0.783547536736,0.617130908747,-0.00791561737044,0.0716940872379,-0.0303907501391,-0.125725323885,-0.0857659433239,0.00967120629813,-0.0515624560266,0.02618356404,0.471743553877,0.0882681906223,-0.464508026838,-0.132035404444,0.204651251435,-0.165163755417
2017/07/09/10:18:35.853212,510052,1499566718,659707264,,0.787069078494,-0.0531895687373,0.0299104244485,0.783978355356,0.616515908389,-0.00701674431758,0.072366002618,-0.0238203607945,-0.128892093058,-0.0938098650517,0.0164796660711,-0.090855527486,-0.086126399864,2.35979175568,-0.791124820709,-0.165122687817,0.113618709147,0.905247926712,-0.235581591725
2017/07/09/10:18:35.863094,510053,1499566718,669708101,,0.787371412672,-0.0534987028791,0.0294442515789,0.784562325484,0.615772306981,-0.00611550892909,0.0724501479374,0.00610882764875,-0.124327769233,-0.0794897451354,0.0124060761516,-0.155709617177,-0.113512367288,3.39437174797,-0.751164376736,0.428062886,0.23067471385,1.30603325367,-0.270009696484
2017/07/09/10:18:35.873113,510054,1499566718,679710211,,0.786489398027,-0.0559882062919,0.0280776752337,0.785186265906,0.614956356904,-0.00608899929326,0.0726232127077,-0.0215748486129,-0.132494480598,-0.0984658804262,0.0134465696869,-0.107806722578,-0.149023642318,2.73027968407,-1.08674180508,0.0620181486011,0.286814659834,1.20967257023,-0.264978945255
2017/07/09/10:18:35.883117,510055,1499566718,689702473,,0.786107909578,-0.0572360346174,0.0272916701458,0.785917832872,0.614011276929,-0.0059674252598,0.0727165841717,-0.0247429890891,-0.132270188289,-0.0847824266933,0.0123180306274,-0.0967716497214,-0.18553982182,1.65641355515,-0.790103197098,0.506973564625,0.108850039542,0.77257668972,-0.233226895332
2017/07/09/10:18:35.892923,510056,1499566718,699740948,,0.785773450247,-0.0586543629211,0.026507601571,0.786572167098,0.613161346162,-0.00562732277356,0.0728403923504,-0.0283132281748,-0.137238403132,-0.082844047776,0.0159565543105,-0.0833246398652,-0.172460790528,1.45446634293,-0.584369063377,0.419491320848,0.0906102284789,0.714040100574,-0.22301697731
2017/07/09/10:18:35.903250,510057,1499566718,709701733,,0.785723161472,-0.059699807861,0.0258277049789,0.786469254487,0.613253901788,-0.00541633982871,0.0731876147364,-0.0347587358997,-0.122432613988,-0.0920277773795,0.0426342767624,-0.0597965691646,-0.150112781753,3.18703126907,0.321828484535,0.878957867622,-0.418265074492,1.32251799107,-0.353577703238
2017/07/09/10:18:35.913028,510058,1499566718,719703729,,0.784519151523,-0.0598379679233,0.0241200365935,0.786426264915,0.613466086518,-0.0056746634772,0.0718393258494,-0.0378733470453,-0.0818653608653,-0.0920096573915,0.0627251733766,-0.009284051373,-0.0146698606824,3.36183428764,0.191289305687,-0.127145990729,-0.524929285049,1.47910356522,-0.42198163271
2017/07/09/10:18:35.922901,510059,1499566718,729703475,,0.784663092685,-0.0609431022663,0.0239233215595,0.78627919789,0.613598552949,-0.0054748078491,0.0723316339043,-0.0584097022234,-0.0833773106922,-0.0932612153454,0.0548149639265,0.0560538064827,0.0123827264288,4.4065451622,-0.0855901315808,-0.11868993938,-0.48763859272,1.8056268692,-0.474329829216
2017/07/09/10:18:35.933214,510060,1499566718,739708664,,0.783565565074,-0.062494801474,0.0228985579205,0.786411869339,0.61348760224,-0.00576175544275,0.0718062381314,-0.0776432978433,-0.104694805523,-0.0881452409161,0.0376487372767,0.0796848798574,0.0011149731619,3.85647726059,-0.607756793499,-0.514987707138,-0.156457036734,1.6223076582,-0.372692167759
2017/07/09/10:18:35.943110,510061,1499566718,749704753,,0.783056604427,-0.0634972948919,0.0226145120471,0.786784150766,0.613045720562,-0.00577663574792,0.0715001754042,-0.08508562892,-0.116242375536,-0.0908305894939,0.0393743549357,0.086400846027,-0.0264404604426,3.50938892365,-1.25011193752,0.0711460113525,0.13911870122,1.46474444866,-0.325092732906
2017/07/09/10:18:35.953093,510062,1499566718,759709023,,0.781501638823,-0.0632422179052,0.0206189456545,0.786429481992,0.6136858649,-0.00626543196954,0.0698503646253,-0.0951525211419,-0.102688232902,-0.0985918355975,0.0646015639612,0.116213009019,-0.0618881111768,3.22393298149,-0.433438360691,-0.400481343269,0.183785974979,1.36146640778,-0.27837651968
2017/07/09/10:18:35.963088,510063,1499566718,769707348,,0.780363831931,-0.0649200367702,0.0198656895627,0.786438467851,0.613680752355,-0.00731515011592,0.0696918865619,-0.0789067277594,-0.0857618999393,-0.0951251477838,0.0474260550658,0.106005726961,-0.0156916320747,1.8299857378,-1.05135166645,-0.252590954304,0.228095948696,0.969610929489,-0.23037648201
2017/07/09/10:18:35.973102,510064,1499566718,779702647,,0.779899405868,-0.0655893600153,0.018892218716,0.786753446322,0.613328550133,-0.00718403799383,0.0692495046267,-0.11080580023,-0.0970962980625,-0.107337340816,0.0576487124629,0.157537623689,-0.0273258422209,2.05202651024,-0.126591622829,0.639425694942,0.0302023589611,0.973512113094,-0.247860774398
2017/07/09/10:18:35.983240,510065,1499566718,789703208,,0.77915397061,-0.0655051122536,0.0181008253019,0.786499987811,0.613770418485,-0.00728992772991,0.0681945710389,-0.0907248573658,-0.0832921641551,-0.091841486475,0.0733350733208,0.118948771632,-0.0222411690036,1.38132548332,-0.0636873841286,0.555285990238,-0.0126801803708,0.763570427895,-0.232853800058
2017/07/09/10:18:35.992918,510066,1499566718,799702911,,0.77805467184,-0.0674899493981,0.0171704450144,0.786486335705,0.613798119114,-0.00791263599925,0.0680331015945,-0.0871215874012,-0.0788355927596,-0.103573373096,0.0618455693628,0.126433546047,0.0540921790561,1.89802122116,-0.990872383118,0.634345650673,0.0570424944162,1.05594801903,-0.283818095922
2017/07/09/10:18:36.003065,510067,1499566718,809704261,,0.777732180826,-0.0678976896809,0.0164176900324,0.786065927083,0.614372024192,-0.00782237446799,0.0677213749611,-0.0930408374038,-0.0670798216351,-0.107002597041,0.0578882812935,0.155324298851,0.125145402359,2.73991537094,-0.984966218472,0.745585858822,0.177282035351,1.32221627235,-0.333395719528
2017/07/09/10:18:36.013166,510068,1499566718,819707521,,0.777049452159,-0.0682255194218,0.0155791700246,0.785488860773,0.615193428872,-0.00789688605889,0.0669472468819,-0.0896695088393,-0.0917561375447,-0.0966946108132,0.0435594058853,0.130532664648,0.139116128987,3.08123230934,-1.0181094408,0.604111433029,0.353678166866,1.38140749931,-0.250842601061
2017/07/09/10:18:36.023126,510069,1499566718,829705521,,0.775277451699,-0.0689318587144,0.0140620714461,0.785676168133,0.615089802533,-0.00864933828967,0.0655948366495,-0.0876475438071,-0.084177903309,-0.0915896395464,0.0506994308823,0.133060627904,0.126380410288,2.54372358322,-0.794375777245,0.578471302986,0.235511153936,1.28969717026,-0.303038179874
2017/07/09/10:18:36.032923,510070,1499566718,839711157,,0.774247325862,-0.0702788466592,0.013022707631,0.786163093334,0.614499515579,-0.00911433988413,0.0652293250102,-0.0999865882822,-0.0836064743289,-0.107044642995,0.0721694485003,0.135958542847,-0.0320191951285,2.81901955605,-1.20500326157,0.0476338416338,0.280054032803,1.40686905384,-0.322473853827
2017/07/09/10:18:36.043039,510071,1499566718,849703852,,0.773009631298,-0.0711377543975,0.0118856971593,0.786548439879,0.614097707356,-0.00958130215183,0.0642942936289,-0.0937680337565,-0.0867621763343,-0.107990757634,0.092034382582,0.103715387914,-0.175118399221,3.28705191612,-1.00211691856,-0.0622468777001,0.246657043695,1.64949274063,-0.355118393898
2017/07/09/10:18:36.053108,510072,1499566718,859709128,,0.773899932885,-0.0708925764175,0.0118103354974,0.786661337408,0.613936696337,-0.00864186573229,0.064583212019,-0.0707759844282,-0.0666342514487,-0.0891525631913,0.0795997589466,0.0734265422072,-0.125447834327,3.8139629364,-0.829261422157,0.501887202263,0.100395977497,1.79509210587,-0.413289487362
2017/07/09/10:18:36.063108,510073,1499566718,869707909,,0.772340857021,-0.0728070752805,0.0106206006141,0.787645209767,0.612734113176,-0.00908263891593,0.0639486962401,-0.0718485569789,-0.0737592041185,-0.0877793518362,0.0705037731482,0.0662001202556,-0.157943701105,3.43180918694,-1.02654349804,0.34280654788,0.229066357017,1.66137373447,-0.367506593466
2017/07/09/10:18:36.073278,510074,1499566718,879706570,,0.771450589213,-0.0731445891196,0.00965931238518,0.788159210124,0.612154401852,-0.00924945007199,0.0631387002096,-0.0950278297607,-0.0680160595198,-0.106884725401,0.0779557039307,0.122479564536,-0.141090967211,3.92177700996,-1.73780536652,0.257412016392,0.391554474831,1.85803949833,-0.405234456062
2017/07/09/10:18:36.083058,510075,1499566718,889701880,,0.771242092034,-0.0733116756593,0.00888356970645,0.788125114203,0.612212694257,-0.00959331420387,0.06294751524,-0.0768253184683,-0.0694950681074,-0.0914642842545,0.0516113076237,0.0950657245636,-0.10927877294,3.92429590225,-0.79016315937,-0.0696751996875,0.330865204334,1.79192399979,-0.375865161419
2017/07/09/10:18:36.093306,510076,1499566718,899708009,,0.770332290997,-0.074429022229,0.00822064034411,0.788447311073,0.61183423297,-0.00976965987215,0.0625640693441,-0.0680993988809,-0.0587664351754,-0.0919776634934,0.0567165641441,0.085411093335,-0.102888248212,4.61869859695,-1.48110079765,-0.0359597094357,0.340490579605,2.11245679855,-0.462942779064
2017/07/09/10:18:36.102922,510077,1499566718,909703370,,0.769769369409,-0.0750375874146,0.007261925149,0.788895102818,0.611290920442,-0.00997479310171,0.062196710828,-0.0624246286072,-0.0839876677087,-0.084002300065,0.0496138719977,0.0337010164303,-0.140626333529,5.0706653595,-1.54316401482,0.056648787111,0.472173959017,2.2320561409,-0.442713916302
2017/07/09/10:18:36.113339,510078,1499566718,919736690,,0.769203844944,-0.0757135861496,0.00611629110557,0.789541344997,0.61050840934,-0.00958300077421,0.0617423093307,-0.0639609706742,-0.0608264546756,-0.0951310617813,0.0694204236328,0.0479198887029,-0.121324570182,4.92686653137,-1.81815207005,0.0634326413274,0.424268573523,2.14508152008,-0.428227454424
2017/07/09/10:18:36.123457,510079,1499566718,929704826,,0.768396055921,-0.0759863038605,0.00492487398892,0.789582472759,0.610512617574,-0.00997239137149,0.06110985113,-0.0476652225977,-0.0563430463207,-0.0881610334967,0.0640614854949,0.0234652610051,-0.10125567327,4.76470470428,-1.60229945183,-0.584550738335,0.48048505187,2.10001754761,-0.404217451811
2017/07/09/10:18:36.133089,510080,1499566718,939725950,,0.768628916044,-0.077065512798,0.00463393958735,0.789799692911,0.61018127573,-0.00943764799432,0.0616942997864,-0.0342723586242,-0.0411949753228,-0.0859579540003,0.0604178543172,0.00743849043544,-0.075857564295,5.4071149826,-2.03043460846,-0.205493062735,0.551290333271,2.31974887848,-0.430080771446
2017/07/09/10:18:36.142962,510081,1499566718,949704888,,0.767466190707,-0.0771404392748,0.00357264523189,0.790272559434,0.60967109959,-0.0099949955021,0.0605849172305,-0.044092497204,-0.0761087861938,-0.0700463337805,0.0365301187268,0.00269840523641,-0.108709508378,5.38342952728,-1.46937692165,-0.36062553525,0.324885606766,2.33695745468,-0.488585025072
2017/07/09/10:18:36.153154,510082,1499566718,959708238,,0.76753066782,-0.0777576428093,0.00287188769717,0.790349667648,0.609552937128,-0.00960070570546,0.0608312924193,-0.0354908134599,-0.0423520152313,-0.0799018509084,0.0429116979469,0.00956161257571,-0.105622379231,5.25717639923,-1.86923348904,-0.0545560233295,0.508896052837,2.23421168327,-0.440079569817
2017/07/09/10:18:36.162984,510083,1499566718,969710603,,0.767933003932,-0.0779865897194,0.00292096475003,0.79049174277,0.609317052471,-0.0093490728281,0.0613850879067,-0.020151929519,-0.0613634040836,-0.0688353921133,0.0297555404041,-0.0439234169272,-0.109412578057,5.14294242859,-1.37940585613,0.460483521223,0.364199340343,2.20013260841,-0.454722881317
2017/07/09/10:18:36.173273,510084,1499566718,979715325,,0.767154194184,-0.0786466337159,0.00161737699099,0.790759610814,0.609015389752,-0.00934744965192,0.0609271543382,-0.00472457615184,-0.045377839352,-0.0555340757224,0.0151322501972,-0.0557929320988,-0.0450908963114,4.97327470779,-1.32970571518,-0.00215434655547,0.390083581209,2.14902210236,-0.442048728466
2017/07/09/10:18:36.183457,510085,1499566718,989707675,,0.766709303092,-0.0789769860002,0.000657882355379,0.790971625141,0.608773560682,-0.00955204126221,0.0605590500615,-0.00879623882855,-0.0339929208606,-0.0740518204424,0.0376598876139,-0.0469263289986,-0.0476673327459,4.42544698715,-1.41093480587,0.0696958675981,0.442481994629,1.98379516602,-0.38357552886
2017/07/09/10:18:36.193032,510086,1499566718,999706157,,0.767727670536,-0.0791362803042,0.00114723456588,0.791282746349,0.608336734004,-0.0079841153036,0.0611088151945,-0.020582126147,-0.0481663469256,-0.0647872727597,0.0465208241444,-0.0318946856959,-0.0831906147236,5.12811422348,-1.17847049236,0.790899276733,0.212884873152,2.13590979576,-0.459643483162
2017/07/09/10:18:36.203047,510087,1499566719,9702005,,0.766868725924,-0.0797516457491,-0.000144838545378,0.791565883512,0.608002424552,-0.00834007426835,0.0607202351825,-0.0238927363218,-0.0395797328426,-0.0638228788564,0.0428542152176,-0.0176210637919,-0.0561617568002,4.54721736908,-1.08510065079,0.515691876411,0.0947027653456,1.96412527561,-0.450682997704
2017/07/09/10:18:36.213242,510088,1499566719,19710414,,0.767044873909,-0.079201249543,-0.000764175272445,0.791513497752,0.608099817792,-0.00789711004211,0.060486611164,-0.0202548890171,-0.0261690708829,-0.0704199217865,0.0459539668845,-0.0154425728618,-0.0442337181218,5.1658821106,-1.19772875309,0.373132407665,0.286492019892,2.06929707527,-0.437218248844
2017/07/09/10:18:36.222892,510089,1499566719,29707772,,0.766972635658,-0.0807551907878,-0.000394731825141,0.791976837952,0.607423301088,-0.00784984561021,0.0612209226293,-0.0109605820763,-0.0207042869316,-0.0504971849995,0.0270717341421,-0.026534565018,-0.0406030595484,5.32038593292,-2.54716706276,0.933430850506,0.79830300808,2.1358268261,-0.364891946316
2017/07/09/10:18:36.233036,510090,1499566719,39707787,,0.766600957714,-0.0806760934129,-0.00103727422473,0.792297391009,0.60706082129,-0.00765967579769,0.0606904673033,-0.0214803513065,-0.0483131635759,-0.0402677811721,0.0219467039199,-0.0243467855573,-0.0786744662853,4.61065721512,-3.2802567482,0.912805497646,1.31418442726,1.82935869694,-0.214596301317
2017/07/09/10:18:36.242912,510091,1499566719,49709002,,0.76694129351,-0.0807347063308,-0.00101232893211,0.791949215846,0.607486014014,-0.0072344527075,0.0610315081906,-0.0188976403517,-0.0322179709075,-0.0397918343854,0.0414834020632,-0.0220995979061,-0.0442379779009,4.06830692291,-3.0476307869,0.186750710011,1.28310763836,1.621737957,-0.21514941752
2017/07/09/10:18:36.253118,510092,1499566719,59705873,,0.765871127612,-0.080948234485,-0.00233439498629,0.792376135078,0.60700264646,-0.00763874082945,0.0602453100895,-0.0382602736715,-0.0144248339786,-0.052684811924,0.0603878699143,0.0285486216701,-0.0271715027379,3.91508603096,-2.93535137177,0.250272661448,1.26561141014,1.62937963009,-0.197516992688
2017/07/09/10:18:36.263282,510093,1499566719,69729691,,0.766448260733,-0.0802664553984,-0.00209996902121,0.792145978668,0.60731855329,-0.00671786164256,0.0601979538255,-0.0333592228297,-0.0113946537338,-0.0428021938954,0.0665645621076,0.00736425810931,-0.0641350103796,5.08953475952,-2.29386520386,0.584734141827,0.881408452988,2.1029009819,-0.381593763828
2017/07/09/10:18:36.273230,510094,1499566719,79710123,,0.766064528453,-0.0811040474045,-0.00259956266876,0.792659187795,0.606644348618,-0.00674459990019,0.0602375021615,-0.0267101287705,-0.0191968933327,-0.049098435183,0.0614646284572,-0.0132686689757,-0.0698853204298,4.95275735855,-2.30036592484,0.984032988548,0.799138844013,2.15691828728,-0.381505012512
2017/07/09/10:18:36.283103,510095,1499566719,89702312,,0.765475682447,-0.0802740784188,-0.00356133039042,0.793035374034,0.606283478081,-0.00619840322255,0.0589645616845,-0.0149381693988,0.00956843920784,-0.0407382299806,0.111159729788,-0.0322336891565,-0.0485475645399,5.30977106094,-1.81882345676,0.753831982613,0.588251173496,2.40839028358,-0.444734334946
2017/07/09/10:18:36.293262,510096,1499566719,99707565,,0.765040484987,-0.0810529873375,-0.00396451451174,0.792990206057,0.606329555135,-0.00644262827739,0.0590719578854,-0.0182468361095,-0.00572899162373,-0.0312073300999,0.0963783954061,-0.0338285797507,-0.0767062788346,4.32928323746,-1.71143686771,0.617420375347,0.606636226177,2.03931093216,-0.372896969318
2017/07/09/10:18:36.303272,510097,1499566719,109702867,,0.765839129474,-0.0816544132779,-0.00319601357217,0.793179578538,0.605984308067,-0.00559801987732,0.0601484558356,-0.00260026236719,-0.007421214852,-0.0298803502693,0.0626562608757,-0.0609664243407,-0.0449132631032,4.66198444366,-1.51188635826,1.23925614357,0.530012905598,2.02070116997,-0.388386130333
2017/07/09/10:18:36.313036,510098,1499566719,119709620,,0.765906091511,-0.0804921134675,-0.00404325051782,0.792958814782,0.606324889812,-0.00528714029974,0.0596530988453,-0.00265290974649,-0.0171698368011,-0.0337583279957,0.0454479472433,-0.0680126217274,-0.0414568992689,3.86408734322,-1.15757572651,1.22109127045,0.339183747768,1.77353584766,-0.390556037426
2017/07/09/10:18:36.322971,510099,1499566719,129702687,,0.766108613911,-0.0811439697135,-0.00388036056371,0.792993630863,0.606245215158,-0.00462755359041,0.0600535282687,0.00189783556708,-0.0169821167774,-0.0189544536686,0.0307702722827,-0.0669450838424,-0.04219776354,3.76883006096,-0.869960069656,1.08307468891,0.369920551777,1.74141204357,-0.352129995823
2017/07/09/10:18:36.333129,510100,1499566719,139713632,,0.766094767813,-0.0813660192781,-0.00399179407592,0.79340753049,0.605690930397,-0.00445067542111,0.0601928474562,0.00175218458785,-0.0279085174271,-0.0167323124549,0.019705737962,-0.0841568715892,-0.0344756116388,3.34258341789,-0.861593425274,1.7278803587,0.229453608394,1.53878974915,-0.380814701319
2017/07/09/10:18:36.343378,510101,1499566719,149707237,,0.766132849858,-0.0819425082697,-0.00405908094111,0.793551211423,0.605449618363,-0.00419635037767,0.06074228442,0.017809827793,-0.0159177690231,-0.00838537348099,-0.00422703975527,-0.105285619435,-0.00780434203712,3.537525177,-1.29364311695,0.892530798912,0.338425397873,1.66463851929,-0.374988257885
2017/07/09/10:18:36.353197,510102,1499566719,159711828,,0.765764245551,-0.0821090759188,-0.00475485360617,0.793511004403,0.605530472703,-0.00421984982232,0.0604592870182,0.00552207749302,-0.0239632034875,-0.0174994080292,-0.0118402961494,-0.0816321525478,-0.0180726273345,3.10595798492,-1.43318903446,0.943924248219,0.276023447514,1.49051308632,-0.36865901947
2017/07/09/10:18:36.363336,510103,1499566719,169701334,,0.765950882662,-0.0815236487015,-0.00492653699961,0.793639490508,0.605373069581,-0.00356755387433,0.0603910447917,0.00734667674684,-0.0224980409468,-0.016353974535,-0.0101142025418,-0.0875836195852,-0.0259380318819,3.16438221931,-0.831500768661,0.549183130264,0.232027828693,1.40334618092,-0.335788965225
2017/07/09/10:18:36.373418,510104,1499566719,179708805,,0.766605399649,-0.0824749684247,-0.00439696003852,0.793646628673,0.605251968168,-0.00283405625959,0.061539027863,0.0209433635996,-0.0106304582778,-0.00480381133153,0.0115497139119,-0.114102952038,-0.00415292899701,2.48080921173,-0.915032505989,0.418813884258,0.203932672739,1.09867954254,-0.289645433426
2017/07/09/10:18:36.382962,510105,1499566719,189704883,,0.766097939901,-0.082168552708,-0.0050058965892,0.793568993176,0.605387679566,-0.0031103726303,0.06119098039,0.0219170324887,-0.0172199189018,-0.00979124946768,-0.00516013513409,-0.117970545021,-0.00395484385388,2.322224617,-1.12294220924,0.158317431808,0.288930475712,1.08857142925,-0.276379704475
2017/07/09/10:18:36.393136,510106,1499566719,199701200,,0.766399535627,-0.0820790447469,-0.00504273353809,0.793682065605,0.605234475791,-0.00241034868584,0.0612715127092,0.0184769266901,-0.0154696714853,-0.00348758138019,-0.00806928255946,-0.108552612079,-0.022938266874,2.44697189331,-0.350753605366,-0.01825177297,0.0132583975792,1.09272909164,-0.318437278271
2017/07/09/10:18:36.403273,510107,1499566719,209706631,,0.766546300917,-0.0826599010363,-0.00494599719156,0.793292980108,0.605654155918,-0.00256648193216,0.0621506580981,0.00635394751643,-0.015224828848,-0.0198499032265,-0.00444040580187,-0.0799346005065,0.018607558369,2.87268328667,-0.927227854729,-0.329868793488,0.163890108466,1.314406991,-0.329601764679
2017/07/09/10:18:36.413002,510108,1499566719,219710667,,0.767004948391,-0.082527900363,-0.00525996144379,0.793562065171,0.605278856217,-0.00180714923809,0.0623978296896,0.00937403154273,-0.00954983684112,-0.0162105211837,-0.00169932583824,-0.0869482269231,-0.0105307876629,3.41794300079,-1.09645760059,0.00115017220378,0.168623447418,1.48523080349,-0.35266405344
2017/07/09/10:18:36.423064,510109,1499566719,229734985,,0.767061270456,-0.0825272335469,-0.00548479861179,0.793413732823,0.605449706684,-0.00175521351635,0.0626276334308,0.0154347489299,0.00479211285534,-0.0186744429174,0.0195356943537,-0.0821381602829,0.000638723852006,3.60754299164,-1.05842041969,-0.249244585633,0.326127827168,1.51439011097,-0.316249907017
2017/07/09/10:18:36.432822,510110,1499566719,239703055,,0.766082018344,-0.0836027326661,-0.00570590337442,0.794008262127,0.604696148202,-0.00192631894675,0.0623677586464,0.00878607642231,0.00119684270656,-0.0217235708949,0.00558019039761,-0.0540274364646,0.0142382634491,2.74361991882,-1.10992574692,-0.160684257746,0.158782884479,1.25105249882,-0.329173445702
2017/07/09/10:18:36.442985,510111,1499566719,249702870,,0.767668742523,-0.0820740329161,-0.00551700788516,0.793108471319,0.605838650319,-0.000824477077329,0.0627519142335,0.00141861272534,-0.0307654381429,-0.015618274908,-0.0433295745508,-0.0517431698087,0.000432057031861,2.35634636879,-0.23592543602,-0.0538944080472,0.0456894487143,0.949852108955,-0.261089622974
2017/07/09/10:18:36.453148,510112,1499566719,259727021,,0.766959314165,-0.083407703778,-0.00575651968167,0.793466295755,0.605328477555,-0.0010923820607,0.063146484165,0.00314313135667,0.0180922223743,-0.0252261698789,0.00561324790347,-0.0339532475449,0.0410658024394,1.86131632328,-0.372212231159,-0.206174135208,0.00767841935158,0.787957727909,-0.259651362896
2017/07/09/10:18:36.463237,510113,1499566719,269702749,,0.766455139735,-0.0822843721045,-0.00671431910844,0.79343084957,0.605467715052,-0.00105478383645,0.0622512683489,0.00596315507989,0.00480034946163,-0.0216089975727,0.00330721727516,-0.0441280409504,0.0187213313612,1.90311908722,-0.51548075676,-0.197034090757,0.182517319918,0.869446277618,-0.262741863728
2017/07/09/10:18:36.473285,510114,1499566719,279706925,,0.766728568169,-0.0832714406417,-0.0065460532359,0.793594109066,0.605164163078,-0.00103115131808,0.0631162618422,-0.0151592386326,-0.0126637482393,-0.0289981072241,-0.0101473197289,-0.0105922815457,-0.0312734466414,2.7958073616,-1.05716812611,-0.115641497076,0.371188402176,1.23644638062,-0.269682765007
2017/07/09/10:18:36.482907,510115,1499566719,289705031,,0.766729629262,-0.0832049712769,-0.00654590667569,0.793626176685,0.605127904527,-0.000658786647369,0.0630656550193,-0.00547150759072,-0.0135401219487,-0.019827143234,-0.0139462494374,-0.0216118540253,-0.00740023363087,2.5089673996,-1.04416155815,0.480983972549,0.472753226757,1.07185733318,-0.231377258897
2017/07/09/10:18:36.493129,510116,1499566719,299703216,,0.766330395588,-0.0826639633974,-0.007207996771,0.793481742665,0.605359461009,-0.000970940392832,0.0626554410994,0.00507756951005,0.0154943909775,-0.0178905204888,0.0125352918374,-0.0341228367342,0.0163948857067,2.10487961769,-0.545541286469,-0.286865979433,0.252932429314,1.00163602829,-0.220903337002
2017/07/09/10:18:36.502998,510117,1499566719,309705766,,0.766864133189,-0.082019652116,-0.00736819516061,0.793175599173,0.605748605094,-0.000598840398568,0.0627752952431,-0.00632113586062,0.0281275039844,-0.0359478402594,0.0433634020827,-0.0012723245138,0.0349534491818,1.79727506638,-0.0755605399609,0.0474114529788,0.144158616662,0.855997562408,-0.235178515315
2017/07/09/10:18:36.513367,510118,1499566719,319713164,,0.766269750851,-0.0826428977486,-0.00785778012213,0.793404889784,0.605446985577,-0.000846017742153,0.0627846539974,0.00409702954803,0.0147836179877,-0.028779003411,0.01247428119,-0.0265209861341,0.0155738829919,1.54265272617,-0.369766891003,-0.022706579417,0.231326699257,0.881821393967,-0.209931626916
2017/07/09/10:18:36.523219,510119,1499566719,329704532,,0.766882042155,-0.0826770154657,-0.00777429597664,0.793358341193,0.605462746019,-9.57292592646e-05,0.0632249672034,-0.0131947138868,-0.00154030484051,-0.0330806238055,-0.00582573228286,0.00488572762064,0.0120239904737,1.34036910534,-0.506856799126,0.704162955284,0.12085492909,0.772662520409,-0.264928728342
2017/07/09/10:18:36.532884,510120,1499566719,339703444,,0.766545107399,-0.0824759297616,-0.00814536124473,0.793088810472,0.605817612192,-0.000615635917621,0.0632042756017,0.0102522848757,0.020605069479,-0.0283582858223,0.00671327504586,-0.0314707279204,0.0276112957581,1.00753688812,-0.414325892925,0.347938030958,0.150403365493,0.611416757107,-0.224640637636
2017/07/09/10:18:36.543530,510121,1499566719,349707974,,0.767136870861,-0.0819291499841,-0.00805559755161,0.793009308108,0.605912258891,7.39970321407e-05,0.0632974431035,0.00217731575107,0.00283141281525,-0.0164663085543,-0.0172815688833,-0.0156273300971,0.0378306485162,0.961417198181,0.19338773191,0.515034854412,-0.00302223861217,0.487504303455,-0.229031175375
2017/07/09/10:18:36.553272,510122,1499566719,359708340,,0.767089727788,-0.0823600758265,-0.00784757762501,0.792825003834,0.60611298757,-0.000314630206365,0.0636824983923,-0.000183762077458,0.00807361028307,-0.023400719547,-0.00828163175479,-0.0122620995453,0.0349305584857,0.570280373096,-0.0097464621067,1.19095015526,0.118149742484,0.279832303524,-0.167580261827
2017/07/09/10:18:36.563195,510123,1499566719,369702435,,0.766498794871,-0.0825285606317,-0.00922088004752,0.792944529917,0.605999706968,-0.000223556147824,0.0632714600119,0.0146399607073,-0.00420044681201,-0.00796963230279,-0.0136258334459,-0.0559937042012,0.0168651612124,0.0840682983398,-0.167333364487,0.629233241081,-0.0173253640532,0.262421935797,-0.194791585207
2017/07/09/10:18:36.573085,510124,1499566719,379709904,,0.766811251832,-0.0819623782156,-0.00894636012244,0.792864312112,0.606084802694,-0.00010945529301,0.0634616619821,0.00190277261872,-0.00729200247137,-0.0249194279813,-0.0173121829989,-0.0361551211186,0.0197418569959,0.694860219955,0.552737355232,0.587388157845,-0.109290525317,0.512879431248,-0.256192296743
2017/07/09/10:18:36.583057,510125,1499566719,389704903,,0.767305286559,-0.0819577189119,-0.00891761869755,0.792683239323,0.60625300681,0.0002355714993,0.0641133241789,0.0134413485936,0.0239190814566,-0.0147397891363,0.00522424180183,-0.0453702167608,0.0445943791561,0.99547034502,-0.36430516839,0.573554873466,0.0666592121124,0.60247951746,-0.227766737342
2017/07/09/10:18:36.593308,510126,1499566719,399714232,,0.766836494803,-0.0818082788624,-0.00929231923675,0.792593016373,0.606422113029,0.000338347769669,0.0636271698815,0.000517086687807,0.0212843181584,-0.0339862085023,0.0082895044468,-0.0150738933892,0.0363133318274,1.06355047226,-0.496771872044,0.768566310406,0.214546978474,0.643095612526,-0.20593932271
2017/07/09/10:18:36.603001,510127,1499566719,409703599,,0.767110595142,-0.0819511109275,-0.00950715968629,0.79273663145,0.606195579414,0.000531798694077,0.0639942954202,-0.0105051922165,0.00932512166471,-0.0351369820359,0.0122580158195,-0.00528825641707,0.0266532422092,0.888042390347,-0.439453363419,0.84358727932,0.271672129631,0.475257843733,-0.129570707679
2017/07/09/10:18:36.613104,510128,1499566719,419703721,,0.767104073398,-0.0823037780789,-0.00977249791049,0.792716868389,0.606193099083,0.000422930567494,0.0642628533853,0.00895933858361,0.00110392284682,-0.0103229069301,-0.0165835446289,-0.0463281876606,0.00269104205107,1.20898520947,-0.581717133522,0.490196973085,0.219783455133,0.60148358345,-0.182255029678
2017/07/09/10:18:36.622945,510129,1499566719,429704516,,0.768001577236,-0.0811632519456,-0.0094433374608,0.791916233634,0.607202678688,0.00102084255225,0.0645952303292,0.0129696208805,-0.00721133861331,-0.00693961288003,-0.027553185677,-0.0491163630358,0.0410316721174,1.15880775452,0.195307791233,0.677685141563,0.0541968047619,0.548328280449,-0.208338975906
2017/07/09/10:18:36.632894,510130,1499566719,439716361,,0.766681855327,-0.0811543564698,-0.0106190069347,0.791998321533,0.607203001434,0.000349423203697,0.0635849954231,0.00494990683434,0.0160607155931,-0.0134911621752,0.000636591570302,-0.0268627657342,0.0513625158284,0.581382334232,-0.0844610929489,0.367221474648,0.176022529602,0.411889731884,-0.123847827315
2017/07/09/10:18:36.642973,510131,1499566719,449704929,,0.76757905005,-0.0812311788676,-0.0100045839431,0.792462378361,0.606521980047,0.00140177201894,0.064284536535,0.0117425557876,0.0201431631461,-0.0161075649452,0.0148282911741,-0.0392645840251,0.0109434807765,0.56886357069,-0.362025082111,0.505602300167,0.212780565023,0.39283490181,-0.140457734466
2017/07/09/10:18:36.653209,510132,1499566719,459710808,,0.767768430232,-0.0811917117414,-0.0100565303658,0.79223426903,0.606788583252,0.00144662940029,0.0645785217682,0.00496067303723,-0.000469703892292,-0.0253145124048,0.00705085419989,-0.0450477083117,-0.00258702555532,0.768151044846,-0.737713694572,0.707476377487,0.391666829586,0.445993125439,-0.0843855813146
2017/07/09/10:18:36.663343,510133,1499566719,469711772,,0.767398254168,-0.0808995408402,-0.0104210121314,0.792317628289,0.606720342893,0.00146456021841,0.0641954553337,0.0140893263096,0.00160794685902,3.46815965207e-05,-0.0303917368309,-0.0396661578773,0.0432352331126,1.01819205284,-0.177657008171,0.442557603121,0.205556690693,0.522535502911,-0.145853936672
2017/07/09/10:18:36.672952,510134,1499566719,479710144,,0.767432622934,-0.0814905931226,-0.00987756822918,0.792456844651,0.606494365777,0.00122413630626,0.0646160594434,0.00481635067764,0.0089031830691,-0.00302758051778,-0.00219038550584,-0.0242593444057,-0.000263001297259,1.18244683743,-0.752978920937,0.611360609531,0.347369670868,0.593838989735,-0.130772978067
2017/07/09/10:18:36.683109,510135,1499566719,489710155,,0.767076316488,-0.0809948093988,-0.0110379202111,0.7923219546,0.6067489658,0.00139444945401,0.0638722809227,0.00204722669576,0.00784122467087,-0.00919727441416,0.0260410149946,-0.0233116122041,-0.0179634826201,0.957115650177,-0.61250603199,0.313860446215,0.296919256449,0.579407572746,-0.145012259483
2017/07/09/10:18:36.693070,510136,1499566719,499706547,,0.767529417876,-0.0807968856939,-0.0107841534735,0.791795968655,0.607389603798,0.00163177519495,0.0642989154665,0.0039831705677,0.0152074649104,-0.012502894841,0.0122031960121,-0.0061689049833,0.0420272418675,1.1889373064,-0.309951394796,0.602281153202,0.2526730299,0.576839447021,-0.144032269716
2017/07/09/10:18:36.702921,510137,1499566719,509703215,,0.767087905301,-0.0814037627422,-0.010824171592,0.792038398173,0.607073832725,0.00122068873858,0.0643043339116,0.00254248342929,0.00165680916823,-0.00601714719103,-0.0223915995931,0.000820131482757,0.045466257002,0.93290412426,-0.377834796906,0.65896910429,0.17093770206,0.589589118958,-0.161934226751
2017/07/09/10:18:36.713417,510138,1499566719,519712295,,0.767553551272,-0.0806446709957,-0.0108315779339,0.792029717441,0.60709060737,0.00164459284474,0.064243415598,0.00850057484722,0.00859552127325,0.0017111007332,0.00359770969531,-0.0198488977764,0.0049962085536,0.833750963211,-0.49812155962,0.689297914505,0.182025432587,0.500543951988,-0.177684694529
2017/07/09/10:18:36.723094,510139,1499566719,529703366,,0.767494796229,-0.0797031738139,-0.0109285378078,0.791796525382,0.607453411463,0.00164175527073,0.0636861047301,0.0014663383938,-0.0129634990288,-0.00161902992552,-0.0202611814193,-0.00755836052246,-0.0120375921795,0.845174729824,0.148071065545,0.413084864616,0.0966510102153,0.568875432014,-0.16583737731
2017/07/09/10:18:36.733122,510140,1499566719,539710254,,0.7685577085,-0.0807553065474,-0.00986670526726,0.791917623712,0.607134971933,0.00192735822717,0.0651911681149,-0.00169126276755,-0.00520934898029,0.00284246032285,0.00237615505396,-0.00747267589135,-0.0287612482783,1.21878433228,-0.0532798469067,1.18143808842,0.108443677425,0.503985881805,-0.161952152848
2017/07/09/10:18:36.742978,510141,1499566719,549702687,,0.767853881449,-0.0816881078093,-0.0105749177263,0.792168553584,0.6068112294,0.00149125725635,0.0651681727422,0.00479373720228,0.00664866834306,0.0066420529812,0.005066741767,-0.001886353963,-0.00730426168361,0.483600348234,-0.456573724747,0.928687512875,0.207484334707,0.340523034334,-0.124419793487
2017/07/09/10:18:36.753261,510142,1499566719,559709184,,0.767547063511,-0.0806195633594,-0.0108686363113,0.792086979457,0.607011079821,0.00151165763866,0.0642921522406,0.00759155181293,0.0286586960899,-0.00484257381159,0.0316585157553,-0.0038840111845,0.00520158660774,0.840881705284,-0.470279991627,0.582758307457,0.173677414656,0.504898548126,-0.158102840185
2017/07/09/10:18:36.763180,510143,1499566719,569704013,,0.767632938961,-0.0809102831243,-0.0102972377288,0.792083387649,0.606987060262,0.00152179107556,0.0645623716778,-0.00718967773358,-0.0142834320462,-0.000699561301822,-0.0125820386827,0.0114088213966,-0.00137746392736,0.703947126865,-0.511106848717,0.714139163494,0.212582781911,0.439081072807,-0.146172001958
2017/07/09/10:18:36.773119,510144,1499566719,579706486,,0.767509080544,-0.0804690394299,-0.0108371724767,0.791982022783,0.607158203968,0.00141433932486,0.0641980574996,-0.00856320726753,0.00828672400426,-0.00638550079995,0.0113525585605,0.0172320025795,0.0133106567214,0.668999314308,-0.175651192665,0.48768144846,0.115540616214,0.450575917959,-0.164738297462
2017/07/09/10:18:36.782927,510145,1499566719,589706005,,0.767779171877,-0.0807990291792,-0.01041844231,0.79170817945,0.607467872126,0.00140265152527,0.064644995906,-0.00428399111387,0.00195819598222,-0.011624600539,0.00731200142928,0.00776164039167,0.010656806589,1.12420201302,-0.545649290085,0.482238560915,0.183122187853,0.614778161049,-0.190853849053
2017/07/09/10:18:36.793077,510146,1499566719,599710861,,0.76764992229,-0.0808577613267,-0.0105517103636,0.791845720717,0.607300489061,0.00155839271081,0.064529388502,0.000463095967649,-0.0121578292263,0.00304318234876,-0.0150350789146,-0.0087940951975,0.0111742266649,0.755079090595,-0.375175267458,0.581343054771,0.126736655831,0.469220012426,-0.151692867279
2017/07/09/10:18:36.802855,510147,1499566719,609701392,,0.768247569739,-0.0804198567346,-0.0101181159258,0.79186735137,0.607250928278,0.0020197115719,0.0647172983439,0.0101366972361,0.00600532814092,0.00531042395908,0.00864447581087,-0.018148703196,0.00289518005249,0.942489385605,-0.393970608711,1.13389182091,0.227945417166,0.482319712639,-0.142986029387
2017/07/09/10:18:36.813154,510148,1499566719,619741545,,0.768136755709,-0.0804920939135,-0.010508205056,0.791965572035,0.607133906064,0.00186620429562,0.0646178775535,0.0100721441232,0.0166903008721,0.00342999879156,0.0306369435884,-0.0185324405359,-0.0183354087613,0.54869389534,-0.25442019105,0.653517723083,0.147663116455,0.377918243408,-0.125623673201
2017/07/09/10:18:36.823346,510149,1499566719,629706043,,0.768072931914,-0.0800505852043,-0.0101986334632,0.791971312481,0.607158321215,0.00212643836338,0.0643093418274,-0.0030598079118,-0.0203108725306,0.00965070789149,-0.0169940328147,-0.00613366365447,-0.0187853238669,0.77178633213,0.247398465872,0.886368751526,-0.0732016265392,0.472885042429,-0.202243551612
2017/07/09/10:18:36.832882,510150,1499566719,639702508,,0.767780799528,-0.0803777733739,-0.0106866460408,0.791866853318,0.607284866452,0.00175024599803,0.0644120658986,0.0176133126428,0.00473376070422,0.00887663990644,0.000803451140597,-0.0349367267896,0.00119086535493,0.504482388496,0.0576098263264,0.590001225471,0.10995862633,0.370104551315,-0.133562460542
2017/07/09/10:18:36.843106,510151,1499566719,649707102,,0.767987395532,-0.0809589011702,-0.0101163560469,0.791867344272,0.607250850579,0.00197101182683,0.0647196157177,0.0159736509452,0.0142787384292,0.00234159487754,-0.00701201001707,-0.0199461399172,0.028682807335,0.487390518188,-0.641580224037,0.514309585094,0.126082330942,0.4377810359,-0.155088096857
2017/07/09/10:18:36.853081,510152,1499566719,659703258,,0.768171662972,-0.0805351943255,-0.0103446583504,0.792447064697,0.606512813204,0.00238489122804,0.0645303755356,0.00987879458841,0.00469847977501,0.00256817506199,0.0129647474679,-0.0218994953547,-0.00766324305777,0.267730861902,-0.428918898106,0.308630496264,0.198168635368,0.355126559734,-0.1318564713
2017/07/09/10:18:36.863010,510153,1499566719,669708152,,0.768134559262,-0.0806369299285,-0.0103716847049,0.792328108747,0.606652949166,0.00210632049101,0.0646833113836,0.00851777989791,0.00340240982167,0.0016163383299,-0.00273581688049,-0.0178092227262,0.00392942262875,0.447326540947,-0.702841281891,0.218469396234,0.109758399427,0.422461748123,-0.167005524039
2017/07/09/10:18:36.873425,510154,1499566719,679709656,,0.768584753442,-0.0796991304033,-0.010564294034,0.791570199836,0.607664824733,0.00256534381043,0.0644476417263,0.013991203663,-0.0110114703902,0.0100017968478,-0.00938688891828,-0.0398346415117,-0.00348857687217,0.483194440603,0.4478764534,0.421547651291,-0.00501589477062,0.335704296827,-0.148470982909
