time,.header.seq,.header.stamp.secs,.header.stamp.nsecs,.header.frame_id,.pose.position.x,.pose.position.y,.pose.position.z,.pose.orientation.x,.pose.orientation.y,.pose.orientation.z,.pose.orientation.w,.twist.linear.x,.twist.linear.y,.twist.linear.z,.twist.angular.x,.twist.angular.y,.twist.angular.z,.wrench.force.x,.wrench.force.y,.wrench.force.z,.wrench.torque.x,.wrench.torque.y,.wrench.torque.z
2017/07/09/10:21:22.922330,526759,1499566885,729094013,,0.781394345633,0.399767995151,0.166135392481,0.622131749903,0.780329296071,0.0554358740876,0.0310666914813,-0.0122053217304,-0.000576535042464,-0.0125796614516,-0.00498665832292,0.0334660025422,0.00389334787306,6.97442722321,2.13397574425,-1.09248375893,-1.16571116447,2.68785071373,-0.348993659019
2017/07/09/10:21:22.932172,526760,1499566885,739087406,,0.781672650967,0.39887094126,0.165672855147,0.622526405217,0.780028993607,0.0553802555345,0.0308005071031,0.0043319520758,-0.00235503853645,-0.00128124093494,0.00155333508722,-0.00374926123957,-0.0108032712969,6.96111059189,2.1874730587,-0.934595227242,-1.17753231525,2.71133732796,-0.341326802969
2017/07/09/10:21:22.942323,526761,1499566885,749093293,,0.781791702985,0.399580398455,0.165971448794,0.622341698133,0.780144168942,0.0556667416845,0.0310982362886,0.00464457321193,-0.00557294485708,-0.00287753166741,0.00144488791885,-0.001377467295,-0.0075784672214,6.6918926239,2.19118785858,-1.02303636074,-1.16107869148,2.61025810242,-0.3447483778
2017/07/09/10:21:22.952211,526762,1499566885,759089101,,0.781381270586,0.39930426434,0.165917385808,0.622557970426,0.78001704882,0.0552821187623,0.0306408934956,9.25294694573e-05,-0.00380199548011,-0.00338063621538,-0.0130290783117,0.00568214985743,0.00151691988097,6.41982460022,2.03685879707,-0.985135018826,-1.11677515507,2.48109316826,-0.315274089575
2017/07/09/10:21:22.961841,526763,1499566885,769087445,,0.781334317538,0.399332689619,0.165783053845,0.622528932261,0.780039813509,0.055292245555,0.0306330772305,-0.00796710663959,-0.00721967968387,-0.00822938854739,-0.00354050960175,0.0239123967004,-0.0155667964194,6.26027917862,2.16051268578,-0.782515764236,-1.13199567795,2.458725214,-0.339891344309
2017/07/09/10:21:22.972139,526764,1499566885,779088806,,0.781431823024,0.399128736163,0.165518967384,0.623102341091,0.779584122598,0.0552656777328,0.0306230825632,0.00108377333083,0.019465612933,-0.00497951817074,0.0109565825028,-0.00273561419871,0.0284600588844,6.37129497528,2.10641717911,-0.82576918602,-1.19690048695,2.48057222366,-0.379125654697
2017/07/09/10:21:22.982107,526765,1499566885,789084004,,0.781693855913,0.399989856369,0.16597193331,0.622238355548,0.780225551023,0.0557723647194,0.0309347983546,-0.00448096812138,0.00992757857124,-0.0233930722884,0.0160350487651,0.0210593964459,-0.00708757458692,5.69837236404,1.9812104702,-0.661212563515,-1.09053194523,2.22123599052,-0.319222509861
2017/07/09/10:21:22.992090,526766,1499566885,799089853,,0.78097643457,0.399647008218,0.164913536196,0.622384386578,0.780196556489,0.0549742198324,0.0301470353397,-0.0248209654429,-0.000449976454522,-0.0262875171825,0.00672028571535,0.0649086440627,8.76602092903e-05,5.88347434998,2.06353855133,-0.645446121693,-1.12828171253,2.27729725838,-0.340734779835
2017/07/09/10:21:23.002354,526767,1499566885,809084688,,0.781120236633,0.399593390069,0.165331407519,0.622132132392,0.780380462753,0.0551509526466,0.0302707056536,-0.005183609943,-0.00973719918943,-0.00950257752239,-0.0028958223521,0.0321450161395,-0.00949283346071,6.08599996567,2.0613553524,-0.479181647301,-1.08819723129,2.36342334747,-0.308309733868
2017/07/09/10:21:23.012147,526768,1499566885,819090498,,0.781065451843,0.399749583587,0.165294009745,0.622149077576,0.780369581172,0.0551637622736,0.0301794861538,0.00311255773102,-0.00682714562236,0.0048717329205,0.00338427194256,0.00227261609502,-0.0192634613294,5.58795404434,1.95872020721,-0.545314073563,-1.11226987839,2.14254903793,-0.379632353783
2017/07/09/10:21:23.022150,526769,1499566885,829084614,,0.781256216256,0.399414126042,0.16517775417,0.622366278082,0.780181685163,0.0552338728193,0.0304298099954,-0.00400070636175,0.000418701174103,-0.0181488063932,-0.00401975254143,0.017583203326,0.00855040009038,5.70075321198,1.98574769497,-0.371186286211,-1.09445047379,2.20322084427,-0.315162807703
2017/07/09/10:21:23.032287,526770,1499566885,839089636,,0.781260467322,0.399136366321,0.165029260197,0.622676486366,0.779952210336,0.0550256061005,0.0303434604376,0.00529022878449,-0.029182741982,-0.00438077860944,-0.0118811623042,0.00572512407185,-0.0364438737069,5.98904180527,1.99489831924,-0.398467391729,-1.07755708694,2.31335067749,-0.313239306211
2017/07/09/10:21:23.042447,526771,1499566885,849091504,,0.781448392636,0.399477045904,0.16495498544,0.622553829765,0.780033715064,0.0552290711716,0.03039542904,-0.0113974850106,-0.0256694718995,-0.0135193328989,-0.0336104442476,0.0308188003656,-0.0121761209251,6.1195435524,2.04708385468,-0.359482973814,-1.10452711582,2.35901331902,-0.320928484201
2017/07/09/10:21:23.052249,526772,1499566885,859090572,,0.78078337448,0.399491898278,0.16461014179,0.62247635408,0.780157187171,0.0545216773032,0.0300888454445,-0.0107978822144,-0.00348395997897,-0.0235786069738,-0.00511517127193,0.0333131660559,-0.0136162510025,6.29130887985,2.01962614059,-0.499385178089,-1.06947088242,2.4278178215,-0.320449113846
2017/07/09/10:21:23.061935,526773,1499566885,869083352,,0.781544952308,0.398949180902,0.16491791565,0.622823520075,0.779822099552,0.0551307965282,0.0304787001955,0.00734302062262,0.0112359614005,-0.00593683649863,0.00813564848096,-0.00820699026379,0.00767667405806,5.75783824921,1.904992342,-0.44442987442,-1.03943502903,2.24416589737,-0.308174371719
2017/07/09/10:21:23.072183,526774,1499566885,879111238,,0.780633793745,0.399575612112,0.163913545725,0.622556165234,0.780098741699,0.0547555278417,0.0295229825608,0.00327640374484,0.00381870497538,-0.00652826199191,0.0098783989815,0.00194814757035,0.0118106771161,5.63827323914,1.98176884651,-0.205264151096,-1.06681966782,2.24009799957,-0.304136455059
2017/07/09/10:21:23.082271,526775,1499566885,889091584,,0.781362616594,0.39877292729,0.164653069677,0.622944821107,0.779755602027,0.054765593523,0.0303591951259,0.00152674043684,0.00268386796107,-0.0101237548191,0.00891105586298,0.00242920342918,-0.00892516519443,5.50292158127,1.99878096581,-0.174038663507,-1.11346518993,2.18213295937,-0.331215023994
2017/07/09/10:21:23.092155,526776,1499566885,899092842,,0.78087286132,0.399286468273,0.164051760158,0.622767928681,0.779933222349,0.0546807242748,0.0295684642121,0.00620621303776,-0.00394553499418,-0.00458008320111,-0.00550010794025,-0.00405289094597,-0.00193371918332,4.96657991409,1.6975274086,-0.0774233713746,-0.899847328663,2.00155425072,-0.257739245892
2017/07/09/10:21:23.102279,526777,1499566885,909084566,,0.780263782833,0.399338706621,0.163580967216,0.622637172987,0.780098629164,0.054107442815,0.0290080027318,-0.00821999864133,-0.00251701329884,-0.0236439417253,-0.0095421244994,0.0401824731845,0.0201619424107,5.09054374695,1.99308085442,-0.00174836069345,-1.06489920616,2.03800106049,-0.297267049551
2017/07/09/10:21:23.112224,526778,1499566885,919093928,,0.780545051219,0.399224217386,0.163880972174,0.62290164568,0.779856318125,0.0543771168121,0.0293392579524,-0.02239577576,-0.00605523488624,-0.0267775082789,-0.012834065343,0.0571798562438,0.0140375974642,4.79209709167,1.99164009094,0.0950369611382,-1.08498680592,1.92317593098,-0.305108547211
2017/07/09/10:21:23.121951,526779,1499566885,929094711,,0.781114290282,0.398644740789,0.163920940879,0.623024850118,0.779731865963,0.0545207400529,0.0297614220386,-0.00512288702938,0.00120138632364,-0.0157920198171,0.0148710236406,0.0218128460492,-0.0258208777731,4.69997406006,1.84161472321,0.1659719944,-0.984359383583,1.92653894424,-0.296032428741
2017/07/09/10:21:23.132212,526780,1499566885,939089568,,0.781228413884,0.39830255735,0.163953410774,0.623178405028,0.779603590066,0.0543674605305,0.0301843850061,0.0118518185366,-0.0125443939452,-0.0103255858001,-0.017740124059,-0.0114496690023,-0.011415284619,4.58296537399,1.87751269341,0.311640739441,-1.02433478832,1.88975405693,-0.314596027136
2017/07/09/10:21:23.142238,526781,1499566885,949089682,,0.781005016799,0.398572691522,0.163562125314,0.623143641217,0.779660709251,0.0542415419193,0.0296485411251,-0.00230677853677,-0.0335904967591,-0.0196877137066,-0.0145932100952,0.0286328301472,-0.0407112842869,4.84640836716,2.04380178452,0.196423262358,-1.09146142006,1.96175050735,-0.303285300732
2017/07/09/10:21:23.152287,526782,1499566885,959106172,,0.780840612086,0.399339475626,0.163580766091,0.622933387888,0.779813258505,0.0546235559708,0.0293520569333,-0.00969547625373,0.0107568396205,-0.0194621175333,0.00456457801333,0.0281461811147,0.00786875534956,5.30427503586,2.1823143959,0.225012034178,-1.14014601707,2.14170980453,-0.33393651247
2017/07/09/10:21:23.162356,526783,1499566885,969089295,,0.780779932258,0.397855448191,0.163257649658,0.623052393536,0.779764038524,0.0538204972829,0.0296160970676,-0.0220516306583,0.00327792413124,-0.031413517503,-0.00435314367776,0.0663771023846,0.021904147622,5.20637464523,1.91814172268,0.122369416058,-0.933721959591,2.10815882683,-0.236300468445
2017/07/09/10:21:23.172249,526784,1499566885,979090484,,0.780356452804,0.398644224786,0.162896955511,0.622921001341,0.779893536492,0.0536745219554,0.0292325763388,-0.000848357995102,-0.00448326502853,-0.011905055068,-0.0139407448893,0.0132627094442,-0.00321963449537,5.55342388153,2.13827061653,-0.0577706806362,-0.990038514137,2.24310278893,-0.267451733351
2017/07/09/10:21:23.182381,526785,1499566885,989085987,,0.781027256417,0.398793081723,0.162900770858,0.622997532224,0.779785661914,0.0542196280807,0.0294724998386,0.00639956705798,-0.00540357778145,-0.0165403254321,-0.00159531642476,0.00303843002802,-0.00958796603886,5.25247001648,1.94319963455,0.0282129198313,-0.928602993488,2.15838479996,-0.224174320698
2017/07/09/10:21:23.192469,526786,1499566885,999089443,,0.78028022941,0.398242936367,0.162407387017,0.622746941108,0.780060576364,0.0533354607039,0.0291045215641,-0.0136737302939,-0.0316436486517,-0.033356675601,-0.0102894028939,0.0644808323641,-0.0485071518703,5.02103757858,2.00076031685,0.0839524120092,-1.04514467716,2.06372475624,-0.274546504021
2017/07/09/10:21:23.202235,526787,1499566886,9090801,,0.780328107907,0.397743947784,0.162236272391,0.623136983119,0.7797522472,0.0532530533654,0.0291692571669,0.0043624651216,-0.0251910153434,-0.0138278794209,-0.019223681642,0.009590582182,-0.0221915286337,4.98736095428,1.76859676838,0.396492362022,-0.925989091396,2.09276747704,-0.242205306888
2017/07/09/10:21:23.212182,526788,1499566886,19084527,,0.780644361923,0.398031723829,0.16210374736,0.623294612541,0.779601692033,0.0535405633931,0.029299075558,1.65901524076e-05,-0.0184980652162,-0.0153413178171,-0.00903826336683,0.0184684084838,-0.0386202723799,4.71053934097,2.1058371067,0.295194476843,-1.09549117088,1.95694005489,-0.294960200787
2017/07/09/10:21:23.222279,526789,1499566886,29097963,,0.780711751535,0.397781892259,0.161767424935,0.623339096729,0.779578524783,0.0534563497639,0.0291223772358,-0.00770955559375,-0.0164044855875,-0.0255892034458,-0.0080239060212,0.0393167698962,-0.0417939149932,5.04115486145,1.87008738518,0.448867052794,-0.921949267387,2.11520457268,-0.227991774678
2017/07/09/10:21:23.232245,526790,1499566886,39088047,,0.780561577224,0.397552969333,0.161974696601,0.623294456061,0.779631669883,0.0531483668106,0.0292186834737,-0.00165109059975,-0.0078213618997,-0.0212534038842,-0.0173909789832,0.0214522026557,0.00768884053163,5.13732385635,1.91518652439,0.424802452326,-0.942373871803,2.15138530731,-0.233291462064
2017/07/09/10:21:23.242194,526791,1499566886,49096314,,0.780550707909,0.397308142037,0.161688762903,0.623332001343,0.779620891418,0.0527545038968,0.0294184310402,-0.00618350341739,-0.0131169897341,-0.0134860414843,-0.0237195045849,0.0219870863849,0.0168193098006,5.19189167023,1.90869438648,0.461008280516,-0.919502913952,2.16128778458,-0.214876711369
2017/07/09/10:21:23.252006,526792,1499566886,59099607,,0.780617696094,0.397324121443,0.161599655845,0.623757651866,0.779277160626,0.0529930451514,0.0290729398339,-0.000292369419546,-0.0214210503341,-0.019035642012,-0.0261906422763,0.0194121510508,-0.0244597424822,5.46447134018,1.94007277489,0.448240250349,-0.943390071392,2.26179671288,-0.229570358992
2017/07/09/10:21:23.261899,526793,1499566886,69090847,,0.780628082437,0.396845676871,0.160942074748,0.623902968495,0.779193736736,0.0526161637034,0.0288746576045,-0.00632258033921,-0.0387912702011,-0.0320704636882,-0.0391678145829,0.0533709244079,-0.0443137751879,3.27032613754,1.31795108318,1.08303725719,-0.662797987461,1.4589703083,-0.202987894416
2017/07/09/10:21:23.272348,526794,1499566886,79090537,,0.779692877309,0.397576105167,0.160375458304,0.623786166811,0.779338081406,0.052322634943,0.0280234694088,-0.0148256474091,-0.00479293180736,-0.0421842745472,-0.00944699168838,0.0622326919738,-0.0124654769069,2.94003367424,1.6335105896,1.12528300285,-0.798933446407,1.31292521954,-0.224281162024
2017/07/09/10:21:23.282244,526795,1499566886,89090783,,0.780146632495,0.396951170474,0.160843346746,0.623681851366,0.779385465943,0.052496010095,0.0286951682027,-0.0126920966884,-0.0202474533931,-0.0292242150186,-0.00885887033455,0.0487536801899,-0.0199020127391,2.58388710022,1.19053316116,1.1142206192,-0.602966606617,1.18098807335,-0.168719172478
2017/07/09/10:21:23.291941,526796,1499566886,99085037,,0.78056993882,0.396145935059,0.160316306003,0.624065408234,0.779086890104,0.0522399638864,0.0289304353108,0.00264513253452,-0.0359675612563,-0.0230929740639,-0.0519058208569,0.0127256828281,-0.00831813706273,1.94738483429,1.19748783112,1.27575588226,-0.575910866261,0.991157770157,-0.168987855315
2017/07/09/10:21:23.302202,526797,1499566886,109085313,,0.779863963605,0.396051294449,0.159844208333,0.624153330882,0.779073411545,0.0516381712536,0.0284734655955,-0.00292348311712,-0.0527011490013,-0.0352240921301,-0.0489769664852,0.0364495651571,-0.0485089640467,2.40594267845,1.06905174255,1.25102305412,-0.524428844452,1.17507040501,-0.117553725839
2017/07/09/10:21:23.312141,526798,1499566886,119087125,,0.780498050314,0.395339479376,0.159581637484,0.62445186952,0.778818828743,0.0517002144435,0.0287781596677,0.020694499148,-0.0514450096722,-0.0120781365891,-0.00881858699676,-0.0102393140266,-0.079270961414,2.44860434532,1.16790783405,1.34018015862,-0.594889342785,1.22574865818,-0.155332446098
2017/07/09/10:21:23.321845,526799,1499566886,129089383,,0.779911300841,0.395200837399,0.159113581853,0.62458386297,0.778766372135,0.0511746443475,0.0282682069559,0.0140755469031,-0.0306580896031,-0.0188203116402,0.00137363961147,0.00440960256306,-0.0713763948923,2.68748164177,1.23298823833,1.47345149517,-0.628764867783,1.29507231712,-0.164181634784
2017/07/09/10:21:23.332100,526800,1499566886,139087077,,0.779950379867,0.395311696454,0.159245343056,0.624565919928,0.77878225267,0.0510745804929,0.0284077774262,-0.0183299030627,-0.041669602573,-0.0440864464414,-0.0546452028099,0.077301384458,-0.0474799879029,2.4712665081,1.03937399387,1.49274587631,-0.578402936459,1.19467747211,-0.161855608225
2017/07/09/10:21:23.342461,526801,1499566886,149090246,,0.779604432956,0.39476788474,0.158719693283,0.624769287895,0.778670514975,0.0503794701997,0.028239599748,-0.0072715927243,-0.0353867298246,-0.0292282426004,-0.0521348895657,0.0437582664503,-0.0274989113036,1.79935312271,1.03687310219,1.55511164665,-0.487579315901,0.922892391682,-0.145158678293
2017/07/09/10:21:23.352273,526802,1499566886,159086603,,0.780085671149,0.393944941337,0.158379383421,0.625320387965,0.778215925137,0.0504256994985,0.0284892100456,-0.0133677340904,-0.0443680793221,-0.0386379651967,-0.0596716590637,0.070237832411,-0.0347356662443,2.21723246574,1.19688344002,1.56228911877,-0.583123803139,1.0877841711,-0.144330263138
2017/07/09/10:21:23.362240,526803,1499566886,169085458,,0.78011927852,0.393187948302,0.158023292145,0.625688670584,0.777942892435,0.0500337170436,0.028551195621,0.00161740871311,-0.0818329745904,-0.0390877310119,-0.0681739663112,0.0456599069652,-0.0799289512591,2.4271697998,1.3111423254,1.37525939941,-0.6208345294,1.15281844139,-0.179220110178
2017/07/09/10:21:23.372177,526804,1499566886,179099574,,0.779967972562,0.392009434202,0.157272152312,0.625847842073,0.777864961995,0.0492641254975,0.028524119826,0.00101929553859,-0.0596388189721,-0.0364949856988,-0.0359810301121,0.0413338571749,-0.0744112167941,2.95957899094,1.3200507164,1.44481635094,-0.579954385757,1.3545923233,-0.124802038074
2017/07/09/10:21:23.382042,526805,1499566886,189095079,,0.780369279247,0.391423238844,0.157216662768,0.626213570315,0.777566625378,0.0490795671449,0.0289465635389,0.00556779811845,-0.0781541331012,-0.0410965260936,-0.0793154515252,0.0337725029468,-0.074108985351,3.11164212227,1.29071700573,1.27655649185,-0.627360343933,1.39111042023,-0.174156665802
2017/07/09/10:21:23.392165,526806,1499566886,199083891,,0.780068632669,0.39104266214,0.156953227445,0.626265390051,0.777544647761,0.0488120183108,0.0288681282931,0.0063961393098,-0.0574062140236,-0.0308305902583,-0.0536536493547,0.0320470966907,-0.088083374366,2.93296599388,1.25549352169,1.19901490211,-0.567685186863,1.34254992008,-0.162430644035
2017/07/09/10:21:23.402178,526807,1499566886,209112197,,0.779842920158,0.390597328215,0.156447565442,0.626542642006,0.777361259512,0.0483285985803,0.0286030857991,0.00183448537285,-0.0706402826526,-0.0482498029508,-0.0588658893184,0.0569313992241,-0.0995850882232,3.21830868721,1.28670847416,1.11600422859,-0.574457287788,1.4460413456,-0.143565386534
2017/07/09/10:21:23.412180,526808,1499566886,219115381,,0.77993376061,0.38945953087,0.15581887679,0.627658695516,0.776498787701,0.0479656744194,0.0281689318217,0.00433432214561,-0.0841146258894,-0.0493452342771,-0.0630394585889,0.0527806195883,-0.0975805378401,2.80367279053,1.09911620617,1.07968974113,-0.453577935696,1.30030310154,-0.126180112362
2017/07/09/10:21:23.422233,526809,1499566886,229090826,,0.780126335219,0.388769066678,0.1554416532,0.627447172125,0.776682396484,0.0474357181414,0.0287115626302,0.00745539856628,-0.0946724118545,-0.0490408549627,-0.0721334919447,0.0502215695651,-0.11836907109,3.00606942177,1.47651541233,1.19268488884,-0.707928359509,1.40871798992,-0.187560811639
2017/07/09/10:21:23.432327,526810,1499566886,239100279,,0.780814839317,0.387155537644,0.155273449659,0.628370690777,0.775916758906,0.0473981138175,0.0292724619495,0.0155846929874,-0.0824882268384,-0.0439170884207,-0.0832208551771,0.0219579617957,-0.0736718122395,2.54767751694,1.28701293468,1.13215243816,-0.620476663113,1.23170244694,-0.211873829365
2017/07/09/10:21:23.442119,526811,1499566886,249107024,,0.780804587702,0.386842412972,0.154790624198,0.628880705093,0.775525934324,0.0472553664072,0.0289052641977,0.0129365775688,-0.113995241146,-0.0468403579866,-0.0888463507947,0.0430160913814,-0.137482633836,2.4974899292,1.10825681686,1.06926453114,-0.537905454636,1.21352422237,-0.166988641024
2017/07/09/10:21:23.452033,526812,1499566886,259094460,,0.780391066156,0.385782236252,0.15374400901,0.628974632281,0.77552682547,0.0460327290881,0.0288104629576,-0.00164032503709,-0.0993871365966,-0.051154025503,-0.0646066162361,0.0769046832186,-0.155310402669,2.7589263916,1.38267314434,1.14239764214,-0.694475769997,1.3165384531,-0.210350424051
2017/07/09/10:21:23.462208,526813,1499566886,269084356,,0.78086224723,0.384437203068,0.15348628293,0.629543959422,0.775065169842,0.0456566681145,0.0293913985809,-0.00476122458732,-0.0795259313518,-0.0619469772375,-0.0629148361245,0.0761246257503,-0.103943381346,2.81616187096,1.52396965027,1.07442903519,-0.783163845539,1.3413631916,-0.237901598215
2017/07/09/10:21:23.472114,526814,1499566886,279091518,,0.780493449226,0.383218377985,0.15293099264,0.630080093249,0.774676857709,0.0448285623057,0.0294149999604,0.00254935022189,-0.0986914335183,-0.0595585865206,-0.0933779831151,0.058467087991,-0.0986182350412,3.1613638401,1.46846020222,1.06268620491,-0.793228507042,1.46798872948,-0.243886232376
2017/07/09/10:21:23.481936,526815,1499566886,289084067,,0.780477733486,0.382498686618,0.152205397723,0.630846997864,0.774086977667,0.0444713902286,0.02904671659,0.0095035521214,-0.12545559784,-0.0549537282733,-0.0974681408955,0.0529778752389,-0.147826510286,2.58283162117,1.34441924095,1.00655090809,-0.662574470043,1.23219692707,-0.21045486629
2017/07/09/10:21:23.492470,526816,1499566886,299090973,,0.780249760264,0.381572008158,0.151348703689,0.630793762809,0.774188197118,0.0433874697056,0.0291443256426,-0.00466693735311,-0.13427271225,-0.0634811047518,-0.127542908032,0.0902074593354,-0.160134245148,2.48860216141,1.36308908463,0.909013271332,-0.730427265167,1.18884754181,-0.25616556406
2017/07/09/10:21:23.502256,526817,1499566886,309091005,,0.781232218929,0.37971719933,0.151604764314,0.631757735719,0.773365608537,0.0435109355977,0.0299098207058,0.00254361197451,-0.114752002725,-0.0586374065401,-0.107721701147,0.0678944823105,-0.139811668744,2.66978621483,1.34612154961,0.921007335186,-0.661299228668,1.27567815781,-0.223694831133
2017/07/09/10:21:23.512202,526818,1499566886,319087345,,0.781051296682,0.378865405817,0.150695077602,0.632272564522,0.772993984304,0.0428080674177,0.02965086419,0.0106938044172,-0.139534955889,-0.0645493120947,-0.101579433546,0.0654553608466,-0.179833755304,2.55871200562,1.32416331768,0.839764118195,-0.663642644882,1.24371862411,-0.228983879089
2017/07/09/10:21:23.522082,526819,1499566886,329091012,,0.781065383504,0.378019308906,0.149871776186,0.632745172435,0.772637819285,0.0422482561725,0.0296552157446,-0.0026456752236,-0.104444037324,-0.0785849617843,-0.0753645240545,0.08484365428,-0.133058867083,2.36116957664,1.35422432423,0.871011435986,-0.690117955208,1.17369198799,-0.239463686943
2017/07/09/10:21:23.532019,526820,1499566886,339085765,,0.780840949632,0.376843516102,0.149194878185,0.633796334361,0.77182481755,0.0416978796355,0.0291538059148,0.0103197076716,-0.135507497275,-0.0687897669666,-0.0943456685063,0.0702219735778,-0.180384990313,2.0193939209,1.05533123016,0.819293320179,-0.585341572762,1.01243269444,-0.22740355134
2017/07/09/10:21:23.542460,526821,1499566886,349092274,,0.781169406076,0.375623652117,0.148633665874,0.633759835194,0.771859916681,0.0412785031099,0.0296112393849,-0.00374271963244,-0.124998589853,-0.0785197198256,-0.0860064180062,0.102267794646,-0.165368805495,1.73209476471,0.907802700996,0.74433940649,-0.471524745226,0.916853904724,-0.210981667042
2017/07/09/10:21:23.552447,526822,1499566886,359094181,,0.78156303138,0.374019618197,0.148103757844,0.63459422228,0.771185966438,0.0406940226417,0.0301060581744,0.011810955915,-0.133098277012,-0.0700360244173,-0.0792785344972,0.0624209334619,-0.175956309943,1.72986030579,1.01025593281,0.65366345644,-0.526451468468,0.901081085205,-0.211869612336
2017/07/09/10:21:23.562305,526823,1499566886,369091313,,0.780837094579,0.372563393232,0.146544100994,0.635127185107,0.77083886654,0.0393112827639,0.0295892483251,0.00456021342797,-0.148260626986,-0.0897498552039,-0.104594936546,0.0821645761964,-0.170106431494,1.53510284424,1.05764245987,0.734450399876,-0.583182692528,0.835138201714,-0.240001320839
2017/07/09/10:21:23.572230,526824,1499566886,379109815,,0.781125737253,0.371327804651,0.146082993577,0.636019263686,0.770111253141,0.0392052697556,0.0295144173151,0.0218128469198,-0.13071461619,-0.0723041408331,-0.101040446389,0.0342091271361,-0.157023887009,1.58383131027,0.88908624649,0.508444786072,-0.539447009563,0.839810967445,-0.250871777534
2017/07/09/10:21:23.582292,526825,1499566886,389109792,,0.781469757041,0.370056622769,0.145289545924,0.636917326785,0.769381962414,0.0387777780324,0.0297321153663,0.0277131426191,-0.150250636322,-0.0775686516019,-0.0833829077194,0.0401128455161,-0.210710743235,1.54715740681,1.18262088299,0.355551928282,-0.618370056152,0.814080715179,-0.235475152731
2017/07/09/10:21:23.592184,526826,1499566886,399091098,,0.781501913641,0.368684915661,0.14433743431,0.637501429754,0.768925766122,0.038207040573,0.0297542485296,0.0203913574943,-0.146827318939,-0.0935598374576,-0.0907924231626,0.0549926557399,-0.192428053004,0.962174832821,0.962859869003,0.227949112654,-0.495345592499,0.566561281681,-0.235578238964
2017/07/09/10:21:23.602230,526827,1499566886,409082030,,0.781896964499,0.367270261679,0.143171742808,0.63791032589,0.768602660451,0.0376620052664,0.0300323130881,0.0327690085432,-0.151533803981,-0.0860185670221,-0.0823849669206,0.0268320579513,-0.194607969185,0.542525470257,0.934922575951,0.327462166548,-0.450632512569,0.388319760561,-0.239383608103
2017/07/09/10:21:23.612189,526828,1499566886,419087264,,0.781927876797,0.365219720314,0.142352546717,0.638886620548,0.767824700021,0.0368625375839,0.0301706719337,0.0257487612352,-0.147761315701,-0.101279250581,-0.0856362046487,0.0461537458196,-0.179141122953,-0.0487257689238,0.79834318161,0.14598877728,-0.415123939514,0.128395229578,-0.230114549398
2017/07/09/10:21:23.622196,526829,1499566886,429094105,,0.782933787289,0.364764671486,0.1415195164,0.639367913372,0.767383746644,0.0374977459334,0.0304101264043,0.035626484519,-0.149629309302,-0.100255827586,-0.0792289644245,0.0171518104546,-0.182604047206,-0.381057649851,0.583667397499,0.41541275382,-0.379092127085,0.0679047107697,-0.265287309885
2017/07/09/10:21:23.632144,526830,1499566886,439090760,,0.782629140344,0.3630437505,0.139876501181,0.640088245289,0.766833594427,0.0364910690662,0.0303591597377,0.049263435365,-0.140540529882,-0.0861636936677,-0.0587042556282,-0.0297317540876,-0.193073476706,-0.755351781845,0.461231827736,0.643143892288,-0.366946846247,-0.0598160885274,-0.257798552513
2017/07/09/10:21:23.642122,526831,1499566886,449089713,,0.783200660795,0.361842937454,0.138948683342,0.64075466607,0.766257546298,0.0364610255525,0.0308775689971,0.048205617567,-0.130810896451,-0.105569805742,-0.050385701124,-0.0193568319261,-0.182098827172,-1.08088457584,0.450154006481,0.773240864277,-0.351197242737,-0.178905159235,-0.259015738964
2017/07/09/10:21:23.652238,526832,1499566886,459084874,,0.784889312917,0.360266070349,0.138792394463,0.6421775671,0.764989408632,0.0374762559276,0.0315389796169,0.0596810615537,-0.160445490224,-0.105102084594,-0.0431140134567,-0.0366548004481,-0.247586335607,-0.415550112724,0.557512283325,0.713918983936,-0.425592154264,0.11562551558,-0.267186641693
2017/07/09/10:21:23.662203,526833,1499566886,469091786,,0.784849654485,0.358447220291,0.137164057016,0.64266860498,0.764618601603,0.0366336944006,0.0315187355591,0.0611282581295,-0.156673793383,-0.112967933444,-0.035173683679,-0.0344478363562,-0.231786316094,-0.368623286486,0.648433625698,0.612929344177,-0.381803631783,0.122917786241,-0.242307454348
2017/07/09/10:21:23.672061,526834,1499566886,479091811,,0.784891923715,0.356656940773,0.135339013066,0.643382064889,0.764055086761,0.0357404835138,0.0316537645722,0.066272021968,-0.152243607637,-0.115568444005,-0.0414677469011,-0.0478251726159,-0.197197889728,-0.0242687910795,0.629852890968,0.254057824612,-0.356306880713,0.244314745069,-0.235879689455
2017/07/09/10:21:23.682237,526835,1499566886,489087810,,0.786450457737,0.355186974936,0.134862077899,0.644644495656,0.762903185454,0.0368143362497,0.0325101290451,0.062497979639,-0.151746564703,-0.128308139079,-0.0505063404782,-0.0440388113292,-0.190594837147,-0.0968116596341,0.948749959469,0.0994601622224,-0.488020449877,0.205225199461,-0.268740594387
2017/07/09/10:21:23.692307,526836,1499566886,499090737,,0.787915573381,0.354607259344,0.134306277186,0.64450254483,0.762931702815,0.0377255989576,0.033592644,0.0821100667409,-0.149952437619,-0.120525797468,-0.027948827632,-0.0863910386724,-0.207111604817,-0.32002517581,0.763710021973,0.037708055228,-0.361142367125,0.146019563079,-0.245429188013
2017/07/09/10:21:23.702365,526837,1499566886,509089900,,0.78874078565,0.352674385212,0.133099602796,0.645522304233,0.762037748619,0.0376834781418,0.0343421008805,0.113315450704,-0.165916485698,-0.108101808751,-0.0191825987102,-0.157486214964,-0.238481512077,-0.912890076637,0.651608943939,-0.12246940285,-0.382952213287,-0.110377401114,-0.260181456804
2017/07/09/10:21:23.711958,526838,1499566886,519086388,,0.789742034663,0.350180262429,0.131511309593,0.646963012205,0.760792704386,0.0377573568033,0.0347520330196,0.101204615465,-0.176274213666,-0.132660652799,-0.0358713922291,-0.132318306216,-0.243724745299,-1.13576471806,0.404131889343,0.0822483152151,-0.288930416107,-0.146583199501,-0.244150191545
2017/07/09/10:21:23.722205,526839,1499566886,529084400,,0.790981651001,0.349034949137,0.130279438966,0.647338700271,0.760401980695,0.0383971646517,0.0355962446528,0.118657895413,-0.17985015718,-0.128788377458,-0.0208138600655,-0.174162608444,-0.256612098277,-0.540663063526,0.794432640076,0.0574582368135,-0.516338765621,0.0554431453347,-0.260095655918
2017/07/09/10:21:23.732269,526840,1499566886,539084794,,0.79154947838,0.348095469832,0.12886677976,0.647978302774,0.759842964169,0.0385923658177,0.0356849861572,0.126580088135,-0.181143564651,-0.120920499143,-0.0203532321964,-0.192787540656,-0.252948772522,-0.800335109234,0.583926916122,-0.177351042628,-0.448008477688,-0.146001264453,-0.260618627071
2017/07/09/10:21:23.742316,526841,1499566886,549090372,,0.793353313374,0.345811222638,0.128322339359,0.648863011567,0.758969601993,0.0394700574296,0.0372028229649,0.117098116053,-0.172800604878,-0.124447175432,-0.00963789422302,-0.175699574512,-0.215388176432,-0.837755918503,0.523308932781,-0.449317038059,-0.375385165215,-0.203744754195,-0.195770025253
2017/07/09/10:21:23.751984,526842,1499566886,559090114,,0.795064157806,0.343847123908,0.126977761085,0.649823253788,0.758051822383,0.0402939134977,0.0382566850742,0.146548116773,-0.202413198978,-0.114137420468,-0.0173147533301,-0.242920322265,-0.25171655141,-1.18377518654,0.712564170361,-0.73825609684,-0.47856888175,-0.414462834597,-0.249943345785
2017/07/09/10:21:23.762030,526843,1499566886,569089458,,0.79561393325,0.34169702081,0.125153823967,0.650929876214,0.757100181718,0.0401584354129,0.0384306018559,0.131159892251,-0.181480224427,-0.124919689311,-0.0228733674986,-0.21593452496,-0.234746039573,-1.51726722717,0.669354557991,-0.649146020412,-0.457845062017,-0.534406483173,-0.264192014933
2017/07/09/10:21:23.772298,526844,1499566886,579095296,,0.797195831547,0.339955217823,0.124231583033,0.651636600601,0.756370865325,0.0411334610706,0.0397604479902,0.123806590479,-0.178224196819,-0.136327084641,-0.0310732201733,-0.196874485187,-0.226531851768,-1.50213730335,0.534586906433,-0.485445290804,-0.392676055431,-0.495213836432,-0.210689529777
2017/07/09/10:21:23.782008,526845,1499566886,589086166,,0.798525329566,0.337973878062,0.123440866588,0.652616932159,0.755440463843,0.0417817249509,0.0406833246879,0.137342103138,-0.207495532068,-0.128835416612,-0.00285461904078,-0.219148361278,-0.272972394402,-1.49678528309,0.580791473389,-0.438196122646,-0.405617207289,-0.474214732647,-0.221098482609
2017/07/09/10:21:23.795248,526846,1499566886,599091321,,0.799127661181,0.336464804634,0.121296289939,0.653278988401,0.754850033164,0.0419527721555,0.0408406128117,0.11935443209,-0.204814699082,-0.137761519149,0.00665342927878,-0.186394940904,-0.268810454411,-1.84378564358,0.428804755211,-0.188363417983,-0.256868213415,-0.599132955074,-0.154307946563
2017/07/09/10:21:23.802331,526847,1499566886,609090865,,0.80082048027,0.333843806146,0.120223357239,0.654687794556,0.75352297667,0.0428055060548,0.0418891864384,0.126064583826,-0.203550042472,-0.139861521564,0.00317994273925,-0.199242192301,-0.251394651021,-1.58075797558,0.422292083502,-0.315273821354,-0.251920878887,-0.5091766119,-0.159889817238
2017/07/09/10:21:23.812181,526848,1499566886,619092235,,0.802004170509,0.33231897184,0.118881475885,0.655365984241,0.752854245655,0.0434861082716,0.0426012897311,0.131870715159,-0.220930321848,-0.11993960766,-0.024732467971,-0.213072117794,-0.267267699502,-1.57689511776,0.345967620611,-0.360771179199,-0.21227426827,-0.498803406954,-0.151428550482
2017/07/09/10:21:23.822394,526849,1499566886,629097192,,0.802789775279,0.329582513622,0.117241173804,0.655965135999,0.752309380157,0.0433300344102,0.043160688121,0.112144678931,-0.231775801027,-0.139368821916,-0.0160178082054,-0.163045293938,-0.267102504955,-0.98135560751,0.376536011696,-0.436873853207,-0.23641705513,-0.293855458498,-0.175398439169
2017/07/09/10:21:23.832369,526850,1499566886,639093336,,0.803941551948,0.328110578313,0.116263541223,0.656867371594,0.75144335944,0.044065126895,0.0437766864945,0.105848779114,-0.236933352371,-0.143475614298,-0.0231702094755,-0.153654265611,-0.262766188039,-1.24630987644,0.440137684345,-0.534721255302,-0.256408184767,-0.410653799772,-0.210419610143
2017/07/09/10:21:23.842365,526851,1499566886,649089448,,0.804721054529,0.32497436723,0.114673555046,0.658384201162,0.750085094886,0.0441550578717,0.044191910503,0.0955259569885,-0.2001914599,-0.137806229131,0.0109928060431,-0.139918576633,-0.247762501423,-1.28580284119,0.395972907543,-0.451806038618,-0.222216665745,-0.410861998796,-0.18129786849
2017/07/09/10:21:23.852115,526852,1499566886,659084475,,0.805841813574,0.322782625193,0.113479749604,0.659270451137,0.749238016597,0.0447317278384,0.0447653802399,0.0942707843228,-0.198491665042,-0.14026997581,0.0234447835242,-0.134649868745,-0.252969758108,-1.15016758442,0.468921452761,-0.428706794977,-0.265472739935,-0.377974808216,-0.16172721982
2017/07/09/10:21:23.862121,526853,1499566886,669084668,,0.806155944205,0.320949830916,0.112054196572,0.660334497238,0.748293038126,0.044632671223,0.0449867259161,0.0871057992335,-0.236497731143,-0.150704715657,0.0115873455814,-0.0981147377268,-0.321308371607,-0.95199495554,0.52315479517,-0.442901879549,-0.229334533215,-0.328211903572,-0.112914294004
2017/07/09/10:21:23.872329,526854,1499566886,679091728,,0.807286948051,0.319693236613,0.111175136154,0.661052046255,0.747572616628,0.0456507786678,0.045402438447,0.0802281793262,-0.207932620719,-0.138641575794,0.0160677127325,-0.0981405001759,-0.255578523926,-0.822832942009,0.662778198719,-0.336570709944,-0.297845423222,-0.255775123835,-0.168443366885
2017/07/09/10:21:23.882304,526855,1499566886,689088245,,0.807169587694,0.317273304117,0.109030389888,0.661935727726,0.746855458101,0.0449998678874,0.0449780941628,0.0567890191706,-0.22001677225,-0.154698855036,0.0141909187853,-0.0472714110557,-0.261243943457,-1.08114266396,0.518927514553,-0.236529663205,-0.217885777354,-0.337516248226,-0.154678940773
2017/07/09/10:21:23.892077,526856,1499566886,699094927,,0.808181791849,0.314567495295,0.1079465811,0.663341168761,0.745556105211,0.0455041742525,0.0453206126936,0.0636543985196,-0.237288489113,-0.146954815474,0.0249522205026,-0.0554875882081,-0.297234474536,-0.846995770931,0.451877236366,-0.246040225029,-0.197750136256,-0.252796083689,-0.158716589212
2017/07/09/10:21:23.902128,526857,1499566886,709091220,,0.808872397069,0.312708816218,0.106852587673,0.664187417991,0.744760694025,0.045767015427,0.0457379789362,0.0690239740779,-0.251645550354,-0.133781929423,0.0190636374062,-0.0608743174428,-0.314002362608,-1.1810195446,0.2825075984,-0.0823094248772,-0.246582299471,-0.344416886568,-0.178380057216
2017/07/09/10:21:23.912100,526858,1499566886,719120189,,0.80881857755,0.310124440966,0.104957707514,0.66554263719,0.743601550039,0.0453421142878,0.0453191519595,0.0530921011263,-0.236661876812,-0.137277675436,0.0446343984156,-0.0344168156466,-0.332775874256,-1.21257603168,0.136410683393,-0.0783013701439,-0.0929669588804,-0.336426049471,-0.119990587234
2017/07/09/10:21:23.922153,526859,1499566886,729118980,,0.809339228664,0.307926305773,0.104167446697,0.666719946541,0.742510440039,0.0456287093769,0.0456155696928,0.0361055079359,-0.249793292632,-0.141500910851,0.035908438542,0.00595331898909,-0.333238307905,-1.43409347534,0.29955726862,-0.260917276144,-0.159227743745,-0.412540286779,-0.160467535257
2017/07/09/10:21:23.932194,526860,1499566886,739083905,,0.8100181017,0.30472467502,0.103009433401,0.668156469465,0.741202587296,0.045796928234,0.0456979021579,0.0325602151739,-0.253976680122,-0.146152231065,0.0331791051351,0.0172914814305,-0.322307274028,-1.530772686,0.0289752036333,-0.354489326477,-0.0607592128217,-0.433178067207,-0.142688721418
2017/07/09/10:21:23.942273,526861,1499566886,749089455,,0.809963436346,0.302433219072,0.101312438625,0.669594801917,0.739970372157,0.0455338818215,0.0448699808457,0.0412687118602,-0.252991509706,-0.137864579496,0.0798846782078,-0.000374443745476,-0.378406643655,-1.62425756454,0.210312202573,-0.509522795677,-0.105663612485,-0.478520482779,-0.132607221603
2017/07/09/10:21:23.952014,526862,1499566886,759090184,,0.810338281812,0.300244572352,0.0999395307136,0.670854797964,0.738823093569,0.0457297860381,0.0447555932438,0.0320154815492,-0.255175989168,-0.133259339937,0.0616535283374,0.02631307102,-0.374660983111,-1.87763595581,0.199011385441,-0.614573776722,-0.110277891159,-0.572073280811,-0.144296526909
2017/07/09/10:21:23.962271,526863,1499566886,769088045,,0.810325456116,0.297782348587,0.0989658857816,0.671867943239,0.737933583011,0.045507471468,0.0444585644423,0.012731331271,-0.257407411098,-0.142942080558,0.0489163968002,0.0658610466267,-0.356999591318,-1.55253589153,0.27919614315,-0.730806589127,-0.167641103268,-0.459969192743,-0.15724465251
2017/07/09/10:21:23.972338,526864,1499566886,779090924,,0.810264311886,0.295726978837,0.0973280489354,0.673184252941,0.736759529748,0.0456357123899,0.04388323909,0.0116114846392,-0.243359886851,-0.132428272204,0.0711318315449,0.0613155344662,-0.350947754132,-0.917336404324,0.350773602724,-0.476170301437,-0.177572458982,-0.200528666377,-0.159188449383
2017/07/09/10:21:23.982153,526865,1499566886,789119827,,0.811100678173,0.292885940058,0.096441120816,0.675141622822,0.734936093608,0.0460791677984,0.0439253655779,0.00980862301209,-0.260076194743,-0.142157832847,0.0714569818436,0.0660878344665,-0.387400431052,-0.34968495369,0.316687017679,-0.534363865852,-0.208338975906,-0.0188267454505,-0.174147546291
2017/07/09/10:21:23.992425,526866,1499566886,799084625,,0.810697273253,0.290964507602,0.0953329880546,0.675897171119,0.734303032999,0.0456880360452,0.0432974960448,0.0106037155071,-0.271980447955,-0.136485820688,0.0629763136931,0.074563548129,-0.393312253844,-0.0959816798568,0.490693211555,-0.451021760702,-0.244789153337,0.0719138532877,-0.202932476997
2017/07/09/10:21:24.002326,526867,1499566886,809091468,,0.810580940616,0.286454459245,0.0936476106443,0.677903810575,0.73251861167,0.0448277850439,0.0430508635532,0.0229941780777,-0.291481677091,-0.123294802748,0.0508937983213,0.0373383561134,-0.408093525771,-0.964483320713,0.265799224377,-0.311914592981,-0.128096967936,-0.255303025246,-0.165095478296
2017/07/09/10:21:24.012132,526868,1499566886,819091528,,0.81206236067,0.284219231032,0.0933581051015,0.679021265555,0.731366345221,0.0458346136671,0.0439610986205,0.0226486793043,-0.301172693314,-0.125133350971,0.0465095085182,0.0433277328415,-0.419040446313,-1.11426711082,0.1984962672,-0.463282197714,-0.145113438368,-0.318455904722,-0.195972815156
2017/07/09/10:21:24.022223,526869,1499566886,829083667,,0.811638003839,0.28169594467,0.0916883352482,0.680880056992,0.729730458451,0.0455958083253,0.0426242684775,0.0373623309221,-0.301618361996,-0.105001725537,0.0465214660897,0.00371068933121,-0.425195979023,-1.34588754177,0.451348155737,-0.250437319279,-0.27912735939,-0.364636689425,-0.21594569087
2017/07/09/10:21:24.032250,526870,1499566886,839090136,,0.81158056508,0.278204613287,0.0903187178843,0.682116409975,0.728604661464,0.0451008681099,0.0426422587462,0.0140312626044,-0.283555314335,-0.116269058817,0.0859347351147,0.051258154258,-0.428982268305,-0.631787419319,0.2676435709,-0.242264389992,-0.177367240191,-0.0131801888347,-0.190579161048
2017/07/09/10:21:24.042201,526871,1499566886,849088903,,0.811738397199,0.276210623133,0.0894177234779,0.683669340322,0.727178711612,0.0452690731103,0.041929291688,0.0208393608517,-0.304523927266,-0.107858168536,0.0612384063831,0.0350039487605,-0.438924335814,0.00166706740856,0.400399208069,-0.313528984785,-0.26194730401,0.228937983513,-0.251138985157
2017/07/09/10:21:24.052138,526872,1499566886,859090780,,0.812282188388,0.272113429036,0.0885797017754,0.68569603876,0.725238335771,0.0454096318331,0.0422878717046,0.00662016904668,-0.31919922436,-0.120456700319,0.0213733344579,0.0755606508888,-0.430066913367,-0.0881003141403,0.447268307209,-0.511427879333,-0.286385625601,0.126986294985,-0.262590318918
2017/07/09/10:21:24.061980,526873,1499566886,869082477,,0.812281692125,0.270005218146,0.0875686045036,0.686945772058,0.724095402352,0.0452326077588,0.0417775745984,0.0042170063311,-0.296310743606,-0.102254539841,0.0490541207247,0.0715201360093,-0.40342197746,-0.18729314208,0.289158642292,-0.568749010563,-0.0887649580836,0.0223346166313,-0.214784935117
2017/07/09/10:21:24.072175,526874,1499566886,879093566,,0.812267834213,0.266554808579,0.0864886584947,0.688326544964,0.722811885809,0.0449232107788,0.0416107001161,0.0204912768562,-0.314711412863,-0.0892617027603,0.0296708921882,0.0436907949354,-0.425915863577,-0.331767916679,0.0994359999895,-0.562515616417,-0.0215127021074,-0.0513671264052,-0.228279262781
2017/07/09/10:21:24.082003,526875,1499566886,889088701,,0.812303383233,0.263753670472,0.0852991690767,0.689998199286,0.721262291109,0.0446569031303,0.0410968783271,0.0315557237338,-0.344135879707,-0.0961358230677,0.0493643325724,0.0190236174061,-0.481453595766,-0.176422476768,0.371744632721,-0.597864627838,-0.23416826129,0.0262832529843,-0.295560479164
2017/07/09/10:21:24.092198,526876,1499566886,899090779,,0.812807545075,0.260352377912,0.0848583904535,0.691587538308,0.719723720494,0.0447212514319,0.0412850176935,0.0275098061483,-0.329955902091,-0.102159229365,0.051991056917,0.0230008626722,-0.473409828603,0.182431548834,0.575297653675,-0.546110033989,-0.323213607073,0.234515041113,-0.328324884176
2017/07/09/10:21:24.102109,526877,1499566886,909090812,,0.814072137,0.257232048335,0.084705976034,0.693629968264,0.717655465631,0.0459592090644,0.0416635437495,0.0415221992971,-0.315155244171,-0.0811879375641,0.0595341703657,-0.0141313319455,-0.44746291896,0.227214097977,0.548215985298,-0.592666685581,-0.34913277626,0.280366063118,-0.338695466518
2017/07/09/10:21:24.112183,526878,1499566886,919091691,,0.814146896789,0.25321299908,0.0835738865419,0.694584428616,0.716764825685,0.0452045709811,0.0419190046055,0.0299079912557,-0.344921696143,-0.0711586558232,0.0384131712698,0.00878242516409,-0.47090910817,-0.0711258873343,0.557682871819,-0.281994104385,-0.373099476099,0.203523486853,-0.366030067205
2017/07/09/10:21:24.122223,526879,1499566886,929083222,,0.814622979404,0.250326090136,0.0829076442638,0.696499376457,0.714893832004,0.045653533953,0.0416074800446,0.0373755838058,-0.345622210228,-0.0773782177781,0.0349820679683,0.00152137959987,-0.456532474019,-0.269146293402,0.406314581633,-0.225607544184,-0.277557611465,0.153478309512,-0.327311694622
2017/07/09/10:21:24.132193,526880,1499566886,939094654,,0.814502092967,0.24799007735,0.0821850159528,0.697858538934,0.713616079469,0.0455154208885,0.0409132890545,0.0482874537243,-0.352363608674,-0.0582120940417,0.0701993316208,-0.0257605669408,-0.503981983367,-0.788615643978,0.450134396553,-0.0478428713977,-0.271121352911,-0.0967993214726,-0.332328736782
2017/07/09/10:21:24.142075,526881,1499566886,949100630,,0.815442338574,0.244075883027,0.0819623342237,0.699615983276,0.711841757068,0.0458608008737,0.041419509673,0.045169987533,-0.338409155789,-0.0538330559834,0.071732559093,-0.0107117982084,-0.503672375526,-1.22947144508,0.260526657104,-0.0560686439276,-0.251513570547,-0.31413012743,-0.354298084974
2017/07/09/10:21:24.152219,526882,1499566886,959097814,,0.816250684253,0.240115383473,0.0818848712377,0.701768610944,0.70966597896,0.0465030560367,0.0416230798972,0.0721456170947,-0.335434773942,-0.0404021896086,0.0638538591978,-0.0777353914104,-0.479786714155,-1.10493671894,0.392984837294,0.00419585034251,-0.288397789001,-0.26095533371,-0.333879709244
2017/07/09/10:21:24.162111,526883,1499566886,969097300,,0.816630179983,0.237059326657,0.0807605421378,0.703159459277,0.708294040747,0.046325516854,0.0417165813507,0.0478812163874,-0.370677737891,-0.0500844469975,0.0355027359705,-0.0386894329367,-0.494998249094,-0.91904425621,0.603844046593,0.101239487529,-0.495277523994,-0.196663528681,-0.419915020466
2017/07/09/10:21:24.172193,526884,1499566886,979097059,,0.817230344162,0.23321960995,0.0806264679357,0.704922163192,0.706505772818,0.0467987660823,0.0417637678869,0.0623832605987,-0.362158386729,-0.0361457404637,0.0562688012869,-0.0673573276613,-0.492258198844,-1.02012491226,0.488509953022,0.0279893875122,-0.393994033337,-0.270865797997,-0.365053683519
2017/07/09/10:21:24.182193,526885,1499566886,989096932,,0.817391928504,0.230276753564,0.0802868247835,0.705999761078,0.705433746202,0.0467865830152,0.0416963155126,0.0685418671258,-0.361436882608,-0.0276359947733,0.0621624863158,-0.0802963158586,-0.470724793756,-1.0323113203,0.451610028744,-0.0784366652369,-0.440141379833,-0.346111238003,-0.378930419683
2017/07/09/10:21:24.192138,526886,1499566886,999087090,,0.818668110536,0.226381647169,0.0802082517641,0.707937168653,0.70340649595,0.0476261158505,0.0421428497419,0.0574267971898,-0.363673111833,-0.0314368463509,0.0440063243383,-0.0657229096155,-0.455019159984,-1.45411169529,0.295325756073,0.016934838146,-0.277765512466,-0.517220437527,-0.318381339312
2017/07/09/10:21:24.202233,526887,1499566887,9091027,,0.819240092626,0.22320108483,0.0799060562572,0.708986430088,0.702315375987,0.0475925707882,0.0427352525466,0.0475732102793,-0.380810063211,-0.0342885814609,0.0151630609879,-0.0383108587858,-0.432078929098,-0.984159708023,0.426225930452,-0.0620950311422,-0.392448037863,-0.363325685263,-0.350202471018
2017/07/09/10:21:24.212198,526888,1499566887,19086211,,0.818821717051,0.219683505032,0.0791605287868,0.710332714535,0.701021046498,0.0472583702252,0.0419949219892,0.0618103329395,-0.375235306959,-0.0211552018949,0.0144003775096,-0.0688845181014,-0.398799402945,-0.830069541931,0.411545455456,0.0741933584213,-0.380727648735,-0.300493657589,-0.333626538515
2017/07/09/10:21:24.222226,526889,1499566887,29096514,,0.820121867783,0.216147657544,0.0797235960989,0.711546325571,0.699685019806,0.047902031404,0.0429894756085,0.0523043500116,-0.354269568388,-0.0233288641528,0.0258196469094,-0.0563956216252,-0.360486260536,-0.824631214142,0.418692827225,-0.0765730217099,-0.425361901522,-0.339154690504,-0.324376583099
2017/07/09/10:21:24.232334,526890,1499566887,39087388,,0.820915103408,0.212055040337,0.0799016754757,0.712264339856,0.69889675477,0.048210972611,0.0435722212053,0.0598930722087,-0.362576589177,-0.0148180137532,0.00759090307285,-0.0773231588195,-0.336994079662,-0.317551493645,0.208977684379,-0.0894742235541,-0.322792887688,-0.144747182727,-0.293633550406
2017/07/09/10:21:24.242164,526891,1499566887,49088988,,0.820661239917,0.208435658338,0.0789867595662,0.713754785257,0.697431897765,0.0477372520701,0.0431741736143,0.0624321044153,-0.397964330233,-0.0176091958667,0.00688464233486,-0.0889905828398,-0.34886227137,-0.434207975864,0.337741672993,-0.18336725235,-0.356331855059,-0.268544882536,-0.251139372587
2017/07/09/10:21:24.252151,526892,1499566887,59096285,,0.821813658174,0.204212223994,0.0791850355634,0.715260907161,0.69577953162,0.048510254336,0.0440389973825,0.0527350815671,-0.392815030111,-0.00863694300437,0.0138335750441,-0.0697090151981,-0.360899240178,-0.486007004976,0.411838412285,-0.312567532063,-0.428213089705,-0.363380968571,-0.286370992661
2017/07/09/10:21:24.262172,526893,1499566887,69088931,,0.82234678766,0.200866960454,0.0788410463753,0.716455200554,0.694526022969,0.0487882772661,0.0441050226029,0.0486200363301,-0.40956079866,-0.0103052669742,0.00822774776979,-0.0593908092429,-0.392742628303,-0.73295134306,0.315006941557,-0.375415146351,-0.403205931187,-0.508670508862,-0.275849103928
2017/07/09/10:21:24.272112,526894,1499566887,79091464,,0.822275884455,0.19715969977,0.0784786058374,0.71808673866,0.692859137708,0.0486311937254,0.0439620069125,0.0683076483752,-0.418395886429,-0.00338323831393,0.0200705761202,-0.108089890799,-0.468061859365,-0.424299716949,0.34507381916,-0.319372266531,-0.393755912781,-0.445825815201,-0.291759252548
2017/07/09/10:21:24.282546,526895,1499566887,89086088,,0.823055926888,0.193230999463,0.0788581450127,0.720101010247,0.690699262359,0.0492305251793,0.0443330509632,0.0370183595083,-0.384460381401,-0.0259800410027,0.044487339903,-0.050446587243,-0.507089374598,-0.417588531971,-0.0169177949429,-0.26192522049,-0.202617973089,-0.41838529706,-0.235091626644
2017/07/09/10:21:24.292246,526896,1499566887,99086473,,0.823600367247,0.189441455636,0.0781461153317,0.721956962745,0.688712007437,0.049607788898,0.0446428273791,0.0577356342207,-0.372179914525,-0.0130573108396,0.0577452872349,-0.0980622975467,-0.528685248112,-0.251719743013,0.136617898941,-0.107420861721,-0.28446111083,-0.342992991209,-0.240862324834
2017/07/09/10:21:24.302200,526897,1499566887,109084426,,0.824973753273,0.186476060942,0.0788449737941,0.723053361416,0.687418471561,0.0508323669494,0.0454505442343,0.0548942683386,-0.374789769933,-0.0197825549606,0.0515803303108,-0.0992035736645,-0.492115640532,-0.0165501236916,0.177146568894,-0.280985742807,-0.342153251171,-0.265518963337,-0.260817855597
2017/07/09/10:21:24.312004,526898,1499566887,119091085,,0.82451729142,0.182299871972,0.0784781009667,0.724672994842,0.685765560893,0.0503699446533,0.0451388382278,0.0419262522728,-0.419790091491,-0.0197292681412,0.0210973572458,-0.0734195882514,-0.508939760411,-0.163227468729,0.49069532752,-0.298206418753,-0.57455509901,-0.294796407223,-0.335547804832
2017/07/09/10:21:24.322207,526899,1499566887,129089463,,0.824725293554,0.178054748904,0.0781281100417,0.72615891372,0.684198082348,0.0501241165426,0.0453187497242,0.0485672877257,-0.399837828856,-0.022693770355,0.0157535294691,-0.0875778664513,-0.444627857077,-0.228545039892,0.377991527319,-0.539015233517,-0.464876145124,-0.384429335594,-0.296971321106
2017/07/09/10:21:24.332119,526900,1499566887,139083980,,0.82548046105,0.173737680673,0.0778081199656,0.72767049161,0.682492519273,0.0506954353054,0.0461474768101,0.0426705526027,-0.415996870001,-0.0201415661643,-0.0110043166899,-0.0857123954351,-0.426326073877,-0.43800842762,0.264547586441,-0.449286967516,-0.380481630564,-0.455002337694,-0.2423710078
2017/07/09/10:21:24.342400,526901,1499566887,149084394,,0.826227892406,0.171043501595,0.0777381336748,0.72850774126,0.681535589892,0.0511163583489,0.0466136090062,0.0523956930275,-0.39274033237,0.000613863001689,0.0263847004003,-0.116438630053,-0.410956027847,-0.474221736193,0.405604094267,-0.482818692923,-0.382847040892,-0.491622298956,-0.254957318306
2017/07/09/10:21:24.352239,526902,1499566887,159085326,,0.826368272846,0.166771907712,0.0774670171353,0.730241444831,0.679655383826,0.0514470727508,0.0465745659468,0.0487366097814,-0.380453179881,-0.00567382898031,0.0230957277469,-0.110398436579,-0.384421909933,-0.146507978439,0.201642215252,-0.551578402519,-0.330874979496,-0.364583671093,-0.202490672469
2017/07/09/10:21:24.362196,526903,1499566887,169084895,,0.826382217442,0.162906246763,0.0770030127969,0.73117498701,0.678653394189,0.051077298147,0.0469448457342,0.0287239027067,-0.38913757874,-0.0248918120508,0.0100656020273,-0.0664532019269,-0.384594437824,0.189595416188,0.32075303793,-0.654733359814,-0.444969058037,-0.255251765251,-0.258033812046
2017/07/09/10:21:24.372013,526904,1499566887,179094641,,0.827204630087,0.159511120641,0.0774613615359,0.731831755544,0.677842392049,0.0518477031422,0.0475792895829,0.0398253381027,-0.410313577474,-0.0223566180161,-0.00613498559979,-0.101180707806,-0.372793671849,-0.193518429995,0.117146261036,-0.764437735081,-0.341139912605,-0.403285473585,-0.247496068478
2017/07/09/10:21:24.382781,526905,1499566887,189085258,,0.827299177134,0.155923639609,0.0766405206092,0.733292725915,0.676261986557,0.0518157016155,0.0476092083937,0.0236063125792,-0.388398410109,-0.0427309079406,0.0155665837011,-0.0513402484394,-0.319641129017,-0.0774831324816,0.15222799778,-0.874910056591,-0.361301749945,-0.358264297247,-0.235298365355
2017/07/09/10:21:24.392144,526906,1499566887,199084192,,0.82767304993,0.152800095943,0.0763691284971,0.73395997246,0.675481548324,0.052419127647,0.0477459082636,0.0339179240968,-0.378842077874,-0.0302603412905,0.01728428839,-0.0922839490848,-0.321344103653,-0.559292435646,0.166884422302,-0.769756495953,-0.338855683804,-0.543459057808,-0.218202590942
2017/07/09/10:21:24.402316,526907,1499566887,209091447,,0.827084212125,0.14835795561,0.0755992853367,0.735416329117,0.673956350263,0.0518927924688,0.047463658713,0.0134220559458,-0.384196856445,-0.0418470961171,0.0142448785589,-0.0523869948823,-0.307317248844,-0.399156808853,0.173332408071,-0.646381080151,-0.353407621384,-0.47490721941,-0.212967127562
2017/07/09/10:21:24.411995,526908,1499566887,219091681,,0.828246749405,0.144225631969,0.0759308784683,0.736318621023,0.67281352739,0.0527280562261,0.0487503618819,0.00852378182769,-0.419034984043,-0.0381008667772,-0.00743945960051,-0.0523186019606,-0.33089425242,-0.902695953846,0.143664687872,-0.579019188881,-0.302206099033,-0.661048769951,-0.199828594923
2017/07/09/10:21:24.421900,526909,1499566887,229084582,,0.827424439438,0.140622204996,0.0750282168729,0.737171764639,0.671956075099,0.0520782426633,0.0483805663236,0.00492342539634,-0.409792503719,-0.0416647138443,-0.013792856653,-0.0412840367773,-0.314571423325,-0.655874967575,0.296630114317,-0.427663087845,-0.430961728096,-0.542601704597,-0.25831335783
2017/07/09/10:21:24.432413,526910,1499566887,239088424,,0.827565099956,0.136437089752,0.0748248003668,0.738738213569,0.670198591907,0.0524037185657,0.048513395048,-0.00652627015551,-0.406845688754,-0.0459101891177,0.0109292981541,-0.0284554802118,-0.351030511525,-0.663089931011,0.258510172367,-0.546377897263,-0.405345708132,-0.551636278629,-0.241661638021
2017/07/09/10:21:24.442039,526911,1499566887,249092846,,0.827619844148,0.132999744068,0.0740787794429,0.739380330452,0.669461074114,0.0525623573153,0.0487421355682,0.00251943165027,-0.411017454414,-0.0462302559579,0.00618094104914,-0.0468056634578,-0.361990063133,-0.58093559742,0.223918229342,-0.575870096684,-0.347948133945,-0.522992789745,-0.246309548616
2017/07/09/10:21:24.452232,526912,1499566887,259090068,,0.827377059316,0.129493436447,0.0736622849604,0.74032106168,0.66843413203,0.0524093442329,0.0487216318215,0.0167857590075,-0.384344071038,-0.0341406571818,0.012017924275,-0.0828181508621,-0.321638629934,-0.65702611208,0.0502194464207,-0.624615848064,-0.258104681969,-0.545269489288,-0.18619261682
2017/07/09/10:21:24.461851,526913,1499566887,269090151,,0.82747912036,0.125822462527,0.0729304521989,0.741326897543,0.667288239131,0.0527055606647,0.0488155791936,-0.000494620645372,-0.392149431057,-0.0500671610088,-0.00132731505974,-0.050407117508,-0.289875228295,-0.397644817829,0.135978609324,-0.890356183052,-0.349047988653,-0.478833645582,-0.243848279119
2017/07/09/10:21:24.472022,526914,1499566887,279091183,,0.827607452061,0.122012027712,0.0725876730403,0.741750931119,0.666784100209,0.0525315315748,0.0494465174026,-0.0143492451108,-0.366322805265,-0.0590186383361,0.00581685669712,-0.0175359005521,-0.214362333221,-0.286743998528,-0.0149260610342,-0.907359182835,-0.222281247377,-0.429148048162,-0.171185806394
2017/07/09/10:21:24.482142,526915,1499566887,289087944,,0.827189071611,0.11897131715,0.0718161386148,0.742494415672,0.665980574827,0.0527748913388,0.0488541450924,-0.00740919041137,-0.363584557021,-0.0632309413989,0.00837072804168,-0.032287913434,-0.199627209976,0.31331372261,0.258069872856,-1.12717652321,-0.409893929958,-0.217129647732,-0.237692862749
2017/07/09/10:21:24.492103,526916,1499566887,299083397,,0.827085083958,0.115277357149,0.0709865686703,0.742794409919,0.665626529926,0.0526522230937,0.0492496767014,-0.0170441665024,-0.379677587171,-0.0636966381758,-8.55204720956e-05,-0.0180642360316,-0.211869575096,0.105529367924,0.297471225262,-1.0011588335,-0.415221095085,-0.280627548695,-0.237428337336
2017/07/09/10:21:24.502018,526917,1499566887,309087560,,0.827443053243,0.11127396093,0.0711396655243,0.743793315651,0.664425035151,0.0531745653934,0.0498331401028,-0.0145971495814,-0.379859957289,-0.0610822539643,-0.0129963203395,-0.0196891399436,-0.196711786398,0.59570556879,-0.0756141394377,-1.15231180191,-0.253201633692,-0.106186285615,-0.214243501425
2017/07/09/10:21:24.512207,526918,1499566887,319090438,,0.826914003568,0.107745825165,0.0702811858036,0.744749414569,0.663392246396,0.0527132642339,0.0498030992466,-0.0246384599387,-0.387743934806,-0.0626988851401,-0.00733389884176,-0.0120625826699,-0.269634085251,0.182456731796,-0.0659340620041,-1.133066535,-0.228776678443,-0.28930196166,-0.204175457358
2017/07/09/10:21:24.521785,526919,1499566887,329088037,,0.826747118194,0.10336342495,0.0698092114732,0.746264704309,0.661651347145,0.0528141496287,0.0501712220698,-0.0091740825639,-0.38218758846,-0.0531558496939,0.00454261049739,-0.0450250496371,-0.334165043257,0.332178503275,-0.0112491995096,-1.01426899433,-0.284790933132,-0.192865476012,-0.214581519365
2017/07/09/10:21:24.532476,526920,1499566887,339088131,,0.826902091437,0.10051131984,0.0693479830303,0.747326144222,0.660419280864,0.0530100526447,0.050397836693,-0.00840240421365,-0.359484160538,-0.0550527565285,0.0195644598517,-0.0452280802409,-0.357949281221,-0.00842344388366,0.0469102859497,-0.659240067005,-0.274521768093,-0.258859932423,-0.245793566108
2017/07/09/10:21:24.542417,526921,1499566887,349090726,,0.826933601098,0.096630579072,0.0688849930757,0.74851015763,0.659040978579,0.0531279485104,0.0507440002882,-0.00328518993664,-0.353566599147,-0.0574884889281,0.0169324424341,-0.0576281529982,-0.388805926641,-0.239408358932,0.398730278015,-0.515892386436,-0.430736899376,-0.345562875271,-0.263802677393
2017/07/09/10:21:24.552182,526922,1499566887,359095761,,0.826516589575,0.0930381223046,0.0679296262926,0.74945659936,0.657980000949,0.0530502148286,0.0506240924223,-0.0222907770772,-0.370083721699,-0.0612139417163,0.0189191976685,-0.0195333382043,-0.413619696401,-0.0143229886889,0.311525672674,-0.406926244497,-0.380981534719,-0.24231736362,-0.291493237019
2017/07/09/10:21:24.562156,526923,1499566887,369091170,,0.826170110861,0.0908199254559,0.0671154171739,0.750790982324,0.656466311661,0.0532876725663,0.0502524274761,-0.011605728654,-0.351101366102,-0.0592409798374,0.0256225752611,-0.0400470285858,-0.364762006089,-0.261648476124,0.182372584939,-0.520500838757,-0.257684677839,-0.366875112057,-0.23045322299
2017/07/09/10:21:24.572075,526924,1499566887,379085036,,0.826770630695,0.0871610326545,0.0669467780134,0.75187968187,0.655128138455,0.0536857864925,0.0510088475112,-0.0137582368124,-0.350060327885,-0.0579053177371,0.0405630482764,-0.0449965360509,-0.390077070222,-0.424963891506,0.393518090248,-0.493835031986,-0.351591080427,-0.41101321578,-0.257115662098
2017/07/09/10:21:24.582196,526925,1499566887,389084461,,0.826401043429,0.0836181925339,0.0665030436552,0.753232027364,0.653567962626,0.0538035940151,0.0509470750217,-0.018862404825,-0.354137459722,-0.0601932305564,0.0341791217754,-0.0347676013032,-0.403330615005,-0.145684570074,0.346845388412,-0.579155683517,-0.32969647646,-0.299447834492,-0.247041091323
2017/07/09/10:21:24.592205,526926,1499566887,399087864,,0.826333255825,0.0803535896071,0.0657158253621,0.754479403577,0.652098833491,0.0541333297701,0.0509659057084,-0.0146051943492,-0.376515521951,-0.0536498207399,0.0086180473832,-0.0520868282947,-0.405933308119,0.00925014913082,0.16832831502,-0.75698274374,-0.245547324419,-0.283048331738,-0.207095205784
2017/07/09/10:21:24.602150,526927,1499566887,409091317,,0.825719383076,0.0773762026531,0.0647443575156,0.75538048931,0.651111133896,0.0537239350759,0.0506788563942,-0.032509561252,-0.362587416909,-0.0817562016032,0.0319619396849,-0.010257195485,-0.390235538372,0.363401681185,-0.00671108067036,-0.805671453476,-0.151447042823,-0.148413151503,-0.197104126215
2017/07/09/10:21:24.612027,526928,1499566887,419087344,,0.825823582832,0.0726650754377,0.0647909437472,0.75716122914,0.648947351727,0.0538838050628,0.051679234962,-0.011935298162,-0.35127586686,-0.0548115692798,0.0361147812277,-0.0533742237966,-0.39597859357,0.488003522158,-0.071815982461,-0.975704908371,-0.2213357687,-0.105987764895,-0.240594863892
2017/07/09/10:21:24.621773,526929,1499566887,429084649,,0.825571070638,0.0699619463452,0.0640352835262,0.758260713728,0.647665243072,0.054227517449,0.0512815686678,-0.032364695458,-0.357548635188,-0.0629029909685,0.0234811874154,-0.0134526517554,-0.386003155623,0.418464571238,-0.138236105442,-0.953295111656,-0.0975406765938,-0.189859107137,-0.193138763309
2017/07/09/10:21:24.632472,526930,1499566887,439090413,,0.82499425132,0.0665465957262,0.063184163427,0.759486508164,0.646245394609,0.0540382192064,0.051254314237,-0.0233055751529,-0.336175182664,-0.0564801749511,0.0384148221005,-0.0284476148896,-0.36962318913,0.0803920030594,0.0778545290232,-0.981993436813,-0.305221766233,-0.365577340126,-0.255525738001
2017/07/09/10:21:24.642002,526931,1499566887,449084202,,0.824585172232,0.063288431279,0.0624341307512,0.760474547725,0.645103675035,0.0539519764028,0.0510773429273,-0.0185364561566,-0.324964692178,-0.0548052513153,0.0326800997876,-0.0396377922719,-0.336782296522,-0.29056212306,0.143131226301,-0.853022158146,-0.313770264387,-0.515548765659,-0.233258068562
2017/07/09/10:21:24.652087,526932,1499566887,459094518,,0.824605193711,0.0599289198635,0.0620321729089,0.761494959217,0.643853273611,0.0540878727618,0.0515062245442,-0.0204351373012,-0.345588186109,-0.0518140657807,0.0195006842794,-0.0397804063726,-0.341626150388,0.241151452065,0.252366989851,-0.825240969658,-0.416826575994,-0.312316685915,-0.295779615641
2017/07/09/10:21:24.661926,526933,1499566887,469084469,,0.824906386308,0.0567793720829,0.0621272723465,0.762317579601,0.642797926997,0.0542621682014,0.0523292459491,-0.0239727775519,-0.332694349675,-0.050435260482,0.00693128817946,-0.0317634251543,-0.32043661779,-0.253293573856,0.350343078375,-0.881562232971,-0.453899383545,-0.529182136059,-0.273112624884
2017/07/09/10:21:24.671929,526934,1499566887,479084030,,0.824561914778,0.0551262795387,0.0613794811818,0.763190685674,0.641772881921,0.0550074428887,0.0513977291076,-0.0251359214094,-0.340487888345,-0.0520738397548,0.00470325451706,-0.0410963020903,-0.321044467926,-0.0304404646158,0.210614129901,-0.914150476456,-0.408727645874,-0.41519895196,-0.27719604969
2017/07/09/10:21:24.682275,526935,1499566887,489093986,,0.824282018442,0.0510985021256,0.0610521777667,0.763960390006,0.640819463412,0.0548006009068,0.052075252797,-0.0406834372141,-0.332069105143,-0.0480016104614,0.014293911602,-0.0147944855399,-0.321343876092,0.134471997619,0.0550900548697,-0.866033911705,-0.2412994802,-0.32240074873,-0.225883692503
2017/07/09/10:21:24.692312,526936,1499566887,499096648,,0.82364150179,0.0485813128864,0.0600869268859,0.765059140184,0.639536565309,0.0549151696897,0.0515928075525,-0.0200140819046,-0.331117534904,-0.0438705734482,-0.00276354000385,-0.0572329717522,-0.301021767005,0.695580422878,-0.0953742265701,-0.950782001019,-0.193699195981,-0.055933419615,-0.243967041373
2017/07/09/10:21:24.702016,526937,1499566887,509108589,,0.823178781081,0.0449700855756,0.0598433957269,0.766043184668,0.63836419528,0.0546042136602,0.0518398809654,-0.0348430625839,-0.305299327492,-0.0578868928671,0.00537264706319,-0.00896882663472,-0.243966667902,0.936024308205,-0.111406236887,-0.926756083965,-0.207376375794,0.0919120833278,-0.261418759823
2017/07/09/10:21:24.712166,526938,1499566887,519090703,,0.822515342476,0.0418179260552,0.0589276121327,0.766906558594,0.637374254698,0.054162972347,0.0517181038003,-0.031029059144,-0.29159865717,-0.0429495656995,0.0203472653055,-0.0177705231336,-0.257543799853,0.450135558844,0.126460447907,-0.926376521587,-0.2319137007,-0.103080429137,-0.253672510386
2017/07/09/10:21:24.721983,526939,1499566887,529088191,,0.821778403934,0.0385695571198,0.0582338647892,0.767337627124,0.636886043804,0.0537420787994,0.0517776223279,-0.0559865201393,-0.325048171177,-0.0510528775248,-0.00782191417939,0.0280567459608,-0.258723941765,-1.43430531025,-2.52714586258,-1.26223278046,0.139925867319,-0.64313441515,-0.232945397496
2017/07/09/10:21:24.732399,526940,1499566887,539090668,,0.821739070035,0.0364295588722,0.0584649324866,0.768389895784,0.635583128286,0.0542056663471,0.051699137632,-0.0676732465179,-0.317438309495,-0.0465360941333,0.0236670312585,0.0453360796164,-0.273572557858,-0.706772744656,-1.65657436848,-0.538130402565,-0.0311865061522,-0.465521126986,-0.265792250633
2017/07/09/10:21:24.742149,526941,1499566887,549084245,,0.820989877982,0.0347243200039,0.057762648746,0.768579619339,0.635442360447,0.053919265655,0.0509027315381,-0.0625483448475,-0.257515602283,-0.0534755717187,0.0477437648536,0.0684881294245,-0.197020970467,-0.560298919678,-0.908356130123,-1.3790088892,-0.307552963495,-0.390315264463,-0.306392848492
2017/07/09/10:21:24.752226,526942,1499566887,559089235,,0.820335156352,0.0313705868381,0.0576770787321,0.768989016517,0.634990594388,0.0533273632476,0.0509806810847,-0.0558939333755,-0.256650041398,-0.0424512428074,0.0234800301191,0.0579917583169,-0.147118609408,-0.644503593445,-0.642672181129,-0.845081448555,-0.0755625218153,-0.557183146477,-0.154647260904
2017/07/09/10:21:24.762152,526943,1499566887,569086816,,0.818942176888,0.0283320509493,0.0564701298399,0.769745700492,0.634174875027,0.0527869955032,0.050272433442,-0.0867044242387,-0.246734268295,-0.0538936089582,0.0236514734335,0.133624251304,-0.0906909089483,-1.30259692669,-2.25587582588,-1.38247132301,0.354132354259,-0.778696358204,-0.0589091926813
2017/07/09/10:21:24.772011,526944,1499566887,579090915,,0.818654768248,0.0265294101088,0.057098040198,0.769342724606,0.634673617942,0.0526102670924,0.0503322022286,-0.0804594586238,-0.289185997149,-0.0359911408684,-0.0243775000301,0.0984753107836,-0.10567090789,-0.800773322582,-0.861178040504,-0.549438714981,0.141580194235,-0.636124372482,-0.138538017869
2017/07/09/10:21:24.782376,526945,1499566887,589082691,,0.817983234049,0.0235547428982,0.0567945819245,0.769872025848,0.634066373579,0.0522139412841,0.0503050896872,-0.0651847111178,-0.281525530113,0.000756929757466,-0.0297270464611,0.0527246838253,-0.0765498027487,-1.72709667683,-0.410920262337,-0.424418509007,0.0600175186992,-0.991480410099,-0.116502560675
2017/07/09/10:21:24.792226,526946,1499566887,599086954,,0.816800638475,0.0218856546853,0.055840940054,0.770135267144,0.633884541622,0.0515897232823,0.0491991732107,-0.0821156946244,-0.2380953831,-0.0443326260772,0.0520066448811,0.10444140743,-0.0641548729463,-1.33781266212,-0.149791747332,-1.00209450722,-0.165381595492,-0.802829444408,-0.212947547436
2017/07/09/10:21:24.802044,526947,1499566887,609088456,,0.816665810482,0.0187184699551,0.0557643202411,0.770609587453,0.633267906449,0.0517443614727,0.0495494040708,-0.0805974024025,-0.229127919434,-0.0551463130261,0.0575231772355,0.107620856339,-0.0683225185133,0.98623842001,0.480699002743,-1.19255650043,-0.971049308777,0.262294530869,-0.480323016644
2017/07/09/10:21:24.812180,526948,1499566887,619083355,,0.816194954164,0.0182092288166,0.0554117285212,0.770406135082,0.633594336443,0.0519688629996,0.0482891409455,-0.0716013023918,-0.215516416036,-0.0357222023378,0.0551051636987,0.104983847797,-0.0445263119711,1.65284860134,2.45062685013,-1.03797805309,-1.62168371677,0.486000239849,-0.555583000183
2017/07/09/10:21:24.822132,526949,1499566887,629085430,,0.815208653673,0.0156287547123,0.0548752111852,0.770437575325,0.633636766919,0.0511540113006,0.048100491298,-0.0740282882074,-0.195717032578,-0.044535155417,0.0640580131114,0.128861892122,-0.0105244303866,1.84145307541,2.00237059593,-0.823552787304,-1.44943666458,0.507937908173,-0.545336186886
2017/07/09/10:21:24.832478,526950,1499566887,639090778,,0.813825470524,0.0140743778807,0.0540930388672,0.770421641047,0.633819613829,0.0504178832485,0.0467036313596,-0.104675266292,-0.220223641776,-0.0510873476774,0.0306857784192,0.191013951371,-0.0118036293579,0.646120607853,0.963248431683,-1.28693270683,-0.849956452847,0.00127699784935,-0.331137895584
2017/07/09/10:21:24.842427,526951,1499566887,649084189,,0.813420356421,0.0115477525259,0.0542362428921,0.770506524204,0.633740330084,0.0500645659533,0.0467592709564,-0.105284241667,-0.218746492886,-0.0435526483507,0.00402591706719,0.201666275877,0.0198066359688,-0.226656422019,-0.0882112383842,-0.837394714355,-0.178841635585,-0.453015744686,-0.155271589756
2017/07/09/10:21:24.852099,526952,1499566887,659083598,,0.812108580389,0.00944998046959,0.053614843462,0.770722041555,0.633624914344,0.0488652086151,0.0460347039855,-0.115067957833,-0.241076769855,-0.0398961553167,-0.0131937026301,0.209268964671,-0.0143798232628,-0.322578579187,-1.19435918331,-0.781885504723,0.234752312303,-0.516124665737,-0.0539193302393
2017/07/09/10:21:24.862078,526953,1499566887,669089640,,0.811034866069,0.00823334930733,0.0527128952174,0.77071523253,0.633770303819,0.0481294177988,0.0449087016745,-0.10282267499,-0.206636876285,-0.0341401506482,0.0296892097075,0.198097264685,-0.0477414011474,-0.469112187624,-0.279196679592,-1.62299919128,0.0988034978509,-0.556443810463,-0.0841348841786
2017/07/09/10:21:24.872131,526954,1499566887,679090018,,0.810421888823,0.00643837790517,0.0532412812731,0.771453813751,0.63291983488,0.0480822747959,0.0442672645888,-0.0987689348583,-0.190321704259,-0.0434168462888,0.054851778956,0.205372480331,-0.0924131923424,-0.296098232269,-0.661826074123,-0.894440293312,0.137211307883,-0.488147616386,-0.0879186764359
2017/07/09/10:21:24.882128,526955,1499566887,689098237,,0.809360306402,0.00493378294305,0.0528395231986,0.771711118253,0.632731125228,0.0473111620125,0.0433004281829,-0.0969675958176,-0.159052201739,-0.04575326719,0.0775059183603,0.214236623811,-0.0965767051873,-0.170976415277,-0.461267799139,-1.05135440826,-0.00622521340847,-0.331421494484,-0.113017298281
2017/07/09/10:21:24.891942,526956,1499566887,699090589,,0.808892393124,0.00285754254237,0.0530179988675,0.77247931201,0.631839217843,0.0470304985929,0.042930729252,-0.0820466405703,-0.187234134032,-0.01583540547,0.0712142876821,0.159792946123,-0.19366500185,0.0681100189686,-0.213198587298,-0.259678125381,-0.188922956586,-0.214209020138,-0.177907139063
2017/07/09/10:21:24.902249,526957,1499566887,709087184,,0.807874423189,0.00136815374664,0.0522090122951,0.773176214659,0.631105662603,0.0464949976759,0.0417420520373,-0.0689370552005,-0.165988564731,-0.00788954354614,0.0847360352317,0.149937601957,-0.182550553262,0.0147712510079,-0.083479732275,-1.01115965843,-0.32957392931,-0.147460699081,-0.217830076814
2017/07/09/10:21:24.912040,526958,1499566887,719088339,,0.806588064876,-0.000299862087275,0.0518151229913,0.773955501161,0.630283075739,0.0455880908696,0.040716736495,-0.0954748446861,-0.134242115888,-0.0394048589928,0.0983510251471,0.232922473833,-0.163963751909,-0.230408400297,-0.369512945414,-1.06392967701,-0.280792593956,-0.168473541737,-0.14429178834
2017/07/09/10:21:24.922261,526959,1499566887,729090153,,0.805115495402,-0.00202687858249,0.0513610417731,0.773923594996,0.63048001109,0.0442455983163,0.0397435749933,-0.108502767013,-0.145349020702,-0.0344070878589,0.0503831036812,0.265986250007,-0.107937670233,0.114752538502,-0.331540763378,-0.724831461906,-0.204848572612,-0.0580731667578,-0.123448804021
2017/07/09/10:21:24.932749,526960,1499566887,739090099,,0.804858143228,-0.00204784250311,0.0516801660308,0.773468970962,0.631107665786,0.044054518834,0.0388338063518,-0.10908522602,-0.149369422479,-0.0183835228818,0.0587712843226,0.25551617606,-0.0336838127636,-0.768881320953,0.185410946608,-0.44184795022,-0.182485625148,-0.452910453081,-0.10496609658
2017/07/09/10:21:24.942227,526961,1499566887,749090265,,0.803079694924,-0.00438762996883,0.0508728641497,0.773705155256,0.630994462195,0.0426969065333,0.0374605870358,-0.116560992966,-0.12438022654,-0.0354690383128,0.0818661195256,0.288046320185,0.0316661593633,-1.24839437008,-0.499951303005,-0.467757970095,0.00841391459107,-0.657094359398,-0.0558325797319
2017/07/09/10:21:24.952209,526962,1499566887,759092290,,0.802210770377,-0.00526279065489,0.0509212208616,0.77391950891,0.630844938627,0.0420356711867,0.0362802905891,-0.1254637794,-0.140906853315,-0.0256335274565,0.0570442555315,0.304188365119,0.0325851230304,-1.03858757019,0.0502479933202,-0.100993290544,-0.0968959480524,-0.689112186432,-0.0450137257576
2017/07/09/10:21:24.962230,526963,1499566887,769088513,,0.801094690738,-0.00622109997984,0.0504368193166,0.773763677634,0.631166214189,0.0410421986938,0.0351357249438,-0.122620700041,-0.133528603763,-0.0227153058361,0.0812868788891,0.299765973535,-0.014010193627,-1.35268735886,0.561017155647,-0.28889515996,-0.314203351736,-0.800628006458,-0.0782971531153
2017/07/09/10:21:24.972164,526964,1499566887,779091165,,0.79960323606,-0.00688810512858,0.049930349535,0.774175466465,0.630807940093,0.040259167879,0.0333599946165,-0.122934056385,-0.116945844407,-0.0293114859949,0.0845494405995,0.303752102809,-0.0265386033177,-0.792116582394,0.652919411659,-1.09876847267,-0.266042739153,-0.490876972675,-0.0437254235148
2017/07/09/10:21:24.982324,526965,1499566887,789106806,,0.798123523436,-0.00892985046116,0.0492491575773,0.774917650546,0.630029146036,0.0390281700446,0.0322910507847,-0.121976137167,-0.101337739802,-0.0428069895671,0.100567465326,0.306012387777,-0.0677005844763,-0.267920553684,-0.204483523965,-0.844428837299,-0.0432811491191,-0.232655376196,-0.0257407668978
2017/07/09/10:21:24.992155,526966,1499566887,799087031,,0.797403725037,-0.00899756179143,0.0492504411459,0.774975089685,0.630049123269,0.0385486611002,0.0310759290042,-0.128895582929,-0.113496611461,-0.0369253302169,0.0969663503268,0.312173495575,-0.138260628764,0.322337895632,0.464051425457,-0.315923124552,-0.125982299447,0.0190559290349,-0.0343491658568
2017/07/09/10:21:25.002228,526967,1499566887,809090747,,0.796240290482,-0.0111748104822,0.0494155900266,0.776196152475,0.628637076993,0.0377279688244,0.030192030101,-0.113477761207,-0.11299052192,-0.0161697231086,0.0927728085641,0.283491618477,-0.152274285801,-0.39708930254,-0.777160167694,0.0419652611017,0.038809414953,-0.194894313812,-0.045405074954
2017/07/09/10:21:25.012082,526968,1499566887,819096691,,0.794411945516,-0.0119170997195,0.0484990258303,0.776659308397,0.628233222261,0.0362412566116,0.0284588904838,-0.132719066257,-0.127589057399,-0.0287548681063,0.0832484710261,0.32372953044,-0.207144076295,-1.00777995586,0.0238039679825,-0.413216203451,-0.00476598646492,-0.375826925039,-0.0278028137982
2017/07/09/10:21:25.022002,526969,1499566887,829090557,,0.793755259795,-0.0119523211753,0.0484702302398,0.776941203377,0.627980650477,0.0356944609751,0.0269921206511,-0.12959434004,-0.0961035310885,-0.028290255271,0.106199164456,0.334428392114,-0.179969967069,-0.663950800896,0.0568933039904,0.021487025544,0.115398980677,-0.33499199152,0.00192921096459
2017/07/09/10:21:25.032478,526970,1499566887,839097951,,0.792170047996,-0.0130532378885,0.048109021298,0.777597009999,0.627297640171,0.0344999726585,0.0255012267159,-0.119133434715,-0.0817915364707,-0.0235340124054,0.131629145763,0.316209882342,-0.187470186774,-0.34103757143,0.113828882575,-0.684193611145,0.0983361378312,-0.151856064796,-0.0329690240324
2017/07/09/10:21:25.041927,526971,1499566887,849084052,,0.79119337469,-0.0137521346217,0.047835920844,0.778484778743,0.626270006352,0.034087455677,0.0241944988478,-0.115045780862,-0.0879971204095,-0.0262808606761,0.0825105708978,0.305405051708,-0.1559788121,0.378615260124,-0.85768455267,-0.629815161228,0.274685919285,0.152548164129,-0.00549985375255
2017/07/09/10:21:25.052299,526972,1499566887,859096416,,0.790732472035,-0.0145198056559,0.0477581817112,0.778412610169,0.626431679479,0.0331494492818,0.0236278075039,-0.126160070112,-0.0741120900704,-0.0465613521478,0.104993505861,0.334432316326,-0.133604159975,0.356581270695,-0.222081333399,-0.508224725723,0.145762875676,0.0534501262009,-0.0301531292498
2017/07/09/10:21:25.061910,526973,1499566887,869086735,,0.789637810546,-0.0156015967908,0.047230751486,0.779380981357,0.625298476879,0.0326343384541,0.0224076028454,-0.118146214907,-0.0758285783667,-0.0465320911177,0.110951122052,0.309155422969,-0.155405292689,0.838543117046,-0.284400999546,-0.132503852248,0.0280685219914,0.224656835198,-0.042214602232
2017/07/09/10:21:25.072189,526974,1499566887,879088270,,0.788652522062,-0.0157418102466,0.0467757995342,0.779554604544,0.625168614158,0.03183784825,0.0210991427707,-0.0971876499784,-0.0797328255875,-0.0335632490468,0.0799878468038,0.262650127382,-0.161212858461,-0.231181144714,0.296400666237,0.107020057738,-0.0428940206766,-0.1831369102,-0.034128408879
2017/07/09/10:21:25.082311,526975,1499566887,889090734,,0.787658195664,-0.0168390683757,0.0466833117636,0.77973500599,0.625020456928,0.0307604956579,0.0204093302663,-0.0949476021303,-0.104067372607,-0.0335951228198,0.0522783139446,0.241599709629,-0.144298393898,-0.646994411945,0.293918550014,0.16591283679,-0.127317205071,-0.215282514691,-0.0324076004326
2017/07/09/10:21:25.092000,526976,1499566887,899084249,,0.786800910269,-0.0182137724573,0.0465642791705,0.780553986408,0.624046530265,0.0302622204069,0.0196367100777,-0.099258901111,-0.112946117119,-0.0398908558416,0.039129575683,0.246283619802,-0.15231690127,0.129587724805,-0.171219572425,0.867637872696,0.0168055240065,0.066448122263,-0.0194202493876
2017/07/09/10:21:25.102316,526977,1499566887,909089489,,0.786671812915,-0.0189793079034,0.0464199030074,0.780720188965,0.623872586532,0.0295282948307,0.0196738944063,-0.0898764401057,-0.11225615026,-0.0269753232358,0.0188765918288,0.225845933672,-0.162740718333,1.24599909782,-0.354528367519,0.683702588081,0.0761681944132,0.538423538208,-0.0428066663444
2017/07/09/10:21:25.111947,526978,1499566887,919090610,,0.785436558125,-0.0200616006355,0.0458505867296,0.781300858927,0.623215573424,0.0287086229045,0.018631474794,-0.073951070053,-0.12081146221,-0.024866185418,-0.0131002749956,0.185148398237,-0.149880232772,0.779774188995,0.0101367384195,0.788321256638,0.10862146318,0.301021307707,-0.0132511528209
2017/07/09/10:21:25.122083,526979,1499566887,929091767,,0.784943338279,-0.0212816960517,0.0454104680293,0.781742690351,0.6226997921,0.0280449961222,0.0183524710582,-0.0712796317187,-0.115909663614,-0.0306909430015,-0.00438406155573,0.174950442917,-0.143452328547,0.901797831059,0.177875131369,0.30478939414,0.0564246401191,0.299280971289,-0.0614094212651
2017/07/09/10:21:25.132390,526980,1499566887,939088613,,0.783633810676,-0.0230801050916,0.0447425823689,0.782744162242,0.621508254876,0.0270645729732,0.0175092686084,-0.0649072873623,-0.0741807850492,-0.0498890890769,0.023583113344,0.183363524267,-0.107003545513,0.686846256256,-1.03019869328,-0.131776288152,0.344521790743,0.287059605122,-0.012854189612
2017/07/09/10:21:25.141948,526981,1499566887,949085962,,0.78342463898,-0.0233441575407,0.0444203068845,0.782953967764,0.6212629613,0.0269716808711,0.0169689631433,-0.0652239069373,-0.101449804327,-0.0431559605499,0.0231839572615,0.158644409509,-0.152537492712,0.837910354137,-0.287472873926,0.306559383869,0.15407755971,0.234387755394,-0.0204273238778
2017/07/09/10:21:25.152172,526982,1499566887,959088423,,0.782387510634,-0.024230668647,0.0429557239819,0.783293198018,0.620896910349,0.0261678980151,0.0159384369204,-0.0596316713231,-0.095963348565,-0.0326716850497,-0.00446546799847,0.152119084811,-0.110122244768,0.641381978989,-0.21330268681,-0.258585751057,0.0419223494828,0.152674391866,-0.0479832030833
2017/07/09/10:21:25.162135,526983,1499566887,969091515,,0.782126444382,-0.0253852314821,0.0430706403227,0.783481165981,0.620685522979,0.0253325890887,0.0162789449154,-0.0592303598598,-0.11161756485,-0.0521841997933,-0.00344581549773,0.134252693005,-0.124702194395,1.17731297016,-0.335801482201,0.00368775241077,0.12392770499,0.334165900946,-0.0323663316667
2017/07/09/10:21:25.172039,526984,1499566887,979084299,,0.780747426293,-0.0275412800069,0.0423434713325,0.784181014037,0.619860345334,0.024016563457,0.016015435883,-0.0673735424186,-0.140440565497,-0.0502936594667,-0.0689822081156,0.146359367865,-0.131137033697,0.543005943298,-0.353057086468,0.204907223582,0.101697146893,0.0782766565681,-0.0246301852167
2017/07/09/10:21:25.182436,526985,1499566887,989086384,,0.781437156731,-0.027527461062,0.0423563283779,0.78394847373,0.620126988734,0.0245750199749,0.0162288869822,-0.0578756294025,-0.12287456706,-0.0539193582641,-0.0705222931257,0.132487878111,-0.0873687115679,0.491444975138,-0.233067512512,0.279301971197,0.121208332479,0.04862613976,0.000959951430559
2017/07/09/10:21:25.192021,526986,1499566887,999092716,,0.780729305231,-0.0285216499072,0.0415101858247,0.784356035663,0.619657564857,0.0235583673833,0.0159723185792,-0.0481950195103,-0.108718402985,-0.0551227156929,-0.0412250266544,0.100805251168,-0.0854300597301,1.82722568512,-0.196355983615,-0.441978633404,0.155352130532,0.619868397713,-0.0142149711028
2017/07/09/10:21:25.202198,526987,1499566888,9083088,,0.77989137905,-0.0300477238947,0.0407043724214,0.78432051826,0.619740394161,0.0224722270157,0.0160675914681,-0.0549390676759,-0.119336342127,-0.0763918533385,-0.0604054668316,0.10736419172,-0.112658281285,2.29357624054,-0.39843031764,-0.340741425753,0.221173331141,0.843993902206,-0.0154025582597
2017/07/09/10:21:25.211941,526988,1499566888,19088835,,0.780088504549,-0.0316051218891,0.0410395785046,0.785001706549,0.618849596747,0.0229304213718,0.0164831154832,-0.0449348229486,-0.119187660653,-0.0711403289813,-0.0843382111275,0.0898542828627,-0.0740240086477,2.12296724319,-1.05439531803,0.140525475144,0.354655712843,0.790151655674,0.0085263736546
2017/07/09/10:21:25.222348,526989,1499566888,29086506,,0.779217344158,-0.032767943064,0.0393370683983,0.785222974638,0.618619644928,0.0215884731169,0.0163875818197,-0.0567203196173,-0.138549878205,-0.0733369195593,-0.0967315709198,0.10346699318,-0.0859919395727,1.528211236,-0.15881511569,-0.139707610011,0.137321412563,0.524106442928,-0.0195689424872
2017/07/09/10:21:25.232361,526990,1499566888,39082699,,0.778542184078,-0.0338372866441,0.0388731443961,0.785358464783,0.618471648642,0.0210487318461,0.0161818573549,-0.0501289609712,-0.137488707459,-0.0701234300682,-0.120349797598,0.0891994014035,-0.0698037437893,0.750450849533,-0.141803830862,0.543220162392,0.0787905678153,0.271094918251,-0.0150395492092
2017/07/09/10:21:25.242194,526991,1499566888,49084762,,0.77767136118,-0.0354062299073,0.0375176410451,0.785669625292,0.618109643941,0.0200561892115,0.0161696392956,-0.0647272745259,-0.118211768157,-0.0860927436722,-0.0896104348852,0.118590874654,-0.0551382929726,0.931289792061,-0.363658756018,0.42864459753,0.108577720821,0.384059846401,-0.0440061986446
2017/07/09/10:21:25.252342,526992,1499566888,59084282,,0.777716647184,-0.0367966470718,0.0374044963538,0.78573550724,0.618011950728,0.0196675926797,0.0171501375799,-0.0658820399321,-0.141399777055,-0.0889873507382,-0.144212041372,0.120193353239,-0.0635252097083,1.09363222122,-1.06051385403,0.475426495075,0.270937353373,0.526533305645,-0.0139969773591
2017/07/09/10:21:25.262092,526993,1499566888,69097644,,0.776700141836,-0.038185097557,0.0363697427842,0.785616254206,0.618201874226,0.0183577749374,0.0172202186421,-0.0760610939069,-0.176811313011,-0.087458583059,-0.160345957687,0.115945717485,-0.0980667528011,2.56315970421,0.371517509222,0.609603106976,0.0408866852522,0.996358394623,-0.0701109617949
2017/07/09/10:21:25.272027,526994,1499566888,79088945,,0.775731675627,-0.0401131889189,0.0351870194902,0.78635569279,0.617287870299,0.0174980190444,0.0171531025691,-0.0848346969498,-0.15881969346,-0.0971320059396,-0.153378916205,0.141132644644,-0.0580611016102,2.14675688744,0.545512914658,0.463074803352,0.000146742910147,0.86142873764,-0.0676403790712
2017/07/09/10:21:25.282392,526995,1499566888,89085993,,0.774879713018,-0.041201563926,0.0342550948766,0.786227127232,0.617478748198,0.0164217239188,0.0172402700632,-0.0781668537606,-0.164430096078,-0.0936564918328,-0.172201138525,0.1262857679,-0.0724714854037,2.23925662041,0.434282898903,0.305838793516,0.0259472671896,0.914391815662,-0.0379318296909
2017/07/09/10:21:25.292189,526996,1499566888,99090781,,0.774174087811,-0.0428979509438,0.0332416722465,0.786469518968,0.617188142306,0.0152062685466,0.0176992126442,-0.0779569563968,-0.16064196034,-0.0999214188483,-0.192462301044,0.136194727073,-0.0238133387322,2.71174049377,0.259029209614,0.14496460557,0.0226989015937,1.16597771645,-0.06825555861
2017/07/09/10:21:25.302204,526997,1499566888,109086368,,0.773418602215,-0.0443570611739,0.03228516344,0.786458862276,0.617219801331,0.0141021488972,0.017980661521,-0.08638523887,-0.155656166336,-0.100767616865,-0.180985683998,0.154444030431,-0.0147171635842,2.71131443977,0.330274969339,0.136603057384,0.00447935424745,1.16611421108,-0.0256652999669
2017/07/09/10:21:25.312201,526998,1499566888,119090867,,0.771991657376,-0.0461368673899,0.0313093152271,0.786356429036,0.61738654622,0.0120694114147,0.0182139608158,-0.113767925261,-0.173706900572,-0.114022587468,-0.205639421634,0.20942015818,-0.0260449343522,3.06392097473,0.295941591263,0.0754948854446,-0.0334827452898,1.33959114552,-0.0862331688404
2017/07/09/10:21:25.322023,526999,1499566888,129085208,,0.770270990202,-0.0485235419776,0.0294672750676,0.786532452994,0.617196719096,0.0100834758714,0.0182546935884,-0.12883857804,-0.1941103101,-0.12640475248,-0.264712525633,0.245872969781,-0.0122246832152,2.97190618515,0.219186231494,0.243456989527,0.0168807506561,1.29980075359,-0.055434346199
2017/07/09/10:21:25.332297,527000,1499566888,139093188,,0.769289199463,-0.0501450841583,0.0283862217518,0.786324286965,0.617472809093,0.00830171944783,0.0187757080798,-0.123370591816,-0.211328846432,-0.118838513663,-0.289379669076,0.224370482938,-0.000772649282768,2.97718834877,-0.472768068314,0.204254284501,0.328749120235,1.25633442402,-0.0413971096277
2017/07/09/10:21:25.342269,527001,1499566888,149084381,,0.768319549819,-0.0523115716012,0.0272043275922,0.786277441293,0.617530298705,0.00710961106305,0.019327931211,-0.13295345964,-0.211727883582,-0.12673948548,-0.267682235312,0.227212626432,-0.0153617928191,1.78368806839,-2.08615493774,0.245065718889,1.34017002583,0.652056634426,0.135731726885
2017/07/09/10:21:25.352206,527002,1499566888,159083292,,0.767058971299,-0.0544949400806,0.026167017452,0.78643228097,0.617338816412,0.00575950274356,0.0195928897291,-0.143697694533,-0.218127604013,-0.129936695688,-0.252963530824,0.235905117357,-0.0221603649839,1.43507266045,-3.18165564537,0.321731925011,1.87049031258,0.472059130669,0.182068914175
2017/07/09/10:21:25.362019,527003,1499566888,169085333,,0.766073955199,-0.0557966058684,0.0248683779046,0.786267337985,0.617553405415,0.00407109585647,0.019871860928,-0.123218102402,-0.200743146311,-0.117789619698,-0.254408764224,0.204180628273,0.00495123956916,1.56171441078,-3.20064854622,0.495582550764,1.74234461784,0.590696394444,0.108689129353
2017/07/09/10:21:25.372122,527004,1499566888,179088491,,0.764400339579,-0.0575342240542,0.0235368287534,0.786357307719,0.617458347185,0.00250782164369,0.0195213964458,-0.115625938782,-0.169681328628,-0.129191901278,-0.232121033354,0.213913380119,0.0457762194048,1.98245227337,-2.25540494919,0.658688902855,1.1197630167,0.825085759163,-0.00298112630844
2017/07/09/10:21:25.382100,527005,1499566888,189084942,,0.763387924648,-0.0602386400632,0.022528299996,0.786330339348,0.61746951141,0.00132971678422,0.0203526841728,-0.119322171607,-0.184182631761,-0.130026071953,-0.225469889416,0.209482619331,0.008500602734,2.83144712448,-1.53756153584,0.700535833836,0.576473355293,1.27013516426,-0.102929092944
2017/07/09/10:21:25.391832,527006,1499566888,199082866,,0.76268341325,-0.061370306158,0.0215531997267,0.786560747204,0.617173754074,0.00038315971295,0.0204597514438,-0.120498056291,-0.17669012591,-0.137905453771,-0.201546830821,0.205718833195,-0.00395914211607,3.06338882446,-0.856121242046,0.720454990864,0.229806780815,1.35781538486,-0.139154285192
2017/07/09/10:21:25.401971,527007,1499566888,209089925,,0.761999737386,-0.0623630336512,0.0203386550171,0.786291455552,0.617509000372,-0.000746452505073,0.0206839114616,-0.100252432311,-0.164578214038,-0.128165979816,-0.167768333307,0.154275737165,-0.0293414314017,3.62843966484,-0.7693977952,0.601222336292,0.168172970414,1.61561727524,-0.180617630482
2017/07/09/10:21:25.412207,527008,1499566888,219087665,,0.759949242082,-0.0647991461066,0.0184542980444,0.786659218827,0.617045410411,-0.00244484127058,0.0204023938838,-0.0956340893999,-0.162326214168,-0.125657266976,-0.183792818477,0.154496884106,-0.024876508374,3.66197299957,-1.14902174473,0.460834652185,0.381661355495,1.57832658291,-0.147349327803
2017/07/09/10:21:25.422021,527009,1499566888,229089923,,0.759426039968,-0.065862462077,0.0173446347248,0.786001103086,0.61786319169,-0.00364296922995,0.0208343725005,-0.112211497956,-0.168785993142,-0.1379223066,-0.187692618557,0.186214796263,0.0341356404451,3.52846550941,-1.32481265068,0.432822048664,0.56928306818,1.49421191216,-0.110904350877
2017/07/09/10:21:25.432355,527010,1499566888,239082797,,0.75853968989,-0.0678645286258,0.0163715828176,0.78546656622,0.618518878961,-0.00463639526144,0.0213347968717,-0.113710774929,-0.180133350192,-0.133308507825,-0.199442671817,0.179333788419,0.0815902507483,3.52469491959,-1.53846740723,0.388927459717,0.541898548603,1.52169024944,-0.171971559525
2017/07/09/10:21:25.442044,527011,1499566888,249089191,,0.758214170133,-0.0689990711357,0.0152577608626,0.784612435454,0.619587298486,-0.00504987590987,0.021665743445,-0.0971979106563,-0.161312237585,-0.123664875452,-0.184437540754,0.159402469392,0.192401216916,3.58365559578,-1.61345231533,0.317207247019,0.509120285511,1.54598069191,-0.158475801349
2017/07/09/10:21:25.452184,527012,1499566888,259089345,,0.757145760928,-0.0702271719692,0.0137089006076,0.783992648776,0.620367941785,-0.00612199223919,0.0214863836488,-0.0916581260353,-0.15889483005,-0.128615791731,-0.148680628459,0.137976299085,0.216799594861,3.74762821198,-1.50521528721,0.333490788937,0.461092442274,1.64476966858,-0.189619272947
2017/07/09/10:21:25.462352,527013,1499566888,269084485,,0.756328082388,-0.0712708935673,0.0119591115401,0.783585800187,0.620877094088,-0.00680838098335,0.0214143346941,-0.0758836923203,-0.1328789347,-0.133407257095,-0.0838781922223,0.0925364992519,0.201133789518,3.6868185997,-1.3672286272,0.227076172829,0.448323845863,1.58700871468,-0.183207273483
2017/07/09/10:21:25.472019,527014,1499566888,279096689,,0.756053413192,-0.0734681621007,0.0116905837058,0.784124195326,0.620172789436,-0.00665511266592,0.0221510050173,-0.0620337636596,-0.145969656468,-0.127242441309,-0.0913736369548,0.0447301486205,0.108621201398,4.30529594421,-1.35936486721,0.0369258187711,0.398880451918,1.88975477219,-0.248646810651
2017/07/09/10:21:25.482504,527015,1499566888,289093330,,0.755760407871,-0.0739057184082,0.0101106141186,0.784114887703,0.620192372506,-0.00645253248562,0.021991561857,-0.0447088858915,-0.123740743954,-0.123733880139,-0.0591382544557,-0.00210193520358,0.0233234166724,5.05082941055,-1.72881829739,0.528607010841,0.657330751419,2.3691649437,-0.254896461964
2017/07/09/10:21:25.492111,527016,1499566888,299097200,,0.754728698689,-0.0752322133842,0.00849607998091,0.784365578185,0.619863776995,-0.00754009791816,0.0219700853609,-0.0431799502505,-0.10749612548,-0.129411268521,-0.0382606290034,-0.00020639228582,-0.0583329496459,4.82190418243,-1.33885884285,0.455109536648,0.48983284831,2.27010393143,-0.257479846478
2017/07/09/10:21:25.502082,527017,1499566888,309121426,,0.754577517719,-0.0757128729925,0.00761749004385,0.784683328208,0.619470308108,-0.00722380917979,0.0218272395169,-0.0477331674182,-0.125370606129,-0.115371620133,-0.048051480817,-0.00192276048213,-0.110483695258,3.8672773838,-1.28374743462,0.676588594913,0.560879290104,1.93978559971,-0.262803256512
2017/07/09/10:21:25.511998,527018,1499566888,319090869,,0.754174376625,-0.0767609565743,0.00648341340101,0.785093383424,0.618960715922,-0.00662575950195,0.0217281098893,-0.0501498143177,-0.0977487909951,-0.125115808363,-0.012760642358,0.0213978030422,-0.0782102147335,3.41927647591,-1.2984817028,0.579635441303,0.490637302399,1.77549421787,-0.249936833978
2017/07/09/10:21:25.522078,527019,1499566888,329092188,,0.753869073318,-0.0771718615831,0.00515833416938,0.785008528352,0.619060755637,-0.00709002071636,0.0217973129254,-0.0210218086699,-0.0621746997299,-0.10888844227,0.0334512902737,-0.0387897860172,-0.0792681196375,2.28230762482,-0.816029012203,0.58897715807,0.342551887035,1.22212815285,-0.234050288796
2017/07/09/10:21:25.532420,527020,1499566888,339091258,,0.754602898165,-0.0782042988318,0.00492221167167,0.785442144161,0.618485636659,-0.00614609787983,0.0227679797909,-0.0162524856607,-0.0774481633754,-0.11651942206,0.0285152418153,-0.0614657652256,-0.131214680939,3.01370239258,-1.23212826252,0.210565000772,0.44118848443,1.42762672901,-0.246906220913
2017/07/09/10:21:25.542213,527021,1499566888,349117498,,0.754038665426,-0.0784450055585,0.00312437940901,0.785827068128,0.618023043264,-0.00573465473436,0.0221461221666,-0.00254181917013,-0.0638984212033,-0.122682039239,0.0504658095947,-0.103492056172,-0.135513065413,3.34818768501,-1.35087192059,0.177350968122,0.411425352097,1.50971102715,-0.253551214933
2017/07/09/10:21:25.552082,527022,1499566888,359092318,,0.754144696956,-0.0791937761269,0.00206428718192,0.786101413967,0.617661727513,-0.00537993906405,0.0225746224785,-0.00175046809973,-0.0603696966798,-0.119022366155,0.0292318720594,-0.0967556595855,-0.0879131679909,3.97880959511,-1.4534702301,0.156485527754,0.407123148441,1.74571335316,-0.29709854722
2017/07/09/10:21:25.562045,527023,1499566888,369097170,,0.753658505229,-0.0797287807791,0.000426965307917,0.78651796952,0.6171466104,-0.0049736104269,0.0222442822489,-0.0243236097376,-0.0745557689259,-0.149936302326,0.0337083077078,-0.0705497333568,-0.101580766254,5.70115232468,-2.36770009995,-0.0607661157846,0.721202433109,2.41139411926,-0.290623664856
2017/07/09/10:21:25.572064,527024,1499566888,379096564,,0.754493720657,-0.0801676895672,-0.000218348175996,0.786707414709,0.616878852927,-0.00426152796091,0.0231033294765,-0.000283126604082,-0.0571454382458,-0.135502013579,0.0491294173118,-0.110942997532,-0.103517650411,5.70894432068,-2.12232661247,-0.03362480551,0.58518409729,2.45015883446,-0.330564916134
2017/07/09/10:21:25.582228,527025,1499566888,389087714,,0.754181570734,-0.0804987131789,-0.00177823865606,0.786793581821,0.616780300632,-0.0038434887123,0.0228724277532,0.000960205058799,-0.0698040581968,-0.116157133113,0.0147490762249,-0.101647609065,-0.106920394307,5.41029977798,-1.93756890297,0.226219907403,0.525562763214,2.35573601723,-0.323744595051
2017/07/09/10:21:25.592170,527026,1499566888,399090595,,0.754454144034,-0.0814673073078,-0.00231561797314,0.787014000695,0.616477730128,-0.00348283706201,0.0234955487655,-0.0151686080205,-0.0429712067108,-0.122989782624,0.0677754778358,-0.058778989069,-0.110700819117,4.8319272995,-1.89135873318,0.088689416647,0.516016602516,2.07456564903,-0.304329693317
2017/07/09/10:21:25.602220,527027,1499566888,409096913,,0.753308441625,-0.082111069298,-0.00392830551774,0.787650932415,0.615693379298,-0.00364070104192,0.0226807550774,-0.000686902411763,-0.0539137018567,-0.0999387083028,0.0331064023697,-0.0776015233007,-0.0948594776946,4.72019004822,-2.01284337044,0.189520001411,0.592042267323,2.0417573452,-0.28026971221
2017/07/09/10:21:25.612107,527028,1499566888,419096492,,0.753232480278,-0.0827606671021,-0.00497169154141,0.788103453778,0.615118219089,-0.00319918742573,0.0226337775738,-0.0283687651257,-0.0648288123758,-0.120018390174,0.0341162241408,-0.0305475329019,-0.110775966209,5.16609048843,-2.1541864872,0.0393935106695,0.672713637352,2.21308326721,-0.288446187973
2017/07/09/10:21:25.622097,527029,1499566888,429089484,,0.752854500507,-0.0832209093055,-0.00583654610425,0.788103760703,0.615116256898,-0.00343006678305,0.0226426038219,-0.0454336473938,-0.0513390859722,-0.128451907763,0.0519943983315,0.0171175309527,-0.102798376861,5.19440412521,-2.19304800034,-0.416463345289,0.583550333977,2.13077282906,-0.299745619297
2017/07/09/10:21:25.632260,527030,1499566888,439096525,,0.752644054361,-0.0834823257196,-0.00726382304684,0.788413520831,0.61472514189,-0.00316484308851,0.0225189668427,-0.0291120355522,-0.046447194417,-0.109753008813,0.0187700577925,0.0027865958659,-0.0522151697108,4.74345445633,-2.02939748764,-0.992612540722,0.454766273499,1.63163363934,-0.282817721367
2017/07/09/10:21:25.642090,527031,1499566888,449086923,,0.752205211342,-0.0842126343395,-0.00875145328882,0.788274476484,0.614895327806,-0.00351867924883,0.0226870990446,-0.0192267899053,-0.0351668508825,-0.114766935655,0.0366732431033,-0.0312765134638,-0.0710505753009,4.8522939682,-2.14347457886,-1.42519772053,0.45709297061,1.42996001244,-0.265755355358
2017/07/09/10:21:25.652202,527032,1499566888,459090025,,0.752873988952,-0.0845138005711,-0.00943955815032,0.7888833815,0.614099608139,-0.00237286342638,0.0232174760873,0.0138431531027,-0.0334633231005,-0.106443121406,0.0191198332197,-0.0969929766144,-0.0464387254978,6.18174934387,-2.52201318741,-1.65841138363,0.478474766016,1.87223494053,-0.275535613298
2017/07/09/10:21:25.662325,527033,1499566888,469098367,,0.753499775313,-0.0845684883469,-0.0104231062016,0.788799012102,0.614191659682,-0.00159953485115,0.0237100226092,0.020594247771,-0.0454572741114,-0.111365779715,-0.00573489775687,-0.129350783489,-0.059026742096,7.50039720535,-2.99190282822,-1.22424471378,0.705457746983,2.55285787582,-0.326848506927
2017/07/09/10:21:25.672069,527034,1499566888,479091667,,0.753811557089,-0.0846996669183,-0.011007863649,0.789041925015,0.613871558167,-0.0010551877591,0.0239465492499,0.0171588536904,-0.0463829712549,-0.118064871054,0.00339448889219,-0.12394103973,-0.0782797078739,7.54830694199,-3.10374689102,-0.893808424473,0.815955519676,2.73275017738,-0.325746536255
2017/07/09/10:21:25.682435,527035,1499566888,489091061,,0.753372211645,-0.085483484692,-0.0124248249275,0.789256529902,0.613592757888,-0.00109263017123,0.0240179856458,0.00647134391656,-0.0250516112746,-0.118173046003,0.0122599966263,-0.0833324622226,-0.0319608433222,6.41552686691,-2.57090711594,-0.212842717767,0.652317166328,2.49220180511,-0.31693392992
2017/07/09/10:21:25.692123,527036,1499566888,499090720,,0.753633327497,-0.0851935607564,-0.0135473024796,0.788987446172,0.61393503804,-0.00075852376677,0.0241247485073,0.00731671291273,-0.0399137728293,-0.100067306541,0.0303747460782,-0.101274880816,-0.0530794465385,5.00777769089,-1.87151527405,0.24710072577,0.522486329079,2.12768340111,-0.286302536726
2017/07/09/10:21:25.702210,527037,1499566888,509088817,,0.752898468616,-0.0856261592516,-0.014596187981,0.789492423759,0.613308874759,-0.000498414614077,0.0235305875945,0.000780569325859,-0.0419645780294,-0.100739954126,0.0215299984147,-0.0840734673734,-0.0520960572988,4.1775431633,-1.61728918552,0.163887351751,0.408246040344,1.84876382351,-0.288886278868
2017/07/09/10:21:25.711917,527038,1499566888,519090944,,0.753297600921,-0.0861365762658,-0.0160403825246,0.789555022996,0.613207076029,3.15563229803e-05,0.0240820799422,0.00310858961733,-0.00238902969511,-0.104213859171,0.0637146467589,-0.062577875011,-0.0268512651735,4.67563533783,-2.05801677704,-0.0194100234658,0.676867544651,2.00367259979,-0.255352795124
2017/07/09/10:21:25.721860,527039,1499566888,529087141,,0.753103298209,-0.086137253958,-0.0163928302421,0.789536159199,0.613236881137,6.41449129413e-06,0.0239411965081,-0.0197084475565,-0.0281035959394,-0.100181734289,0.0312551736467,-0.0136653742583,-0.0571402843042,5.40432691574,-2.30020141602,-0.321289122105,0.706579685211,2.32777190208,-0.303183674812
2017/07/09/10:21:25.732365,527040,1499566888,539091145,,0.75283326629,-0.0862281315607,-0.0170077389086,0.78979947412,0.612907824148,0.000178084951212,0.0236803307262,-0.0239794948092,-0.0318803655777,-0.0940424157753,0.00943369323519,0.00673249273188,-0.0483807399329,5.86382770538,-2.48606276512,-0.553089499474,0.780435442924,2.49736499786,-0.324650228024
2017/07/09/10:21:25.741953,527041,1499566888,549083396,,0.751408136865,-0.0870734569821,-0.0188827808954,0.789960745885,0.612729245006,-0.000730581926127,0.0228988760717,-0.0337040238896,-0.0131543595155,-0.0972465841938,0.0380852876198,0.0355784327242,-0.0310536642078,5.32722902298,-2.29559779167,-0.420307427645,0.669638395309,2.28320670128,-0.331611514091
2017/07/09/10:21:25.751854,527042,1499566888,559083389,,0.752116848951,-0.0867908803594,-0.0188818051402,0.789992422373,0.612678555333,-0.000113619456206,0.0231721280754,-0.0332925986497,-0.0214380931081,-0.0908608720906,0.0198347146777,0.0460293367483,-0.0206257976803,5.26795244217,-2.21765422821,-0.4737200737,0.634636878967,2.28800940514,-0.31023734808
2017/07/09/10:21:25.761807,527043,1499566888,569091374,,0.751521033515,-0.0863738302832,-0.0201665671463,0.789616035889,0.613191994696,-0.000541498075872,0.0224008992574,-0.0432035207447,-0.0312944622626,-0.0853612005603,0.0117353350354,0.0700905175578,0.0027274207705,4.15283823013,-1.49842333794,-0.0600194223225,0.332043230534,1.87051904202,-0.30742418766
2017/07/09/10:21:25.772182,527044,1499566888,579088688,,0.751130210136,-0.0864582881177,-0.0206962170974,0.789621356024,0.613198283765,-0.000663379189333,0.0220349455869,-0.0499472812577,0.00757220058572,-0.092040830267,0.0434267118255,0.107160396092,0.0564353315147,3.98187589645,-1.34592616558,-0.205557197332,0.310562431812,1.74197304249,-0.276384949684
2017/07/09/10:21:25.782458,527045,1499566888,589092858,,0.750974143986,-0.0863868508641,-0.0215137589859,0.789275852193,0.613645639013,-0.000932101503792,0.0219497164643,-0.050470529518,-0.0143937607711,-0.08330392258,0.0375263949881,0.0877657687719,0.0420000662222,4.322742939,-1.49030327797,-0.34987488389,0.306994855404,1.90336334705,-0.28143376112
2017/07/09/10:21:25.792125,527046,1499566888,599091096,,0.750229493997,-0.0872588141503,-0.0220341386316,0.789064720435,0.61392248411,-0.00136679194028,0.0217757284304,-0.0405320849649,0.0115482511573,-0.0821508694108,0.0576476927609,0.0864407802264,0.0831641151004,4.9902586937,-2.08960795403,-0.612668991089,0.681984066963,2.11134338379,-0.21667329967
2017/07/09/10:21:25.802103,527047,1499566888,609089024,,0.750186922861,-0.0862309445227,-0.0229780615487,0.788829869658,0.614258055125,-0.000933511032919,0.0208232323876,-0.0397309748727,0.0211094916287,-0.0822553659177,0.0788620400436,0.0821411995487,0.0799959174362,4.29216861725,-1.82761025429,-0.487636595964,0.523395001888,1.81968832016,-0.221866101027
2017/07/09/10:21:25.812045,527048,1499566888,619089701,,0.748767157595,-0.0867105279888,-0.0244464762393,0.788892002819,0.614200428771,-0.0019038848515,0.0200902067762,-0.043940274499,0.0177768061756,-0.0789537213929,0.0699534033715,0.0902351348047,0.0626144077774,4.79260444641,-2.23240327835,-0.554473936558,0.665957450867,1.99439251423,-0.231285437942
2017/07/09/10:21:25.822161,527049,1499566888,629085739,,0.748864072538,-0.0859595356544,-0.0250421516009,0.788274462335,0.615012432522,-0.00154462940925,0.0195113811534,-0.0404301253836,-0.00377424304856,-0.0721257877639,0.0446818594457,0.0682178771875,0.0673728526107,4.72804117203,-2.10281324387,-0.395301312208,0.623937904835,1.98058223724,-0.199796497822
2017/07/09/10:21:25.832559,527050,1499566888,639089180,,0.74864819581,-0.0862811568461,-0.0253398750551,0.788379369255,0.614880265426,-0.00151524883921,0.0194405077964,-0.0265051572519,0.00822848519352,-0.0703901141106,0.0324678381816,0.056250781548,0.118416347727,4.55270338058,-2.14290332794,-0.297239124775,0.636424064636,1.90103244781,-0.200958192348
2017/07/09/10:21:25.842747,527051,1499566888,649085039,,0.748039517031,-0.086330228137,-0.0264301736549,0.787901039348,0.615512004479,-0.00167247968232,0.0188182716704,-0.0316847993337,0.0138910061829,-0.0705531985634,0.0281612114926,0.0771103122228,0.136141842926,4.61685800552,-2.19660878181,-0.485423743725,0.634606063366,1.86941516399,-0.205158025026
2017/07/09/10:21:25.852265,527052,1499566888,659186883,,0.748152412798,-0.0861236881251,-0.0262620834382,0.787564377296,0.615935444744,-0.00222001978163,0.0189987114032,-0.0546711333741,0.00290612546181,-0.0742976533847,0.0349844444835,0.109821228713,0.121776292095,4.9129691124,-2.18842482567,-0.469824641943,0.65403342247,2.01694607735,-0.218662038445
2017/07/09/10:21:25.862002,527053,1499566888,669192196,,0.74806628578,-0.0856051313218,-0.0268981419693,0.787928340423,0.615493199384,-0.00170678521615,0.01827946265,-0.025132954921,0.0143443809948,-0.0490331447478,0.0352836022257,0.0663165775502,0.0374931545535,4.87754297256,-2.17705059052,-0.386992245913,0.753987908363,1.95464754105,-0.155048131943
2017/07/09/10:21:25.872253,527054,1499566888,679189058,,0.747204302095,-0.0861187952498,-0.0277055718013,0.787895218583,0.615538976834,-0.00247778789867,0.018076313186,-0.021609655046,0.0263785137072,-0.0553562632896,0.042037301516,0.0630701512195,0.0213634907269,4.5813536644,-2.12024068832,-0.350920915604,0.727427124977,1.85052287579,-0.204817950726
2017/07/09/10:21:25.882428,527055,1499566888,689190084,,0.747108351421,-0.0855875414275,-0.0279774878607,0.787714192622,0.615783301648,-0.00249320183242,0.0176368959607,-0.0307129155424,0.00122223215063,-0.0488811602542,0.0291300988392,0.0550648169922,-0.0281635506201,4.41951656342,-1.73821663857,-0.233242884278,0.521275997162,1.78072237968,-0.2386033535
2017/07/09/10:21:25.892150,527056,1499566888,699183735,,0.746282490325,-0.0863493030596,-0.0286627834863,0.788095420462,0.615303452883,-0.00274892637926,0.0173122072615,-0.028570118234,0.00161372138404,-0.043014153162,0.0106556185414,0.0677066952823,-0.00582362079945,3.38076591492,-1.54205095768,0.11741053313,0.494605362415,1.38313162327,-0.189918875694
2017/07/09/10:21:25.902041,527057,1499566888,709197852,,0.746895296623,-0.0850810042772,-0.0287270938743,0.787563400332,0.615986387356,-0.00278817011634,0.0172304136958,-0.0289911148289,0.0105552545435,-0.0423371447169,0.0242381563939,0.0588926201012,0.0052502553587,3.12316584587,-1.458132267,0.432397991419,0.433199465275,1.30153310299,-0.208499208093
2017/07/09/10:21:25.912050,527058,1499566888,719195315,,0.747029713363,-0.0851008279365,-0.0287595719682,0.787498598365,0.616063126993,-0.00283975351792,0.0174389487289,-0.0213175954712,0.00801253215254,-0.0357242961739,0.0120852934757,0.0484448624828,0.0182838132606,2.71115922928,-1.20359873772,0.813988924026,0.333401471376,1.19832789898,-0.208971649408
2017/07/09/10:21:25.922264,527059,1499566888,729202940,,0.746781898666,-0.0854186710638,-0.0288863137402,0.787515151448,0.616045587807,-0.00268053080546,0.0173359377628,-0.0142409260307,0.0128099035063,-0.0254815842543,0.0168803320413,0.0345530382352,0.033606367471,2.73840522766,-1.13133633137,0.845097839832,0.30289503932,1.21126902103,-0.212710946798
2017/07/09/10:21:25.932653,527060,1499566888,739191995,,0.746138308301,-0.0857593885338,-0.0294350803534,0.787814682646,0.615666442293,-0.00309493491847,0.0171253911028,0.00137831056315,0.0261373835672,-0.0154723991846,0.025130504347,0.00727232445818,0.0298587652298,2.89353942871,-1.33048522472,0.743820250034,0.395739018917,1.2640491724,-0.196942567825
2017/07/09/10:21:25.942575,527061,1499566888,749187362,,0.746195476124,-0.08571892996,-0.0290898009397,0.787838053259,0.61563658921,-0.00318043199078,0.0171077969328,-0.0133436280778,0.0126809410884,-0.0172648498953,0.0132278431916,0.0320602047086,0.003879696885,3.1371421814,-1.36880326271,0.500729084015,0.432678043842,1.37194347382,-0.202457293868
2017/07/09/10:21:25.952493,527062,1499566888,759190475,,0.745863647168,-0.0851518315601,-0.0295752772783,0.787604984686,0.615949838122,-0.00324069429042,0.0165433647355,-0.0264795256934,-0.00050066823441,-0.0238171410915,0.00656781250643,0.0506481083978,0.000289170973552,4.10603284836,-1.83411896229,0.0904919281602,0.644137024879,1.72600567341,-0.205832362175
2017/07/09/10:21:25.962157,527063,1499566888,769192553,,0.745557957584,-0.0857337369635,-0.0298660720239,0.787728155206,0.615787644452,-0.00350045273392,0.0166636510595,-0.0144933842922,0.0126175312601,-0.0198503439169,0.0237919730676,0.0274299241353,0.0168185714619,4.03580093384,-1.80335938931,-0.142691388726,0.645414113998,1.6835694313,-0.175691872835
2017/07/09/10:21:25.972091,527064,1499566888,779197806,,0.745966659865,-0.085004653795,-0.0297961992558,0.787496774551,0.616087867789,-0.00317736054324,0.0165672452607,-0.011193506321,0.00863750520384,-0.00946097789975,0.0203085650784,0.0257995123303,0.00626135211954,3.84565925598,-1.60334408283,0.0122887333855,0.560569882393,1.59100031853,-0.203718245029
2017/07/09/10:21:25.982647,527065,1499566888,789192575,,0.745399723986,-0.0848453714151,-0.0300591083208,0.787725862785,0.615809819657,-0.00329718911657,0.0159799767917,-0.00920228338484,0.0180380662948,-0.00824737493369,0.0191269813101,0.0276222398441,0.0131839002843,3.90297698975,-1.82398378849,-0.033860232681,0.673446536064,1.57067716122,-0.160130262375
2017/07/09/10:21:25.992332,527066,1499566888,799193429,,0.745707363822,-0.084732202146,-0.0298951355762,0.787463051065,0.616144030481,-0.00306265164759,0.0160964926153,-0.00723517554256,0.0197444749115,-0.00744381748106,0.0291031542504,0.0182850927355,0.0354546813532,4.35278367996,-1.95972943306,-0.105689704418,0.647478818893,1.7767829895,-0.213903278112
2017/07/09/10:21:26.002422,527067,1499566888,809184796,,0.744942559125,-0.0849558959624,-0.0299666962448,0.787638995808,0.615925218832,-0.00369626486715,0.0157249710548,-0.0228911688091,-0.0126896435229,-0.00725876993844,-0.0199084281096,0.0435523265091,-0.0147221074123,4.50841617584,-2.3010468483,-0.211334422231,0.785069584846,1.78822112083,-0.191139400005
2017/07/09/10:21:26.014246,527068,1499566888,819207334,,0.745498347339,-0.084300957164,-0.0298568510051,0.787347373535,0.616300807895,-0.0031133762922,0.0157395827133,-0.0244097678416,0.0313867698974,-0.0196478059587,0.0459481841854,0.0627182391391,-0.000614075804737,4.95630168915,-2.31667876244,-0.345510452986,0.778425633907,1.94379448891,-0.201518416405
2017/07/09/10:21:26.022203,527069,1499566888,829188506,,0.744456162077,-0.0848275943047,-0.0303575834811,0.787445099527,0.616181059479,-0.00408780002893,0.0153103579918,-0.00619339972591,0.012052526216,0.00283669698387,0.0109370524465,0.0175940655539,0.0132586868675,4.43537855148,-2.09840226173,-0.177135169506,0.691221475601,1.70076596737,-0.203028976917
2017/07/09/10:21:26.032345,527070,1499566888,839190050,,0.744904754669,-0.0847616124363,-0.0301908706796,0.787651867512,0.615911960722,-0.00373559271501,0.0155896629852,-0.00891044085517,-0.00413849709219,0.00268610105996,-0.00906253311192,0.0237303138567,0.00930145159082,-3.37822580338,1.87635350227,4.03072166443,-0.900624871254,-1.30723047256,-0.144474744797
2017/07/09/10:21:26.042610,527071,1499566888,849186408,,0.744925950564,-0.0844563658864,-0.0303657268821,0.787270740647,0.616400805858,-0.00397767670616,0.0154598042646,-0.0116318582509,-0.0088570489445,-0.00334414200252,-0.00275915202686,0.0259308824579,-0.0246043600985,-1.29091072083,0.725460648537,2.57684016228,-0.416015416384,-0.547392189503,-0.148013859987
2017/07/09/10:21:26.052012,527072,1499566888,859197520,,0.744662736925,-0.0849775239536,-0.0303640237722,0.787388922391,0.61624981963,-0.00398563687175,0.0154583116923,-0.0118245677255,-0.00782049278236,-0.00313811644854,-0.00512028636397,0.0231709560317,-0.0136151986777,-1.20118927956,0.352632403374,1.31843757629,-0.242392599583,-0.579335153103,-0.132061526179
2017/07/09/10:21:26.062095,527073,1499566888,869185277,,0.744599038916,-0.0853428922542,-0.0304816394996,0.787775049173,0.615749718423,-0.00399495944639,0.0157097568533,-0.0181380589116,-0.0036805418838,-0.010191190483,0.0165783286952,0.0372685826722,-0.00276845359296,-3.21745085716,0.771291911602,1.30620121956,-0.301701337099,-1.38273847103,-0.0803041160107
2017/07/09/10:21:26.072193,527074,1499566888,879201512,,0.745422564973,-0.0838169263974,-0.0300384654138,0.787373737941,0.616275803448,-0.0033056043844,0.0153559065275,-0.0054747239563,-0.00611145544948,-0.0138173780864,-0.00609547495178,0.00450268648865,0.0274087781824,-2.58990168571,0.399457663298,1.3352329731,-0.139514178038,-1.10314822197,-0.0784431025386
2017/07/09/10:21:26.082167,527075,1499566888,889185666,,0.74476142847,-0.0848978740947,-0.030558004043,0.787229618921,0.616445739364,-0.00417015238394,0.0157094666598,0.022090449812,0.0105593573002,-0.00114874435528,-7.1873336614e-05,-0.0377382534855,-0.00830483278438,-1.9292498827,0.0635975897312,1.14680075645,0.0956741720438,-0.835388660431,-0.0690097361803
2017/07/09/10:21:26.092104,527076,1499566888,899198358,,0.745436977307,-0.0834465386054,-0.0305250527238,0.787553228067,0.616053526325,-0.00314594670149,0.0151019430098,0.0173441730337,0.0378074483497,-0.0115360866299,0.0242270019457,-0.0106056266793,0.0392183567601,-3.48260164261,0.711168289185,1.33928334713,-0.155157715082,-1.42679834366,-0.0371088758111
2017/07/09/10:21:26.102163,527077,1499566888,909186108,,0.74510332948,-0.0839543042618,-0.0309411355938,0.787407202259,0.616236103952,-0.00338584895149,0.0152150597267,0.000368258985642,0.00869240258297,-0.0136102122314,0.0258102512325,-0.0102797005485,0.00710785095529,-3.53786659241,0.603556036949,1.3534604311,-0.140547066927,-1.3505897522,-0.0533316023648
2017/07/09/10:21:26.112283,527078,1499566888,919190097,,0.744959069901,-0.0845142982922,-0.0307494205629,0.787637292941,0.615933496948,-0.00364726325101,0.0154957922497,-0.000890980079359,-0.00448178027482,-0.0211318243837,0.0174199391543,-0.0239482746217,-0.0488377605372,-2.96883273125,0.296261429787,1.54705893993,0.0940037965775,-1.09037029743,-0.03841073066
2017/07/09/10:21:26.122212,527079,1499566888,929197704,,0.74500989153,-0.0837061681138,-0.0313521006194,0.787245984151,0.616440841628,-0.00346806626938,0.0152453837831,0.00133947413952,-0.020112733394,-0.0197618790688,-0.0387141097318,-0.0180881985276,-0.00726018854446,-2.70251250267,0.22164054215,1.73032438755,0.126383930445,-0.999489426613,-0.0215429887176
2017/07/09/10:21:26.132462,527080,1499566888,939187584,,0.744959823073,-0.0840513430298,-0.0315840134654,0.787489131347,0.616133374271,-0.00326353923551,0.0151618742939,0.00110377637414,0.0138981445023,-0.0194401936202,0.00668762170834,0.00174318501852,0.0320730553615,-3.58550953865,0.491406083107,1.98564267159,-0.0232354328036,-1.34137201309,-0.0388248413801
2017/07/09/10:21:26.142224,527081,1499566888,949185314,,0.74430118886,-0.0843904239118,-0.0323073576953,0.787504049183,0.61612190095,-0.00353234710893,0.0147884486826,-0.00934448461102,0.00164602751633,-0.0280859228111,0.0260587151034,0.00467183377866,0.0187614818678,-3.30812692642,0.525568604469,1.85172760487,0.00780995935202,-1.22265291214,-0.0186922103167
2017/07/09/10:21:26.152210,527082,1499566888,959185485,,0.745111092979,-0.0843347481729,-0.031872531586,0.787420170175,0.616213448474,-0.00316566246513,0.0155061311202,-0.00463746507937,0.0117773342713,-0.0363623537148,0.0394258249084,-0.00279977254694,-0.0290998701925,-3.77232146263,0.636207461357,1.7091511488,-0.0472696535289,-1.40931046009,-0.0166539475322
2017/07/09/10:21:26.162302,527083,1499566888,969186287,,0.744550864172,-0.0840762542113,-0.032289775256,0.787217528892,0.61647807113,-0.00371095942976,0.0151518580245,-0.0114435401531,-0.00600346284409,-0.0298020516943,-0.00990947142428,0.0135367154793,-0.00124155884429,-4.40887212753,1.04023683071,1.96477925777,-0.198536664248,-1.68530905247,-0.0222023278475
2017/07/09/10:21:26.172248,527084,1499566888,979199242,,0.744870790258,-0.0845520650729,-0.0321544883976,0.787241806918,0.616436608833,-0.00342474562632,0.0156370025343,-0.000144954693377,0.0132897644404,-0.0327459051186,0.0073363209109,-0.00707458001125,-0.0127350242185,-3.59199929237,0.618554353714,2.19233012199,-0.0218759328127,-1.34953439236,-0.0361509621143
2017/07/09/10:21:26.182480,527085,1499566888,989198367,,0.744838974238,-0.0835453641941,-0.0329854986005,0.787200468961,0.616506015067,-0.00299052753755,0.0150602722143,0.00461463058425,0.0130192657705,-0.0277659732135,0.00140138150725,-0.0169968160756,0.0285262904474,-2.15416789055,0.0876525193453,2.04215312004,0.141749873757,-0.791386783123,-0.062150914222
2017/07/09/10:21:26.192354,527086,1499566888,999197970,,0.745104324062,-0.0834201081461,-0.0334106382264,0.787115755754,0.61660707756,-0.00310904581305,0.0153242546551,-0.00500136049897,0.0208571964058,-0.031815574522,0.0162177755252,0.00976328474411,0.0443681595534,-1.76922142506,-0.145361080766,2.07455515862,0.252496391535,-0.633793532848,-0.039019651711
2017/07/09/10:21:26.201964,527087,1499566889,9185819,,0.74464295531,-0.0838401694702,-0.0334904391277,0.787450851316,0.616184644846,-0.00324589595201,0.0150699826212,-0.00728461071186,0.0220790173957,-0.0348208919444,0.0267938468633,0.0200451705428,0.0278389017902,-2.52180933952,0.112551413476,2.06950902939,0.143423452973,-0.919317901134,-0.0337139219046
2017/07/09/10:21:26.212266,527088,1499566889,19197393,,0.744851662056,-0.0829153338402,-0.0336722022661,0.786801376316,0.617021602546,-0.00298630705496,0.0147992631292,-0.0104189353132,0.0129596496646,-0.0324889871927,0.023246312691,0.015478669391,0.0212665785545,-3.37033200264,0.460790097713,2.21431493759,0.032676383853,-1.2746386528,-0.0179869905114
2017/07/09/10:21:26.222321,527089,1499566889,29191410,,0.745206834724,-0.0829720565298,-0.0341056210677,0.786815122746,0.616996702272,-0.00264568396289,0.0151668176988,-0.00711924157248,-0.00269518046115,-0.015210651992,-0.00545677063677,0.0114776730866,0.0139066242724,-3.33660554886,0.550120472908,2.28797912598,-0.0685193091631,-1.21029567719,-0.0464911647141
2017/07/09/10:21:26.232288,527090,1499566889,39192049,,0.744237388049,-0.0837948804687,-0.0342218348394,0.78722983234,0.616471680865,-0.00344380936955,0.0148323276113,0.00225621992809,-0.019877637209,-0.0230149440422,-0.000299942883612,-0.0356006494325,-0.0251100704441,-2.67786335945,0.27458178997,2.05085277557,0.0167697519064,-0.941285014153,-0.057978194207
2017/07/09/10:21:26.242036,527091,1499566889,49184683,,0.745136173085,-0.083476885173,-0.0337933068907,0.787483216564,0.616138407205,-0.00277859376085,0.0153598897718,0.0120938227207,0.00448407953415,-0.0223254919316,0.0236720647817,-0.0402059036176,-0.0210422238786,-3.33459067345,0.464566200972,2.2312130928,0.0463015958667,-1.25144195557,-0.0217540562153
2017/07/09/10:21:26.252379,527092,1499566889,59194844,,0.744268811833,-0.0838512131501,-0.0346045499916,0.787242927106,0.616455850696,-0.00312203698533,0.0148664302898,-0.00390930011716,0.0055442947315,-0.0305338271123,0.00424815017888,-0.000324267723011,0.000134538884633,-3.73879814148,0.754365801811,2.46870613098,-0.141529113054,-1.35768318176,-0.0431185029447
2017/07/09/10:21:26.261996,527093,1499566889,69192817,,0.744831986583,-0.0840396066143,-0.0345913993632,0.787585619155,0.616004183453,-0.00269065233328,0.0155080256036,0.00139474654898,0.0162590434899,-0.0246701435002,0.0302900906541,-0.0150308236943,0.00219405947585,-3.82809352875,0.758239388466,2.57868719101,-0.107094183564,-1.412966609,-0.030777990818
2017/07/09/10:21:26.272124,527094,1499566889,79202131,,0.744946163725,-0.0833313445761,-0.0352024515768,0.787023578755,0.616729390286,-0.00251677296454,0.0152450482332,0.00866010333647,0.00292545458293,-0.0258440668484,0.00579702917357,-0.0401028670522,-0.00310058197309,-3.74716448784,0.711248517036,2.52362108231,-0.137453913689,-1.36948275566,-0.0527290515602
2017/07/09/10:21:26.282478,527095,1499566889,89190332,,0.74527861812,-0.0832486399098,-0.0354575738847,0.787421767744,0.616217430994,-0.00210081159818,0.0154474597481,0.0290760151326,0.0128829260332,-0.0273723612738,-0.00408153965997,-0.0725044828726,0.0377955823481,-3.12412071228,0.405583143234,2.59658050537,-0.0101091042161,-1.1210501194,-0.051475211978
