time,.header.seq,.header.stamp.secs,.header.stamp.nsecs,.header.frame_id,.ch0,.ch1,.ch2,.ch3,.ch4,.ch5,.ch6,.ch7
2017/07/09/10:20:09.095915,210619,1499566809,95644950,0,443,759,475,154,91,61,77,166
2017/07/09/10:20:09.101007,210620,1499566809,100744009,0,608,784,489,159,96,69,90,212
2017/07/09/10:20:09.116666,210621,1499566809,116255044,0,620,753,485,155,104,72,101,226
2017/07/09/10:20:09.146716,210622,1499566809,146440982,0,596,705,450,140,99,67,94,222
2017/07/09/10:20:09.169535,210623,1499566809,169128894,0,811,637,374,144,114,78,138,369
2017/07/09/10:20:09.176333,210624,1499566809,176069021,0,791,567,286,131,117,80,144,439
2017/07/09/10:20:09.209372,210625,1499566809,209129095,0,707,662,273,136,122,80,141,422
2017/07/09/10:20:09.222016,210626,1499566809,221761941,0,703,707,276,136,126,80,136,415
2017/07/09/10:20:09.236242,210627,1499566809,236078977,0,742,692,271,137,129,80,138,444
2017/07/09/10:20:09.268718,210628,1499566809,268604993,0,515,611,220,101,113,65,95,328
2017/07/09/10:20:09.281091,210629,1499566809,280898094,0,583,682,246,96,113,61,83,250
2017/07/09/10:20:09.295967,210630,1499566809,295862913,0,557,605,245,107,123,56,75,246
2017/07/09/10:20:09.320673,210631,1499566809,320518016,0,538,578,212,104,114,51,65,238
2017/07/09/10:20:09.341028,210632,1499566809,340862989,0,480,585,238,107,109,49,62,182
2017/07/09/10:20:09.371725,210633,1499566809,371522903,0,474,544,223,107,113,48,60,179
2017/07/09/10:20:09.380634,210634,1499566809,380425930,0,438,442,183,105,112,48,61,202
2017/07/09/10:20:09.401112,210635,1499566809,400911092,0,410,405,152,73,95,45,59,205
2017/07/09/10:20:09.424031,210636,1499566809,423692941,0,410,516,230,96,105,53,66,216
2017/07/09/10:20:09.438989,210637,1499566809,438801050,0,449,500,212,92,107,52,66,247
2017/07/09/10:20:09.485163,210638,1499566809,484942913,0,458,502,217,90,106,54,68,255
2017/07/09/10:20:09.486736,210639,1499566809,486552000,0,408,479,220,86,101,49,65,218
2017/07/09/10:20:09.498527,210640,1499566809,498270988,0,457,446,221,89,92,52,65,216
2017/07/09/10:20:09.521541,210641,1499566809,521186113,0,475,337,151,63,80,45,58,219
2017/07/09/10:20:09.543357,210642,1499566809,543281078,0,410,354,150,63,75,43,57,186
2017/07/09/10:20:09.558657,210643,1499566809,558409929,0,387,336,149,66,73,42,58,180
2017/07/09/10:20:09.597358,210644,1499566809,597122907,0,406,340,157,76,82,47,61,178
2017/07/09/10:20:09.598871,210645,1499566809,598783016,0,388,368,174,79,84,44,61,173
2017/07/09/10:20:09.618388,210646,1499566809,618207931,0,401,347,165,80,82,42,66,181
2017/07/09/10:20:09.659549,210647,1499566809,658870935,0,424,332,152,79,83,42,64,163
2017/07/09/10:20:09.660257,210648,1499566809,660079956,0,418,350,185,81,76,39,61,167
2017/07/09/10:20:09.678849,210649,1499566809,678610086,0,408,349,192,87,82,36,62,171
2017/07/09/10:20:09.716513,210650,1499566809,716222047,0,376,309,178,93,86,46,77,190
2017/07/09/10:20:09.724926,210651,1499566809,724792003,0,364,292,196,96,87,50,75,216
2017/07/09/10:20:09.738976,210652,1499566809,738769054,0,342,396,261,116,102,56,76,221
2017/07/09/10:20:09.762639,210653,1499566809,762391090,0,326,400,249,109,99,54,79,221
2017/07/09/10:20:09.783812,210654,1499566809,783610105,0,350,424,239,101,89,55,82,231
2017/07/09/10:20:09.799111,210655,1499566809,798677921,0,414,433,239,95,84,52,78,231
2017/07/09/10:20:09.822264,210656,1499566809,822166919,0,450,523,235,97,85,52,87,224
2017/07/09/10:20:09.843786,210657,1499566809,843527078,0,505,474,163,74,70,49,88,227
2017/07/09/10:20:09.875087,210658,1499566809,874253034,0,568,474,146,75,77,52,84,241
2017/07/09/10:20:09.881285,210659,1499566809,881025075,0,609,494,164,84,76,50,89,306
2017/07/09/10:20:09.903533,210660,1499566809,903358936,0,583,495,178,92,82,50,85,322
2017/07/09/10:20:09.928251,210661,1499566809,928044080,0,568,381,173,90,83,55,80,333
2017/07/09/10:20:09.940945,210662,1499566809,940726995,0,562,340,176,94,86,55,77,340
2017/07/09/10:20:09.963589,210663,1499566809,963399887,0,611,366,197,104,85,55,84,345
2017/07/09/10:20:09.987374,210664,1499566809,987303972,0,565,427,203,103,90,56,83,288
2017/07/09/10:20:10.001514,210665,1499566810,1081943,0,576,418,184,98,90,61,82,294
2017/07/09/10:20:10.042109,210666,1499566810,39807081,0,577,421,180,99,95,70,129,428
2017/07/09/10:20:10.049547,210667,1499566810,47823905,0,583,465,186,103,105,73,137,440
2017/07/09/10:20:10.061575,210668,1499566810,61222076,0,526,440,171,106,106,74,136,441
2017/07/09/10:20:10.099838,210669,1499566810,99669933,0,547,340,140,100,107,77,138,483
2017/07/09/10:20:10.101199,210670,1499566810,101075887,0,559,438,193,107,109,96,158,496
2017/07/09/10:20:10.121170,210671,1499566810,121006011,0,556,427,184,101,103,88,120,364
2017/07/09/10:20:10.151862,210672,1499566810,151598930,0,522,384,183,98,97,89,117,340
2017/07/09/10:20:10.158345,210673,1499566810,158224105,0,483,381,188,103,115,96,116,353
2017/07/09/10:20:10.181177,210674,1499566810,180860996,0,518,370,195,107,154,97,108,326
2017/07/09/10:20:10.205845,210675,1499566810,205358028,0,577,254,160,96,149,74,75,324
2017/07/09/10:20:10.218904,210676,1499566810,218688011,0,567,395,211,115,164,76,77,322
2017/07/09/10:20:10.241242,210677,1499566810,241050004,0,633,421,223,122,183,79,77,352
2017/07/09/10:20:10.264860,210678,1499566810,264741897,0,625,443,221,108,180,85,82,339
2017/07/09/10:20:10.278357,210679,1499566810,278220891,0,642,493,235,111,162,96,84,306
2017/07/09/10:20:10.317016,210680,1499566810,316694021,0,566,504,250,116,164,99,84,276
2017/07/09/10:20:10.323355,210681,1499566810,323237895,0,556,394,211,101,151,95,90,300
2017/07/09/10:20:10.338466,210682,1499566810,338308095,0,455,370,197,91,125,91,84,285
2017/07/09/10:20:10.376892,210683,1499566810,376537084,0,509,431,223,96,123,82,96,340
2017/07/09/10:20:10.383261,210684,1499566810,383107900,0,546,435,215,91,106,78,104,367
2017/07/09/10:20:10.399137,210685,1499566810,398726940,0,586,437,215,96,144,77,104,407
2017/07/09/10:20:10.431721,210686,1499566810,431525945,0,598,447,216,90,178,80,101,411
2017/07/09/10:20:10.443709,210687,1499566810,443526029,0,610,476,233,93,200,81,110,419
2017/07/09/10:20:10.498643,210688,1499566810,497982978,0,627,408,214,91,196,76,99,376
2017/07/09/10:20:10.499420,210689,1499566810,499263048,0,564,345,203,83,194,62,95,406
2017/07/09/10:20:10.503431,210690,1499566810,503266096,0,547,355,172,77,168,59,98,361
2017/07/09/10:20:10.533857,210691,1499566810,533655881,0,529,385,183,82,143,75,107,408
2017/07/09/10:20:10.542475,210692,1499566810,542258977,0,558,352,155,78,142,71,106,403
2017/07/09/10:20:10.563632,210693,1499566810,563369035,0,563,504,187,88,157,71,104,428
2017/07/09/10:20:10.595038,210694,1499566810,594805002,0,573,540,189,92,161,79,115,428
2017/07/09/10:20:10.608252,210695,1499566810,608159065,0,584,519,189,90,160,78,120,421
2017/07/09/10:20:10.624374,210696,1499566810,623944997,0,581,510,185,92,160,65,112,369
2017/07/09/10:20:10.647493,210697,1499566810,647176027,0,588,547,219,98,132,75,112,423
2017/07/09/10:20:10.662307,210698,1499566810,662195920,0,574,554,245,91,110,80,133,424
2017/07/09/10:20:10.685368,210699,1499566810,685203075,0,533,517,244,107,114,80,124,387
2017/07/09/10:20:10.707391,210700,1499566810,707200050,0,546,518,248,106,110,95,128,433
2017/07/09/10:20:10.723211,210701,1499566810,722805976,0,611,530,250,105,118,97,139,445
2017/07/09/10:20:10.767416,210702,1499566810,767182111,0,584,526,244,101,121,100,144,390
2017/07/09/10:20:10.768744,210703,1499566810,768637895,0,619,412,190,97,120,98,132,367
2017/07/09/10:20:10.782621,210704,1499566810,782458066,0,620,441,207,84,109,94,139,392
2017/07/09/10:20:10.812316,210705,1499566810,812185049,0,586,498,231,86,113,78,130,363
2017/07/09/10:20:10.826180,210706,1499566810,825831890,0,535,507,224,81,88,71,116,352
2017/07/09/10:20:10.842716,210707,1499566810,842525005,0,561,480,202,80,88,76,116,346
2017/07/09/10:20:10.865152,210708,1499566810,864953041,0,478,476,212,106,125,84,110,331
2017/07/09/10:20:10.886280,210709,1499566810,885924100,0,498,458,204,110,126,83,102,303
2017/07/09/10:20:10.908422,210710,1499566810,908238887,0,523,467,193,114,125,84,119,319
2017/07/09/10:20:10.925106,210711,1499566810,924891948,0,537,466,207,116,125,87,124,323
2017/07/09/10:20:10.946223,210712,1499566810,945954084,0,555,515,222,117,129,76,124,357
2017/07/09/10:20:10.975984,210713,1499566810,975876092,0,623,509,225,114,104,81,144,485
2017/07/09/10:20:10.984849,210714,1499566810,984715938,0,626,521,224,104,102,81,142,483
2017/07/09/10:20:11.006113,210715,1499566811,5866050,0,621,489,226,108,108,86,137,474
2017/07/09/10:20:11.038810,210716,1499566811,38358926,0,628,495,231,171,158,92,156,505
2017/07/09/10:20:11.043474,210717,1499566811,43243885,0,574,424,212,173,150,93,156,493
2017/07/09/10:20:11.066300,210718,1499566811,65916061,0,515,405,216,167,144,77,144,417
2017/07/09/10:20:11.097856,210719,1499566811,97450971,0,622,644,303,182,160,84,164,474
2017/07/09/10:20:11.103859,210720,1499566811,103590965,0,607,636,298,187,163,87,166,478
2017/07/09/10:20:11.126072,210721,1499566811,125884056,0,600,609,287,143,125,83,163,513
2017/07/09/10:20:11.150208,210722,1499566811,149964094,0,614,622,294,141,125,80,157,506
2017/07/09/10:20:11.165818,210723,1499566811,165231943,0,630,676,291,132,120,82,150,466
2017/07/09/10:20:11.186345,210724,1499566811,185920953,0,484,472,253,138,126,79,142,462
2017/07/09/10:20:11.209072,210725,1499566811,208626031,0,498,532,267,128,116,75,137,482
2017/07/09/10:20:11.225142,210726,1499566811,225035905,0,529,543,275,119,108,79,137,455
2017/07/09/10:20:11.262168,210727,1499566811,261934995,0,553,535,277,119,114,82,137,464
2017/07/09/10:20:11.276252,210728,1499566811,275985002,0,528,463,267,127,122,95,149,480
2017/07/09/10:20:11.285392,210729,1499566811,285042047,0,547,450,216,102,95,92,135,410
2017/07/09/10:20:11.315407,210730,1499566811,315232992,0,532,383,221,114,98,89,140,415
2017/07/09/10:20:11.329029,210731,1499566811,328560113,0,582,362,205,117,99,82,114,367
2017/07/09/10:20:11.345010,210732,1499566811,344856977,0,545,374,200,116,90,78,110,364
2017/07/09/10:20:11.366224,210733,1499566811,365940093,0,525,381,203,107,80,60,90,360
2017/07/09/10:20:11.390048,210734,1499566811,389909029,0,506,432,215,102,77,58,88,367
2017/07/09/10:20:11.405545,210735,1499566811,405296087,0,556,428,183,88,71,54,70,310
2017/07/09/10:20:11.428281,210736,1499566811,427948951,0,474,439,183,85,75,58,78,333
2017/07/09/10:20:11.448503,210737,1499566811,448259115,0,512,460,190,90,89,64,79,324
2017/07/09/10:20:11.465221,210738,1499566811,464979887,0,532,435,183,94,93,62,80,338
2017/07/09/10:20:11.486197,210739,1499566811,485874891,0,538,343,168,94,96,68,80,347
2017/07/09/10:20:11.508795,210740,1499566811,508368015,0,465,415,166,90,95,68,84,364
2017/07/09/10:20:11.540989,210741,1499566811,540791988,0,515,426,190,86,88,62,89,364
2017/07/09/10:20:11.545793,210742,1499566811,545681953,0,483,372,173,87,78,52,89,394
2017/07/09/10:20:11.568823,210743,1499566811,568564891,0,517,374,175,88,80,53,87,369
2017/07/09/10:20:11.592637,210744,1499566811,592454910,0,526,379,164,89,81,45,88,378
2017/07/09/10:20:11.606216,210745,1499566811,605904102,0,563,311,172,85,75,52,88,378
2017/07/09/10:20:11.628711,210746,1499566811,628319978,0,492,290,179,92,82,56,77,344
2017/07/09/10:20:11.652509,210747,1499566811,652322053,0,508,311,196,84,79,58,79,312
2017/07/09/10:20:11.665888,210748,1499566811,665708065,0,492,318,188,80,79,60,82,404
2017/07/09/10:20:11.696871,210749,1499566811,696639060,0,521,321,192,80,77,60,86,428
2017/07/09/10:20:11.705094,210750,1499566811,704946041,0,476,315,188,87,86,56,88,401
2017/07/09/10:20:11.726333,210751,1499566811,726028919,0,463,289,155,78,82,55,90,406
2017/07/09/10:20:11.764989,210752,1499566811,764744043,0,555,319,153,80,82,53,89,424
2017/07/09/10:20:11.766199,210753,1499566811,766089916,0,540,365,166,85,81,52,85,329
2017/07/09/10:20:11.786695,210754,1499566811,786233901,0,513,347,154,82,84,54,84,305
2017/07/09/10:20:11.808565,210755,1499566811,808393955,0,564,305,152,81,73,50,74,313
2017/07/09/10:20:11.825103,210756,1499566811,824718952,0,556,385,200,86,70,44,71,316
2017/07/09/10:20:11.846098,210757,1499566811,845879077,0,442,386,210,92,68,43,75,343
2017/07/09/10:20:11.870458,210758,1499566811,870203971,0,457,340,198,93,67,41,73,343
2017/07/09/10:20:11.884804,210759,1499566811,884654045,0,436,366,209,102,69,46,74,321
2017/07/09/10:20:11.908833,210760,1499566811,905977964,0,367,380,212,103,73,49,94,365
2017/07/09/10:20:11.930084,210761,1499566811,929903030,0,378,315,170,99,75,50,89,356
