time,.header.seq,.header.stamp.secs,.header.stamp.nsecs,.header.frame_id,.pose.position.x,.pose.position.y,.pose.position.z,.pose.orientation.x,.pose.orientation.y,.pose.orientation.z,.pose.orientation.w,.twist.linear.x,.twist.linear.y,.twist.linear.z,.twist.angular.x,.twist.angular.y,.twist.angular.z,.wrench.force.x,.wrench.force.y,.wrench.force.z,.wrench.torque.x,.wrench.torque.y,.wrench.torque.z
2017/07/09/10:22:37.361846,534203,1499566960,168971879,,0.781780119075,0.398282613588,0.166585192989,0.623536122273,0.779202544771,0.0556712442625,0.0307702942013,-0.00229342534137,-0.0112533379602,0.00183282298987,0.00496845562745,0.0122446801327,-0.0175859788266,8.71921443939,1.45811891556,-1.70015513897,-0.636557936668,3.23600530624,-0.080402135849
2017/07/09/10:22:37.371676,534204,1499566960,178966545,,0.78205287209,0.398500889784,0.166719904243,0.623418734656,0.779268333504,0.0559876482027,0.030908395749,-0.00537659548119,-0.0149380089018,0.00160701311503,-0.00745456348186,0.0135760858696,-0.00967906095582,9.09162902832,1.54858243465,-1.76263225079,-0.642588436604,3.3661031723,-0.0444606691599
2017/07/09/10:22:37.381904,534205,1499566960,188956023,,0.781727207917,0.398762925067,0.166320827761,0.623408199149,0.779306116836,0.055738353945,0.0306174688058,-0.00308300040683,-0.0147878694028,-0.00259189088623,-0.022596129901,0.0080317624199,0.0137049192768,9.20077991486,1.77904140949,-1.81320786476,-0.767679691315,3.38501167297,-0.0956273600459
2017/07/09/10:22:37.391936,534206,1499566960,198956686,,0.781450189388,0.398319967537,0.166014084942,0.623168411162,0.77952919271,0.0553218386439,0.030575532879,-0.000398173154718,-0.00325377059031,0.00208610910515,0.00142427896022,0.00170752822653,-0.0122503726454,9.17540931702,1.88570809364,-1.72586655617,-0.818012952805,3.39608860016,-0.0850100517273
2017/07/09/10:22:37.401726,534207,1499566960,208976442,,0.781738505837,0.398151665313,0.166338887571,0.62350160475,0.779245371291,0.0554599584118,0.0307667549135,0.0102095947848,-0.0241156231063,0.0116999393221,-0.0126507795394,-0.0164617362425,-0.0286505738773,9.2769985199,1.71472787857,-1.91339504719,-0.739271521568,3.38477802277,-0.105908185244
2017/07/09/10:22:37.411929,534208,1499566960,218983027,,0.781548624449,0.397693150056,0.166376317094,0.623641027388,0.779152932157,0.0552580559213,0.0306451386947,0.00635201887268,-0.0124170132753,0.0168589160488,-0.00094356154132,-0.013461386401,-0.0261497960377,9.0331287384,1.72832751274,-1.9984588623,-0.727249145508,3.25678062439,-0.0859489738941
2017/07/09/10:22:37.421873,534209,1499566960,228966812,,0.781419137295,0.397626539007,0.166396424264,0.6235275142,0.779255437215,0.0551797361949,0.030489331246,-0.00949601989973,-0.0257404729785,-0.00639261797031,-0.0101226941222,0.0318489376494,-0.0386451869509,9.25348949432,2.11226201057,-2.07478690147,-0.902590036392,3.28746604919,-0.148567944765
2017/07/09/10:22:37.431759,534210,1499566960,238965329,,0.781690666132,0.397136871623,0.166473741623,0.624088902028,0.778798335019,0.055155707592,0.0307252934554,-0.00685518051527,-0.0270271477779,0.00294011003441,-0.00596709746226,0.0223187200773,-0.0245729459053,9.11106681824,1.91327226162,-2.13276481628,-0.777616620064,3.21290063858,-0.131870344281
2017/07/09/10:22:37.441668,534211,1499566960,248955997,,0.782004328702,0.397280284367,0.167118080529,0.623835310751,0.778957111497,0.0556158449767,0.0310193696917,0.0018591673,-0.0239502137748,0.011322599769,0.0116987039594,0.00530011027179,-0.0454494337662,9.11656475067,2.13154411316,-2.31494140625,-0.884309113026,3.15443992615,-0.134330898523
2017/07/09/10:22:37.451859,534212,1499566960,258965540,,0.782164112747,0.396573790444,0.167157139729,0.624266483987,0.778608822404,0.0555972064561,0.0311224883344,-0.00380038283089,-0.0357088576567,-0.00576719007499,-0.0210075226155,0.0279506949236,-0.0301707186942,9.3486366272,2.11738824844,-2.37572288513,-0.861400008202,3.22270965576,-0.145073831081
2017/07/09/10:22:37.462083,534213,1499566960,268956882,,0.781480536198,0.396287679647,0.166705380016,0.624471312109,0.778519025086,0.0549532620406,0.0303948502709,-0.00347774801686,-0.0354155295222,0.00093099428133,-0.0180270927205,0.0220411057493,-0.0363678278913,9.39364624023,2.43339061737,-2.32845044136,-0.990167617798,3.24107027054,-0.145016402006
2017/07/09/10:22:37.471865,534214,1499566960,278961669,,0.78128750842,0.396517503468,0.166685983296,0.624328799906,0.778648722397,0.0547992152473,0.0302780898683,-0.0123234956494,-0.045124392026,-0.0102095950736,-0.0194967359943,0.053633600963,-0.0572410598377,9.50723171234,2.43269848824,-2.47582507133,-0.986933469772,3.20621395111,-0.153637990355
2017/07/09/10:22:37.481686,534215,1499566960,288955513,,0.781483673731,0.395718059737,0.166798812937,0.624885527938,0.778187559753,0.0549096342713,0.0304488240021,0.00584064878671,-0.0546900532904,0.00752419379,-0.0219843659551,0.00874183766748,-0.0754964017849,9.58843994141,2.70229434967,-2.46494603157,-1.06058287621,3.20538187027,-0.125151753426
2017/07/09/10:22:37.491949,534216,1499566960,298965887,,0.781720945777,0.394957506153,0.166632439014,0.625308398877,0.777854140963,0.0547574486212,0.0305608164459,-0.00807181184808,-0.0460393924975,-0.00378655170811,-0.0118577220874,0.0350553893167,-0.0842711437009,10.1092805862,2.81463670731,-2.56128573418,-1.07344460487,3.36665439606,-0.101946286857
2017/07/09/10:22:37.501819,534217,1499566960,308957831,,0.780981527496,0.395136740814,0.166628758002,0.625165184471,0.778021069265,0.0542687461507,0.0301099833478,0.000525440733807,-0.0278922529815,0.00574197849313,0.00180717640159,0.00405341792045,-0.0389250636922,9.90065383911,3.00045442581,-2.64957284927,-1.14450538158,3.21168255806,-0.119684562087
2017/07/09/10:22:37.511922,534218,1499566960,318953546,,0.781577917842,0.394106621694,0.166956551275,0.625897109189,0.777414023199,0.0542801642511,0.0305599249219,-0.0131975655716,-0.0573366997416,-0.00469919188784,-0.0162574306264,0.0568431508212,-0.0818369524029,9.82773399353,2.93547272682,-2.73002529144,-1.09245705605,3.1451356411,-0.0844882652164
2017/07/09/10:22:37.521680,534219,1499566960,328952801,,0.781405278765,0.393222606023,0.166787987797,0.626030685633,0.777336426411,0.0539433291333,0.0303937174792,-0.016159053546,-0.0535475780627,-0.00721200520553,-0.0103979384101,0.0666147937304,-0.0708827956612,10.0616350174,2.96322107315,-2.84258198738,-1.07052385807,3.15528655052,-0.0825622230768
2017/07/09/10:22:37.531651,534220,1499566960,338957779,,0.781326190008,0.393148536892,0.167056257824,0.626444123298,0.776998774121,0.0541837988729,0.0300795834286,-0.00955863351277,-0.0732758456389,0.00350211589561,-0.0389320318953,0.0447889999527,-0.0793479178281,9.7087392807,2.97477793694,-2.86768341064,-1.09349393845,2.98694443703,-0.0712081193924
2017/07/09/10:22:37.541994,534221,1499566960,348952171,,0.780918123497,0.392364801751,0.166623216665,0.626549876791,0.776973197123,0.0534879559857,0.0297815615737,-0.0137600251263,-0.0813387460942,-0.0183388120724,-0.0403006883564,0.0700298159473,-0.0986852551096,10.2317752838,3.02274537086,-2.78846645355,-1.10642123222,3.18464612961,-0.0758483931422
2017/07/09/10:22:37.551847,534222,1499566960,358965840,,0.781084983242,0.390742073351,0.166491709889,0.627421294226,0.776297450153,0.0528498052768,0.0301941471249,-0.0185726484229,-0.063078271974,-0.0158078425661,-0.0333964215763,0.0714168190529,-0.0735933276078,7.77990245819,2.51564502716,-1.92422282696,-0.883905231953,2.31553316116,-0.0375387966633
2017/07/09/10:22:37.561800,534223,1499566960,368953819,,0.781308828519,0.38936651449,0.166793925033,0.627943423588,0.775865836708,0.0528016406178,0.0305163390858,0.0094234402144,-0.0940251764864,0.00504887316613,-0.0293337664687,0.0103718013071,-0.128484209846,5.25868415833,1.57433390617,-0.629435539246,-0.600614964962,1.50368463993,-0.0682484582067
2017/07/09/10:22:37.571887,534224,1499566960,378960788,,0.780974378627,0.389261818091,0.166997557542,0.628061484585,0.775783637504,0.0526583509785,0.0304239615235,-0.000154695699389,-0.106768858523,0.0172872850318,-0.0235406931805,0.00872430865932,-0.136708800737,4.89055585861,0.70667386055,0.356188088655,-0.237629696727,1.47226655483,0.0141542777419
2017/07/09/10:22:37.581834,534225,1499566960,388966004,,0.780170757839,0.388650128847,0.166474905751,0.628447946787,0.775549417336,0.0520370250114,0.0294690935892,-0.0105761862869,-0.0929667774482,0.0183315706083,-0.0264618610727,0.0321070227445,-0.116167896819,5.61739253998,0.440379351377,0.37606087327,-0.0917120277882,1.79780888557,0.0746791958809
2017/07/09/10:22:37.591903,534226,1499566960,398980649,,0.779875749716,0.387377917803,0.166178677258,0.629141243931,0.775040039936,0.0513830902552,0.0292234446417,-0.0376871204673,-0.108461777644,-0.00672478443206,-0.0347247912372,0.120149471313,-0.13359494416,7.32625150681,0.868845641613,-0.116452522576,-0.180997043848,2.42262530327,0.124145790935
2017/07/09/10:22:37.601931,534227,1499566960,408952756,,0.77921139722,0.385838662922,0.166303281096,0.629576133161,0.774775476295,0.0502526987835,0.028836091101,-0.0473759598163,-0.125754775056,-0.00904612619178,-0.0512488225062,0.149328236215,-0.157522753987,7.56806659698,0.930602192879,-0.743733882904,-0.162273541093,2.35957217216,0.103404805064
2017/07/09/10:22:37.611785,534228,1499566960,418965551,,0.77871519429,0.385074229207,0.166166300081,0.629966142179,0.774524830548,0.0495739313643,0.0282200620304,-0.0575082102526,-0.137454838044,-0.00670486042312,-0.0763726842866,0.190664694662,-0.150710778181,7.3858923912,1.31710731983,-1.0525867939,-0.326098561287,2.1435008049,0.0421281084418
2017/07/09/10:22:37.621807,534229,1499566960,428955182,,0.778312066222,0.382313920413,0.165970844305,0.631021109798,0.773743108339,0.0484238210568,0.0280908319997,-0.0477697644157,-0.140177602873,0.00641393340393,-0.0926538791054,0.165283001037,-0.148921385696,7.48200654984,1.74749004841,-1.03611171246,-0.543835818768,2.13350939751,-0.000333935022354
2017/07/09/10:22:37.631985,534230,1499566960,438960424,,0.778072364943,0.381643902106,0.166699924367,0.631601160025,0.773296214653,0.0481734160759,0.0277895851381,-0.0558546187602,-0.133301758231,0.00915765699793,-0.0638148870486,0.172321990275,-0.151796376364,8.18570232391,2.21498894691,-0.974157631397,-0.77617675066,2.48444461823,-0.0217632241547
2017/07/09/10:22:37.641793,534231,1499566960,448955629,,0.77764743799,0.380312291913,0.166901998943,0.632390875027,0.772702973992,0.0475628084872,0.0273801828781,-0.0612924579253,-0.137107570108,0.00388084036661,-0.067355476528,0.194136088198,-0.141292604626,9.27168750763,2.09702157974,-0.968385517597,-0.703107237816,2.98240542412,0.00193082541227
2017/07/09/10:22:37.651904,534232,1499566960,458958379,,0.777057296933,0.378884823067,0.167411964886,0.632590033643,0.772609816433,0.046627029662,0.0270155694276,-0.0640690540629,-0.150115252448,0.005823855814,-0.0720563841794,0.210516954236,-0.165098752722,8.62927818298,1.67800998688,-0.952239334583,-0.490588486195,2.81119060516,0.073762126267
2017/07/09/10:22:37.661806,534233,1499566960,468968315,,0.775688926796,0.376653607437,0.166371586193,0.633677721333,0.771872732483,0.0446301040078,0.0259457925658,-0.0731340610856,-0.172320167526,0.00927658822638,-0.096108686037,0.233691280699,-0.166494945831,8.56351566315,1.52739870548,-1.0923306942,-0.464967668056,2.75385451317,0.00395454466343
2017/07/09/10:22:37.671843,534234,1499566960,478956349,,0.775688066449,0.375018532964,0.167299029089,0.634508965271,0.771221463607,0.0440648127649,0.0259638082465,-0.0762838736476,-0.178984881914,0.0173404332381,-0.0979172284845,0.252245764458,-0.208447224668,9.13402557373,1.57226145267,-1.19945287704,-0.473285406828,2.98981165886,0.0609355047345
2017/07/09/10:22:37.681881,534235,1499566960,488953309,,0.774085363797,0.372551069043,0.166622279259,0.635987007147,0.770159413226,0.042345063901,0.0241226143601,-0.08066106414,-0.207678288105,0.0149902289774,-0.0768522342424,0.27345647641,-0.263697735496,9.00735759735,1.52980792522,-1.33778703213,-0.46689042449,2.96186423302,0.0499892234802
2017/07/09/10:22:37.691859,534236,1499566960,498962590,,0.77321722284,0.370585656963,0.166805836288,0.636612556269,0.769732140936,0.0408343462606,0.023862954036,-0.0999487184976,-0.220159063077,0.00363349322791,-0.0979077631055,0.326189760736,-0.270294983321,9.32298564911,1.5666513443,-1.56533873081,-0.519434154034,3.07736682892,0.0330232828856
2017/07/09/10:22:37.701928,534237,1499566960,508953665,,0.772379453058,0.368749211218,0.167367474622,0.637501968436,0.769087187753,0.0395584147655,0.0230492884054,-0.106651488908,-0.217864627053,0.0102881965512,-0.133532248196,0.329124386664,-0.213228569393,9.84561252594,1.62933588028,-1.6881519556,-0.540859282017,3.32020735741,0.0286728180945
2017/07/09/10:22:37.711912,534238,1499566960,518966042,,0.771113261236,0.36734749861,0.167604377606,0.637938955144,0.768825007871,0.0380199678502,0.0222818048344,-0.1049616718,-0.185052248076,0.0212614047016,-0.111248440661,0.30765603583,-0.200971298803,9.43875789642,1.56759095192,-1.77802538872,-0.498179167509,3.17722463608,0.0399590656161
2017/07/09/10:22:37.721856,534239,1499566960,528953798,,0.770342668256,0.365255996487,0.167845788558,0.639044489871,0.767984770166,0.0368449102457,0.021540319115,-0.111048297054,-0.193962412419,0.0250560283955,-0.116107946341,0.324999135091,-0.199007078588,9.10856246948,1.37180757523,-1.63340568542,-0.352456837893,3.08480858803,0.0735364556313
2017/07/09/10:22:37.731572,534240,1499566960,538955855,,0.76963733,0.362169055976,0.168612119925,0.640330714397,0.766983977179,0.0354841853072,0.0212844437063,-0.120009949156,-0.225476184188,0.00974826252692,-0.112688289044,0.36628186536,-0.256616939285,9.33680915833,1.38278317451,-1.47474181652,-0.431001037359,3.25106358528,0.0174274891615
2017/07/09/10:22:37.741779,534241,1499566960,548958851,,0.767907311748,0.360805588275,0.167709039944,0.641203952044,0.766385492679,0.0337060292072,0.0193564482389,-0.10581289122,-0.235638498581,0.0163449839623,-0.108344398783,0.335944176131,-0.259875526832,8.37442874908,1.19459009171,-1.06648123264,-0.398682326078,2.94213294983,0.0145128518343
2017/07/09/10:22:37.751539,534242,1499566960,558951279,,0.767172454564,0.358810147441,0.168030160789,0.642085143385,0.765714229472,0.0324103065197,0.0189198165727,-0.128125903728,-0.224499713389,0.00941090002138,-0.124583224048,0.372020180148,-0.248246892916,8.10452461243,1.30746233463,-0.786049425602,-0.469988703728,2.90103960037,-0.0185537189245
2017/07/09/10:22:37.761721,534243,1499566960,568952989,,0.765570720564,0.357212177828,0.168308053528,0.6428168931,0.765195702724,0.0309556632205,0.017427719122,-0.118393495122,-0.235792348914,0.0162426610093,-0.123753771556,0.350255305891,-0.27204116828,7.76663160324,1.23242747784,-0.521254301071,-0.460295081139,2.79265022278,-0.00548226386309
2017/07/09/10:22:37.771870,534244,1499566960,578964320,,0.764572215994,0.353342601137,0.168332456673,0.644450973837,0.763914475053,0.0288237479552,0.0169354267729,-0.130591420766,-0.253794105423,0.0182794693977,-0.117964314889,0.389711085068,-0.291692000084,7.84313344955,1.27205610275,-0.573529303074,-0.499998629093,2.82712101936,-0.0301608741283
2017/07/09/10:22:37.781997,534245,1499566960,588957319,,0.763160753238,0.351250875224,0.168494557266,0.645392850112,0.763206750397,0.0271177716412,0.0157528294166,-0.119319534177,-0.251507942031,0.0250268228277,-0.123510289351,0.365348550513,-0.295288414699,7.78346252441,1.34128010273,-0.60374879837,-0.559018909931,2.80357527733,-0.0752530097961
2017/07/09/10:22:37.791750,534246,1499566960,598955637,,0.762332990175,0.349106134597,0.169160761789,0.646532297705,0.762296634239,0.025988311112,0.0149812261848,-0.130747972131,-0.233825289372,0.0247066841647,-0.106501882,0.377233266166,-0.271233852071,7.43672990799,1.02354371548,-0.592036068439,-0.39885494113,2.67748022079,-0.022293318063
2017/07/09/10:22:37.802132,534247,1499566960,608954406,,0.761341562667,0.346513927395,0.169053658283,0.647518589688,0.761526942363,0.024360761857,0.0142458887211,-0.11671636072,-0.252123593781,0.0302459988113,-0.119878494392,0.347939550614,-0.296924124635,7.22776889801,1.08457100391,-0.625302314758,-0.391852200031,2.59360957146,-0.0550812855363
2017/07/09/10:22:37.814051,534248,1499566960,618956570,,0.760273507541,0.343823452823,0.169676687013,0.648742506671,0.760540938381,0.0230413523295,0.013406609134,-0.128072312781,-0.244200326602,0.0307746954104,-0.122668924034,0.360615033538,-0.262790737567,8.19847583771,0.980761647224,-0.757951140404,-0.379442840815,2.95570325851,-0.0377979315817
2017/07/09/10:22:37.822074,534249,1499566960,628956793,,0.758880547487,0.341532258648,0.169398666555,0.649601776489,0.759882888868,0.0210768929853,0.0123000719542,-0.112945131939,-0.258415268573,0.023112313462,-0.109914574931,0.337645732124,-0.296595263017,7.89692354202,0.78571665287,-0.635819077492,-0.231016367674,2.86082029343,-0.00015864521265
2017/07/09/10:22:37.831736,534250,1499566960,638960079,,0.757684750445,0.338718075088,0.170123546758,0.651118145901,0.758632493786,0.0198302862191,0.011342803833,-0.127696332065,-0.268688291314,0.0104670416872,-0.0934739513946,0.381037841037,-0.334682258642,8.73714256287,0.996324241161,-0.632037878036,-0.297695338726,3.21042132378,-0.00329645723104
2017/07/09/10:22:37.841833,534251,1499566960,648952138,,0.756583634916,0.336772097868,0.170494455068,0.652126000815,0.757813119736,0.0183841510646,0.0106290924574,-0.121884443403,-0.266909973427,0.0455518656055,-0.0998597466936,0.335397938311,-0.335504397316,8.33421707153,0.951932013035,-0.508099853992,-0.363661319017,3.03570985794,-0.0336108915508
2017/07/09/10:22:37.851828,534252,1499566960,658960149,,0.755365297085,0.333924056628,0.170343221675,0.653779218351,0.756436403117,0.0170163602742,0.00933515805575,-0.101196750641,-0.259909096781,0.0421127576343,-0.0988526093267,0.29464059586,-0.331479448945,7.9131731987,1.01651251316,-0.259025841951,-0.377025455236,2.91095495224,-0.058177806437
2017/07/09/10:22:37.861883,534253,1499566960,668960956,,0.754786771645,0.330605209014,0.170934020669,0.655435788521,0.755029527427,0.0157876063534,0.00922449591363,-0.102526693,-0.282060678171,0.0382148753563,-0.108783118179,0.296785249652,-0.344421673339,7.48092889786,0.206373423338,-0.0542989000678,-0.199500247836,2.76414418221,-0.044718965888
2017/07/09/10:22:37.871833,534254,1499566960,678957358,,0.753126506029,0.328603699607,0.170999175227,0.655996907757,0.754588356361,0.0141686100325,0.00798247749768,-0.099859328835,-0.290566058277,0.0302127370025,-0.106841426388,0.29036810455,-0.365818949697,7.02830648422,0.299016058445,-0.00799265876412,-0.242994844913,2.58061051369,-0.0703424364328
2017/07/09/10:22:37.881765,534255,1499566960,688966508,,0.753186430471,0.326257135302,0.171865245168,0.657128159149,0.753613425397,0.0136625811845,0.00791968372329,-0.0942590252864,-0.254164737955,0.0417213972672,-0.100353265418,0.264164406242,-0.308522381281,6.89660310745,0.33615860343,0.166751116514,-0.285582184792,2.50963521004,-0.052948705852
2017/07/09/10:22:37.891674,534256,1499566960,698962200,,0.752047448657,0.323454915882,0.171917961235,0.658341373267,0.752584098403,0.0123167567999,0.00721862718444,-0.0883394075818,-0.261420067915,0.0489772746787,-0.0748437941407,0.253354106057,-0.340123799553,7.51163291931,0.599608838558,-0.140368521214,-0.42818570137,2.73108863831,-0.107314571738
2017/07/09/10:22:37.901779,534257,1499566960,708959744,,0.751122870973,0.320972305827,0.172943306928,0.659886805977,0.751250966535,0.011385583411,0.00646197099282,-0.0995615178226,-0.27108375149,0.0440871121044,-0.0797451886751,0.270838472176,-0.341428695398,8.27149963379,0.92375856638,-0.210425645113,-0.590853631496,2.99689769745,-0.124980300665
2017/07/09/10:22:37.911727,534258,1499566960,718952871,,0.750375555843,0.318295152353,0.172951119866,0.661220755604,0.750098207437,0.0101216585618,0.00611093979302,-0.0834970459933,-0.270636088669,0.0557844957367,-0.083779178716,0.225675870906,-0.3608325373,7.28250932693,0.768691599369,-0.306200414896,-0.551027774811,2.62361478806,-0.151958242059
2017/07/09/10:22:37.921908,534259,1499566960,728957770,,0.749361682733,0.315796489537,0.173253223636,0.662096813512,0.749345079193,0.00904631816071,0.00528450120361,-0.0874834550887,-0.254579916431,0.0398467733353,-0.0816375345873,0.230830477806,-0.328578104178,6.66386270523,0.459424287081,-0.287530839443,-0.385034829378,2.37072253227,-0.107549279928
2017/07/09/10:22:37.931798,534260,1499566960,738959783,,0.749261028231,0.312500330941,0.173388432902,0.664067364506,0.747607564705,0.00835003973036,0.00526701330309,-0.0722265033047,-0.255827113455,0.0480277309353,-0.0674286762299,0.183971783787,-0.34222403856,6.43488359451,0.261798799038,-0.143537193537,-0.345457673073,2.30457901955,-0.110091283917
2017/07/09/10:22:37.941856,534261,1499566960,748955696,,0.748765838309,0.310377763262,0.174452428542,0.665086996918,0.746705447054,0.0079677988441,0.0051745581812,-0.0483406481128,-0.290709858188,0.060406458323,-0.0824818026427,0.130500703142,-0.386738629808,6.2872838974,0.436687529087,0.0848731473088,-0.412317693233,2.31944489479,-0.131751030684
2017/07/09/10:22:37.951968,534262,1499566960,758960315,,0.748444021101,0.30715984198,0.175294270142,0.666434016881,0.745509932436,0.00715899166658,0.00542131172288,-0.0519369675426,-0.294038305526,0.0616749206394,-0.0965408204487,0.132774089778,-0.37185932545,6.53043031693,0.0545602813363,0.470043718815,-0.257894992828,2.40906333923,-0.0950929671526
2017/07/09/10:22:37.961786,534263,1499566960,768967012,,0.748243374861,0.304769971868,0.176011425822,0.667918944081,0.744182082914,0.00704607235361,0.00525970266032,-0.0530828594461,-0.274685613789,0.0613032629691,-0.0660281690789,0.127877428177,-0.353440883773,6.54063987732,0.252881646156,0.332465976477,-0.245176926255,2.41775393486,-0.091404736042
2017/07/09/10:22:37.971524,534264,1499566960,778965512,,0.747254399189,0.303038435216,0.176189236142,0.668646771147,0.743541775935,0.00607884612188,0.00449115845911,-0.0622693741991,-0.256189359634,0.0502244172183,-0.0504663978071,0.142673862744,-0.337717219527,6.26293468475,0.288826555014,0.121807411313,-0.27028387785,2.31363105774,-0.118489585817
2017/07/09/10:22:37.982130,534265,1499566960,788955885,,0.746545942856,0.300080159747,0.176640206805,0.670250381756,0.742105869919,0.00531490011152,0.00388013215547,-0.0611633702439,-0.265390699266,0.0361726992612,-0.0644112810854,0.148297365048,-0.345984052769,6.18625974655,0.196513652802,0.0723230689764,-0.261049181223,2.26527118683,-0.112611331046
2017/07/09/10:22:37.991803,534266,1499566960,798951935,,0.746391885467,0.296924105568,0.176865058756,0.671857888162,0.740653539242,0.00479697719189,0.0040375650727,-0.0554101466821,-0.293209248173,0.0448606084104,-0.0737118027243,0.134163193075,-0.3812870376,5.72039604187,-0.0221382975578,0.119587406516,-0.119125507772,2.06100296974,-0.113583609462
2017/07/09/10:22:38.001849,534267,1499566960,808965136,,0.746062024406,0.294650964518,0.177671477924,0.672703052819,0.739887537829,0.00452966677273,0.00406401424252,-0.0402441265033,-0.276985409487,0.0528494558487,-0.0443175472147,0.0857649546518,-0.38312192057,5.2221455574,0.14286890626,0.461746037006,-0.253834486008,1.89422750473,-0.145634800196
2017/07/09/10:22:38.011666,534268,1499566960,818965876,,0.74572908333,0.291543048775,0.17838177059,0.674503407319,0.738248865669,0.00411030577401,0.0041074614383,-0.0449814214876,-0.289346486477,0.0437041310352,-0.0555538757961,0.0944338265687,-0.394537624835,5.21615600586,-0.0546422451735,0.614439129829,-0.148815542459,1.90821301937,-0.120687015355
2017/07/09/10:22:38.021853,534269,1499566960,828966437,,0.74491507584,0.290188028892,0.178326881003,0.675047358687,0.737757526927,0.00356032195448,0.00349558295671,-0.0381686232117,-0.285383572146,0.0471652666787,-0.046456227998,0.0666179763924,-0.404572022931,4.1357293129,-0.0568245798349,0.355918884277,-0.0581310763955,1.4541863203,-0.117649339139
2017/07/09/10:22:38.031848,534270,1499566960,838965741,,0.744864223899,0.286217548235,0.178918497364,0.677096924154,0.73587727835,0.0031344261135,0.00381600358809,-0.0394592897102,-0.278425332392,0.0432543320376,-0.0638709204529,0.069344344596,-0.373641635072,4.51378011703,-0.657322347164,0.388261944056,0.0704074129462,1.52640461922,-0.101942554116
2017/07/09/10:22:38.041897,534271,1499566960,848960738,,0.744169150881,0.28410476256,0.179131685375,0.678020284483,0.735030735969,0.00241130820869,0.00353505349308,-0.0439532029193,-0.271851497161,0.040444805471,-0.0374756028414,0.070385488862,-0.376355251056,4.56113195419,-0.535937607288,0.296131819487,0.129771828651,1.56852114201,-0.105340965092
2017/07/09/10:22:38.051871,534272,1499566960,858965604,,0.743845637209,0.280517776924,0.179120507822,0.67992842234,0.733267574004,0.00222702787613,0.00332351548911,-0.0397265031004,-0.287390972705,0.0369636513749,-0.043564859433,0.067072249974,-0.384141197652,4.54303216934,-0.884569644928,-0.0405600219965,0.12116765976,1.52461409569,-0.114503979683
2017/07/09/10:22:38.062041,534273,1499566960,868965887,,0.743836945844,0.27892418551,0.179797372071,0.680799057316,0.73245764177,0.00246902840697,0.00351432346816,-0.0421820269176,-0.321811705269,0.018202749423,-0.051102147966,0.0752885878201,-0.434702174806,4.25581455231,-0.664132535458,0.222019016743,0.238701075315,1.35123109818,-0.093847438693
2017/07/09/10:22:38.071916,534274,1499566960,878965354,,0.74377220213,0.275126776225,0.180059494654,0.682517177797,0.730856356749,0.00207657078179,0.00386984044352,-0.0404809296383,-0.256575562994,0.0194069917286,-0.0207367507669,0.0612243335792,-0.355113582193,3.22205924988,-1.2488847971,0.217466771603,0.372852236032,0.968823373318,-0.0757300779223
2017/07/09/10:22:38.081814,534275,1499566960,888952880,,0.74324457473,0.272237831708,0.179986346584,0.684261345763,0.729226372899,0.00149697675028,0.00361480618173,-0.0359238103081,-0.295441766023,0.0118602069082,-0.034957484253,0.0504587998579,-0.409254019516,2.99916172028,-1.37781584263,0.3663212955,0.418728291988,0.90515679121,-0.0776848345995
2017/07/09/10:22:38.091680,534276,1499566960,898956269,,0.743158936931,0.271298778626,0.180162565676,0.684717935932,0.728797126768,0.00203514881006,0.00345751318003,-0.0214957407039,-0.290100898357,0.021081676944,-0.0401046414589,0.00499387146177,-0.41220925738,2.40383386612,-0.969013214111,0.626281857491,0.327248245478,0.703359544277,-0.0995109826326
2017/07/09/10:22:38.101985,534277,1499566960,908966051,,0.742515498845,0.267887821697,0.180180291595,0.686289933125,0.727319468513,0.00141024081785,0.00324493974751,-0.0200142012127,-0.271184182822,0.0229889700658,-0.0169072591274,-0.0146925308971,-0.384343979946,1.348747015,-1.82909166813,0.588937461376,0.612902104855,0.348047196865,-0.0779701769352
2017/07/09/10:22:38.111998,534278,1499566960,918965801,,0.742075559342,0.265761146785,0.180027991657,0.687562357267,0.726117568369,0.00112548156074,0.00316465891073,-0.0363400323668,-0.284005743427,-0.00187509983619,-0.0420743383272,0.0286803109454,-0.365482651836,2.66837596893,0.396474182606,0.405302703381,-0.502133607864,0.856061220169,-0.251712828875
2017/07/09/10:22:38.121696,534279,1499566960,928956037,,0.741533970355,0.262217860859,0.179822504852,0.688892173145,0.724856112259,0.000208413420874,0.00333869196725,-0.0462825326845,-0.265815402651,-0.0168343808318,-0.0330159453039,0.0702134987371,-0.371064353097,3.42440223694,1.67480134964,0.072426840663,-1.05252528191,1.16135299206,-0.284479051828
2017/07/09/10:22:38.131946,534280,1499566960,938965613,,0.741231714723,0.260289423025,0.179645565393,0.68974991796,0.724039691715,-8.64392927996e-05,0.00340117986289,-0.0411582198783,-0.265725480633,-0.00277298886213,-0.0718521950478,0.0538146838922,-0.349602619861,3.4104373455,2.04930877686,-0.0270582512021,-1.13052403927,1.12172412872,-0.273303031921
2017/07/09/10:22:38.141925,534281,1499566960,948967435,,0.740868138074,0.256316885981,0.179321834103,0.691561080511,0.722309637819,-0.000666602048749,0.00340803144105,-0.0432004353958,-0.293249563377,-8.26024906906e-05,-0.0805203343289,0.054510162751,-0.372364050222,2.85710263252,0.912563860416,-0.402088016272,-0.678915023804,0.890282988548,-0.244359850883
2017/07/09/10:22:38.151800,534282,1499566960,958965654,,0.740206531128,0.253368703821,0.179270451527,0.692865992353,0.721055407394,-0.00156599883372,0.00365564729216,-0.0536535304507,-0.310208701703,-0.0284337901004,-0.0782818500409,0.0858988950398,-0.401401925156,2.29754519463,-0.0144350975752,-0.438965946436,0.0135935619473,0.706432282925,-0.154583260417
2017/07/09/10:22:38.161787,534283,1499566960,968957124,,0.740078092991,0.25075112201,0.178974728537,0.694203218222,0.719768671727,-0.00152399059249,0.00355365492231,-0.0579178138022,-0.300523668646,-0.0165702765421,-0.0991747393179,0.0783482897624,-0.346797015682,2.04285573959,-0.919928789139,-0.508800923824,0.561488032341,0.606423437595,-0.0896800905466
2017/07/09/10:22:38.171908,534284,1499566960,978965163,,0.739609891403,0.248128699299,0.178832934426,0.695319226188,0.718689314259,-0.00199749463329,0.00358514687614,-0.0547263501854,-0.298094873512,-0.0167151897846,-0.092498992824,0.0688978584146,-0.3530695697,1.81934690475,-1.10719394684,-0.502106904984,0.731200635433,0.499219924212,-0.0644644498825
2017/07/09/10:22:38.181677,534285,1499566960,988954740,,0.739058060962,0.245491877777,0.178884979417,0.696412083095,0.717627759453,-0.00261378740655,0.00371180498908,-0.0650198684191,-0.292727122222,-0.032987393244,-0.0699102650984,0.105840587765,-0.366009229167,1.9376591444,-1.0749809742,-0.41577911377,0.647842288017,0.526668310165,-0.0943091884255
2017/07/09/10:22:38.191834,534286,1499566960,998956762,,0.737926766427,0.242684887136,0.178246452977,0.69794837047,0.71613419963,-0.00337598694048,0.00291255734053,-0.0664850721147,-0.27691197889,-0.030600318849,-0.0390320846429,0.102039027987,-0.343739164128,1.05290055275,-1.02889442444,-0.624823987484,0.516156971455,0.199230521917,-0.0642016679049
2017/07/09/10:22:38.201746,534287,1499566961,8970873,,0.73760024265,0.24110972854,0.177977934882,0.699090135462,0.715022741623,-0.00315459891433,0.00234733208882,-0.0629298884734,-0.249231432715,-0.0188324548869,-0.000240905399045,0.0936847090001,-0.369280458142,0.940704464912,-0.464354902506,-0.742406785488,0.212858498096,0.120892681181,-0.107997588813
2017/07/09/10:22:38.211554,534288,1499566961,18959551,,0.737176377325,0.238095982951,0.178032398956,0.700280388119,0.713852870732,-0.00373912077081,0.00273421631288,-0.0647528750035,-0.234707003416,-0.0437258666755,-0.00307401278521,0.116129333199,-0.347736315874,1.11141419411,-0.537759780884,-0.496461331844,0.159161180258,0.19889113307,-0.133260920644
2017/07/09/10:22:38.221894,534289,1499566961,28962205,,0.735873308485,0.235864093178,0.176947131217,0.701396748256,0.712753902788,-0.00468332246759,0.00159439240025,-0.0772185621175,-0.250921033036,-0.0507290623594,-0.0244452641383,0.144697210639,-0.356432785825,0.423645079136,-0.775273919106,-0.436419069767,0.314766258001,-0.0531758219004,-0.120095379651
2017/07/09/10:22:38.231860,534290,1499566961,38960133,,0.735228694782,0.233619195057,0.176518434442,0.702659211421,0.711506514213,-0.00518851812666,0.00126179091843,-0.0841444269459,-0.268076886781,-0.0475300861992,-0.0463268459237,0.148606054741,-0.358664060676,-0.161171287298,-0.874001860619,-0.162219718099,0.374221771955,-0.304873943329,-0.167028576136
2017/07/09/10:22:38.242039,534291,1499566961,48960223,,0.73434408322,0.231115687103,0.175601368673,0.703322443105,0.710841232427,-0.00639063712323,0.00120127588622,-0.081586822515,-0.250090745136,-0.0578608716536,-0.0492678273884,0.156301627388,-0.321487319363,-1.26133835316,-1.30722856522,0.0928266867995,0.617226243019,-0.749018609524,-0.106056399643
2017/07/09/10:22:38.251827,534292,1499566961,58969634,,0.734057808016,0.228426835349,0.175610221684,0.704989490924,0.709188109026,-0.00641729090074,0.000928482420085,-0.0920008748657,-0.264315599126,-0.0673268991572,-0.0412580630864,0.183501576416,-0.338265527889,-1.56677353382,-0.93179166317,0.43083563447,0.509006679058,-0.923849463463,-0.122826144099
2017/07/09/10:22:38.262004,534293,1499566961,68952261,,0.732562655763,0.225500954892,0.174397959586,0.706046136922,0.708121807565,-0.00789292684582,0.000244734965221,-0.0847214851916,-0.279331926681,-0.0564754561171,-0.0648058612289,0.150202807944,-0.355922627891,-2.62035369873,-1.31388688087,0.642973899841,0.608283519745,-1.31024551392,-0.119125470519
2017/07/09/10:22:38.272290,534294,1499566961,78957182,,0.732333985776,0.223640566509,0.174499087607,0.707059275709,0.707111612824,-0.00776830090561,-3.38343624412e-05,-0.0711839251074,-0.254036621432,-0.056339427709,-0.0402293485947,0.116903414285,-0.336252644927,-3.62875199318,-0.89968007803,0.993385851383,0.448711335659,-1.6861782074,-0.112632624805
2017/07/09/10:22:38.282115,534295,1499566961,88959903,,0.731929736484,0.221180065152,0.1739380757,0.707945445594,0.706219462546,-0.00820335256924,0.00014761685126,-0.0788888739803,-0.24398344966,-0.0636669590374,-0.0461419830664,0.147834624449,-0.305218711938,-3.28581857681,-0.308615863323,1.23436176777,0.133876025677,-1.52729070187,-0.158465668559
2017/07/09/10:22:38.291804,534296,1499566961,98969375,,0.730600595371,0.218685148548,0.173268469755,0.708924649014,0.705223863119,-0.00922058344104,-0.000354610255537,-0.0872621048074,-0.247783131286,-0.0651597154874,-0.0701033734815,0.149719212919,-0.268788042783,-4.11494445801,-0.700561702251,1.30063211918,0.189959913492,-1.81778943539,-0.154343798757
2017/07/09/10:22:38.301873,534297,1499566961,108978377,,0.730234768717,0.216385977387,0.172790242002,0.709814433185,0.704318918383,-0.00991577916656,-9.47233346845e-05,-0.083340483245,-0.255980338527,-0.0534893700658,-0.110661089702,0.132375641362,-0.279881823667,-4.81341648102,-0.464321315289,1.70235872269,0.238227799535,-2.08645272255,-0.120203852654
2017/07/09/10:22:38.311846,534298,1499566961,118960406,,0.729242024483,0.213462895476,0.17221669548,0.7107057516,0.703397226478,-0.0113873822837,6.2852690407e-05,-0.0749662055545,-0.25604714866,-0.0490332344399,-0.133209477691,0.105670447641,-0.263853096797,-5.85272026062,-0.658265948296,1.70929801464,0.320313870907,-2.43176221848,-0.114210113883
2017/07/09/10:22:38.321837,534299,1499566961,128954101,,0.727858511,0.211144044851,0.171021542148,0.711260858781,0.702813861994,-0.012656678743,-0.000688940056847,-0.0884975454763,-0.278530573284,-0.0661624983284,-0.15240138089,0.153816336303,-0.287865190719,-6.01666021347,-0.514721095562,1.52895581722,0.327402740717,-2.44590520859,-0.12434451282
2017/07/09/10:22:38.331792,534300,1499566961,138960308,,0.727356601994,0.20832946654,0.170743500291,0.71266193726,0.701377696359,-0.0134971592448,-0.000341940679728,-0.0910041566095,-0.275427465582,-0.0607894628274,-0.164771634023,0.153768566487,-0.274332639522,-6.56074666977,-1.24785423279,1.92731571198,0.658561825752,-2.68972969055,-0.0512319803238
2017/07/09/10:22:38.341951,534301,1499566961,148955536,,0.726325472649,0.205544526268,0.170076071022,0.713367492277,0.700629823776,-0.0149886455542,-0.000107248084427,-0.106086818986,-0.289832249656,-0.0622304490597,-0.202903018078,0.177567852422,-0.253067403252,-7.11320257187,-0.698046326637,1.97985005379,0.576264858246,-2.99551177025,-0.038565993309
2017/07/09/10:22:38.351564,534302,1499566961,158954052,,0.725452230918,0.202470888912,0.169574920188,0.714253584906,0.699698229625,-0.016253107682,0.000200995129806,-0.0929049144657,-0.296658573988,-0.0569611959907,-0.221543319024,0.15319953788,-0.257352161225,-7.4157538414,-1.25808441639,1.8169438839,0.691583693027,-3.11215305328,-0.012862443924
2017/07/09/10:22:38.361576,534303,1499566961,168956451,,0.724449729561,0.200063091036,0.169045655671,0.714747261682,0.699160416149,-0.0176346309773,0.000290169810696,-0.102782444725,-0.299090100896,-0.0624605167054,-0.225806883356,0.180150758167,-0.245825858543,-7.60111236572,-0.971536815166,2.16354203224,0.668008744717,-3.23434448242,0.037175282836
2017/07/09/10:22:38.371890,534304,1499566961,178965431,,0.72323846653,0.197283759623,0.168393422784,0.715442041445,0.698406127637,-0.0192721730325,0.000386728149395,-0.0944657733797,-0.271021583759,-0.0520023653486,-0.250313332554,0.158623494747,-0.180899640141,-8.29960727692,-0.638924717903,2.22881770134,0.563392877579,-3.47828245163,0.0253421366215
2017/07/09/10:22:38.381852,534305,1499566961,188952838,,0.722790403626,0.194889495618,0.168091824999,0.715918710838,0.697887019155,-0.0203177413481,0.00113901415483,-0.0898799906687,-0.280682098178,-0.0637522491697,-0.271895405454,0.150325258906,-0.183540541964,-7.99972438812,-0.529892146587,2.25950717926,0.428495287895,-3.36455798149,0.0290286540985
2017/07/09/10:22:38.391676,534306,1499566961,198956279,,0.721571645171,0.191754630483,0.166985724513,0.716337504266,0.697391391948,-0.0224419905634,0.00147766019389,-0.100599392465,-0.289226809371,-0.0717040711349,-0.303841957339,0.182295241876,-0.15983413016,-7.96296215057,-0.396807491779,2.13700914383,0.494186848402,-3.3607468605,0.0641774013638
2017/07/09/10:22:38.401753,534307,1499566961,208951735,,0.72109468014,0.188428146355,0.166488416417,0.717280681033,0.696373546593,-0.0238062857966,0.00235986819945,-0.0955740085906,-0.292641759969,-0.065604355717,-0.312416099066,0.168864477146,-0.154194825593,-7.7129778862,-0.749602138996,2.12153720856,0.518278419971,-3.29533815384,0.0682167038321
2017/07/09/10:22:38.411711,534308,1499566961,218952821,,0.720064145394,0.185946248988,0.16583404489,0.717387004805,0.69619972164,-0.0255807199825,0.00273124335442,-0.0832153521613,-0.313136250108,-0.0551218411231,-0.324232821644,0.145513921306,-0.187177411158,-8.02961826324,-0.739566922188,2.02568101883,0.532138466835,-3.38342857361,0.0758500918746
2017/07/09/10:22:38.421922,534309,1499566961,228972210,,0.719318022974,0.182866360281,0.165626590072,0.718105495008,0.695377674356,-0.0275675125692,0.00379740665752,-0.0937399755013,-0.30842179216,-0.0638046560192,-0.360642995725,0.173417380583,-0.123944200899,-7.6049323082,-0.658542513847,1.87575411797,0.593646228313,-3.29069519043,0.0964058712125
2017/07/09/10:22:38.431974,534310,1499566961,238953528,,0.718912074618,0.179924936202,0.164871687436,0.718228711203,0.695199014286,-0.0287173384841,0.0046003707189,-0.0848096771425,-0.320386698809,-0.0634517904305,-0.385210907621,0.156147167915,-0.136086533572,-7.84735631943,-1.06555235386,1.8568431139,0.687202095985,-3.40188694,0.143793344498
2017/07/09/10:22:38.441973,534311,1499566961,248959865,,0.718368140854,0.177212065178,0.16467735557,0.718367304724,0.69496173924,-0.0306839626902,0.0059237597364,-0.0819973435155,-0.315902005708,-0.0596824302016,-0.399435756523,0.14934556065,-0.108503644037,-7.79367208481,-0.765733242035,2.12800693512,0.680151343346,-3.3840739727,0.141772031784
2017/07/09/10:22:38.451973,534312,1499566961,258957246,,0.716940365681,0.174158969313,0.163592586893,0.718786635826,0.69442156779,-0.0329927993963,0.00599445858506,-0.0708536419665,-0.294805776998,-0.0609280253329,-0.39977651182,0.142441504276,-0.0892605017367,-8.09475421906,-0.782935976982,1.76419401169,0.675286352634,-3.46769976616,0.193956717849
2017/07/09/10:22:38.461765,534313,1499566961,268958988,,0.716388471774,0.170645939264,0.162863659863,0.719120787113,0.693971619466,-0.0348665863148,0.00728052722372,-0.0897811918825,-0.32829056592,-0.0693401030975,-0.414495720417,0.178759895378,-0.117378666011,-8.18249130249,-1.31060469151,2.01600646973,0.863642632961,-3.5887503624,0.242066651583
2017/07/09/10:22:38.472014,534314,1499566961,278988139,,0.715867355218,0.168057970866,0.1626763519,0.719048481823,0.693916012823,-0.0370489829287,0.00878753659763,-0.0778015633216,-0.342198681533,-0.0667584445442,-0.471088926167,0.158106656262,-0.0902015305536,-8.23415851593,-0.926817238331,1.47315430641,0.799990773201,-3.62362098694,0.250373601913
2017/07/09/10:22:38.481684,534315,1499566961,288954008,,0.714841661153,0.164097187598,0.161708040839,0.719582932688,0.693214619853,-0.0394886688218,0.00972310853141,-0.0777473668528,-0.341628897281,-0.0690049856293,-0.507974669392,0.168033558437,-0.0588545013368,-8.66065597534,-0.974304020405,1.46300077438,0.732350707054,-3.7975871563,0.270887672901
2017/07/09/10:22:38.491719,534316,1499566961,298962757,,0.714187430466,0.161178365296,0.160935958689,0.720015959739,0.692616621197,-0.0417194436334,0.0108959527397,-0.0917481680475,-0.330503830607,-0.0750517646359,-0.498847598228,0.197687892091,-0.116564278162,-8.58667945862,-0.685593247414,1.46293866634,0.678762733936,-3.81938314438,0.302746713161
2017/07/09/10:22:38.501662,534317,1499566961,308963069,,0.713663586318,0.158085760243,0.160339635863,0.720975684821,0.691471885811,-0.0438040254504,0.0119121947621,-0.095246898862,-0.30977674752,-0.0924964436792,-0.485576178414,0.222911912516,-0.152686739971,-8.27024364471,-0.865231633186,1.71760439873,0.696951031685,-3.75182890892,0.334422767162
2017/07/09/10:22:38.511768,534318,1499566961,318954444,,0.712171968286,0.155148479945,0.159381725595,0.722086859152,0.690110328297,-0.0466845022371,0.0126039624132,-0.0817554038755,-0.311167987061,-0.0844362503122,-0.487264329295,0.182811474201,-0.293409161945,-8.11495304108,-0.555744707584,2.07057929039,0.632446408272,-3.6674759388,0.347197264433
2017/07/09/10:22:38.521832,534319,1499566961,328959375,,0.711863484227,0.152744028911,0.158757181844,0.723160374032,0.688853127584,-0.0482806038444,0.0137631878653,-0.0739305792931,-0.304536204495,-0.0771306770833,-0.499687665884,0.163955917614,-0.351741291101,-8.21013355255,-0.613354086876,2.03782081604,0.690180063248,-3.73687267303,0.398336648941
2017/07/09/10:22:38.531727,534320,1499566961,338960729,,0.711432184989,0.148948932292,0.157502393228,0.724033315558,0.687741908388,-0.0505865122814,0.0150940446986,-0.0850811056879,-0.312622752107,-0.0805780748279,-0.493305888191,0.173984618036,-0.394327139777,-7.55733108521,-0.82334458828,1.95614671707,0.655049026012,-3.54333114624,0.417284280062
2017/07/09/10:22:38.541629,534321,1499566961,348953850,,0.710239029029,0.146001872914,0.157011358671,0.724018824283,0.687524396273,-0.0534062580646,0.015959893856,-0.0841127978864,-0.339889917934,-0.0846004351362,-0.502306079068,0.183881882202,-0.235766727262,-8.38060379028,-0.959204792976,1.75621891022,0.772464036942,-3.86165261269,0.506427288055
2017/07/09/10:22:38.551758,534322,1499566961,358955991,,0.709778608558,0.142669853557,0.156428524869,0.724437782591,0.686907587296,-0.0552110993376,0.0173089624035,-0.0765033597229,-0.326076325097,-0.0739738242831,-0.502532610838,0.193187433932,-0.0862618004607,-8.4783372879,-1.266015172,1.84960818291,0.856426239014,-3.92964863777,0.53229111433
2017/07/09/10:22:38.561565,534323,1499566961,368954731,,0.708910218854,0.140698728472,0.155491943368,0.724183233601,0.686978783195,-0.0575131788538,0.0176360388987,-0.0818726679685,-0.294719472152,-0.072697621258,-0.460157640196,0.217342624957,-0.0306164040349,-8.48752498627,-0.748232960701,1.12984752655,0.673615217209,-3.95273423195,0.569761931896
2017/07/09/10:22:38.571911,534324,1499566961,378959720,,0.707583448845,0.137446307584,0.153792811636,0.724231857578,0.686662732147,-0.0605268043829,0.0178609826408,-0.0869648864514,-0.288537731421,-0.0986006762381,-0.441332666915,0.253941045325,-0.0323054591513,-8.28956985474,-0.910527586937,0.910325288773,0.721010267735,-3.89126443863,0.637942373753
2017/07/09/10:22:38.581796,534325,1499566961,388983471,,0.707162643305,0.135034772296,0.15369374684,0.723993975422,0.686702136785,-0.0624454748438,0.0193251535417,-0.103673610731,-0.293675866816,-0.107483184794,-0.478736747739,0.293871310567,-0.00544645984553,-7.25745153427,-0.139287918806,1.12937438488,0.512419223785,-3.49000072479,0.589449048042
2017/07/09/10:22:38.591868,534326,1499566961,398958686,,0.706584477522,0.132100628952,0.153039975265,0.723878900634,0.686550742241,-0.0650478619155,0.0204007648224,-0.0954685837505,-0.283674410916,-0.0954555689059,-0.461522866612,0.26975711728,-0.0416225418462,-7.53084135056,-0.367284357548,1.416259408,0.557834148407,-3.58150720596,0.614114165306
2017/07/09/10:22:38.601666,534327,1499566961,408955233,,0.704693029616,0.130387745484,0.151268463355,0.724034683169,0.68617488406,-0.0675701652613,0.0192893447127,-0.108411335019,-0.286426322751,-0.0882208127197,-0.45198482824,0.309699387997,-0.0374272147877,-8.70794773102,-0.298655569553,1.32963335514,0.591761231422,-3.98005056381,0.665075540543
2017/07/09/10:22:38.611854,534328,1499566961,418953038,,0.703859305641,0.127229361971,0.151002315365,0.724071351326,0.685828348626,-0.0703464769735,0.0202861427304,-0.109988018876,-0.267609018983,-0.0751463314992,-0.439274857675,0.320721529605,-0.0346818382462,-9.16435337067,-0.584661006927,1.64648270607,0.652465224266,-4.17314052582,0.73513686657
2017/07/09/10:22:38.621890,534329,1499566961,428952512,,0.702220573225,0.124794327473,0.149832944356,0.724493566801,0.685152427147,-0.0726972708496,0.0197567722599,-0.11246313665,-0.250204980482,-0.0834014547781,-0.403825835474,0.334211262558,-0.0610268057792,-9.08554553986,-0.75044131279,1.32024025917,0.648685455322,-4.13166046143,0.732180655003
2017/07/09/10:22:38.631950,534330,1499566961,438959940,,0.701560794048,0.122586348083,0.14893969281,0.724473411375,0.684908822267,-0.0750171044334,0.0202636480949,-0.118117288113,-0.23701974365,-0.0901405383816,-0.37524627113,0.350804440252,-0.0791774122974,-8.96154117584,-1.100730896,0.934656620026,0.710076272488,-4.08841609955,0.731297492981
2017/07/09/10:22:38.641733,534331,1499566961,448954843,,0.700281027189,0.120454280297,0.148097156766,0.724301619415,0.68477188823,-0.0778712948141,0.0202654052026,-0.132088069106,-0.238520363725,-0.10047770687,-0.360240978349,0.398343053375,-0.0815863810696,-9.27032566071,-0.929117560387,0.920262038708,0.689648509026,-4.19492149353,0.778734207153
2017/07/09/10:22:38.651836,534332,1499566961,458964711,,0.698503950259,0.116651158833,0.147464314658,0.724649379928,0.684010319099,-0.0812047605059,0.0204681803617,-0.137480597892,-0.247605879136,-0.0937316106085,-0.382258994522,0.419123581355,-0.084012749433,-9.69640636444,-0.911390125751,0.778539180756,0.555710375309,-4.28099155426,0.741961359978
2017/07/09/10:22:38.661497,534333,1499566961,468961356,,0.6974985409,0.117058573732,0.146296735544,0.723938363507,0.68455637214,-0.0831278248274,0.0196362915416,-0.152600444034,-0.252449743113,-0.0892419688686,-0.401680484398,0.445301299703,-0.0735213730824,-10.0885400772,0.753642559052,0.472131103277,0.246368259192,-4.45066213608,0.813329577446
2017/07/09/10:22:38.672095,534334,1499566961,478965352,,0.696169727258,0.113931906249,0.145418819131,0.724064026721,0.684075702178,-0.0858872456567,0.0198771208078,-0.147070375105,-0.209982496461,-0.0968648345234,-0.35359536875,0.441899139407,-0.0558604735675,-9.78576183319,0.40045684576,0.690015852451,0.363160282373,-4.36759853363,0.829239964485
2017/07/09/10:22:38.682121,534335,1499566961,488965965,,0.693962624454,0.11157557001,0.144271081745,0.724738856539,0.682989734847,-0.0890271550289,0.0187823742893,-0.135138348932,-0.212380025718,-0.0920469532034,-0.346859992224,0.419047308603,-0.0559162091339,-10.5898504257,-0.443899661303,0.690710484982,0.554489791393,-4.50482320786,0.829782962799
2017/07/09/10:22:38.691844,534336,1499566961,498958688,,0.692798932275,0.110427188553,0.143107673705,0.723932808527,0.68348081968,-0.0917783129024,0.0187616403666,-0.162042181785,-0.226145167349,-0.0973234234441,-0.356399959787,0.475070558781,-0.0761184288404,-9.97126483917,-0.248711585999,0.424111962318,0.540084719658,-4.31272315979,0.841399312019
2017/07/09/10:22:38.701920,534337,1499566961,508960094,,0.69084738975,0.107370945068,0.142263402872,0.724660489211,0.682331375209,-0.094704467719,0.0179480800361,-0.167231773495,-0.21568647279,-0.107963369058,-0.343378128638,0.49623054042,-0.0748908311273,-9.23539447784,-0.63087528944,0.194099068642,0.490022480488,-4.00625753403,0.739261686802
2017/07/09/10:22:38.711760,534338,1499566961,518954259,,0.68973727295,0.105624283856,0.141494715965,0.724677491687,0.681978567015,-0.0970986220364,0.0178780528101,-0.162782397986,-0.206125920758,-0.098376118636,-0.340544145506,0.490659935046,-0.0553687030148,-8.9811668396,-0.406741410494,0.0984294638038,0.445522665977,-3.95247173309,0.784832060337
2017/07/09/10:22:38.722093,534339,1499566961,528952994,,0.687493002581,0.104431791634,0.139968812981,0.724022826808,0.682219901754,-0.100460925415,0.0165696824715,-0.178515730591,-0.204817114803,-0.102039488795,-0.340508976492,0.519088856965,-0.0747415383188,-9.18227767944,-0.0621751397848,-0.163518801332,0.34877884388,-4.01973152161,0.781742691994
2017/07/09/10:22:38.731929,534340,1499566961,538961084,,0.68581638219,0.10127164862,0.13893913009,0.724398058234,0.681397618624,-0.103330724753,0.0163554236106,-0.187694095513,-0.213703699949,-0.110699368826,-0.342573070636,0.545249291606,-0.0741375094366,-9.03003883362,-0.836835443974,-0.150830954313,0.415345788002,-3.95477819443,0.75785779953
2017/07/09/10:22:38.741932,534341,1499566961,548962786,,0.684321988953,0.0997854064074,0.137940955275,0.724409077253,0.680959059285,-0.106199705237,0.0157439188155,-0.186962382135,-0.206678538403,-0.117594543222,-0.314784515726,0.545639845068,-0.0856168278539,-8.31004524231,-0.169051349163,0.149772793055,0.28359234333,-3.71048140526,0.739939332008
2017/07/09/10:22:38.751720,534342,1499566961,558958592,,0.68270604577,0.0978281678288,0.137117796091,0.724569640489,0.680437910166,-0.108510720755,0.0151165463225,-0.173009213513,-0.198482339476,-0.114531917242,-0.31574910332,0.513637732622,-0.0806378374201,-7.29147529602,-0.280642330647,-0.021957591176,0.276373535395,-3.27248167992,0.63880521059
2017/07/09/10:22:38.761862,534343,1499566961,568960935,,0.68101125317,0.0961836657546,0.13559853905,0.723986703017,0.680595529051,-0.111468457424,0.0144139754895,-0.168935528547,-0.196688012901,-0.108554596067,-0.305876814414,0.486302085971,-0.079227695263,-7.57472801208,0.208648741245,-0.358688473701,0.164072781801,-3.33108139038,0.69589972496
2017/07/09/10:22:38.772156,534344,1499566961,578965693,,0.679874698308,0.0947897100954,0.134820052696,0.723955225652,0.6802072303,-0.114069379559,0.0139689565112,-0.169841941535,-0.203536771439,-0.116043028897,-0.309485357168,0.501003629316,-0.0666866901871,-6.86005496979,0.297149538994,-0.123896978796,0.0980948656797,-3.11676979065,0.629897594452
2017/07/09/10:22:38.781893,534345,1499566961,588965884,,0.678119032682,0.0929305644506,0.133786471677,0.723922547418,0.679779574985,-0.116851241352,0.013478210872,-0.152990224142,-0.180509053775,-0.113340932944,-0.278228549443,0.469345292016,-0.0710259931459,-6.79143190384,0.517824947834,0.00882492959499,0.0419766679406,-3.02679443359,0.645609140396
2017/07/09/10:22:38.791826,534346,1499566961,598966288,,0.676480654351,0.0903003200105,0.132576119658,0.724316161911,0.678945020832,-0.119292360341,0.0130034244119,-0.162706040389,-0.201371646355,-0.11147105858,-0.29151381401,0.470122248281,-0.0978200972311,-6.57616472244,0.364791214466,0.10548748076,0.0175232067704,-2.95319509506,0.633917570114
2017/07/09/10:22:38.801702,534347,1499566961,608964483,,0.675313311017,0.0886824791393,0.131589684328,0.724323362507,0.678553432238,-0.121497227453,0.0126225926714,-0.155399118168,-0.193119103907,-0.108985047169,-0.29244514005,0.453022664142,-0.07082191056,-5.66014194489,0.274648547173,-0.113403201103,0.0434062853456,-2.61429452896,0.60430252552
2017/07/09/10:22:38.811839,534348,1499566961,618961063,,0.673808813788,0.0870798816529,0.130549246514,0.72420989352,0.678276893073,-0.123774248906,0.01184996873,-0.158793387476,-0.180915670628,-0.112915165239,-0.275832077986,0.459003232129,-0.0723886042236,-5.38273286819,0.249126091599,-0.155332908034,0.0750367566943,-2.52607250214,0.603338122368
2017/07/09/10:22:38.821864,534349,1499566961,628953398,,0.672027360431,0.0854048130657,0.129220468222,0.724103537062,0.677925058501,-0.126381057065,0.0109321126154,-0.148844382649,-0.166609987206,-0.110914092226,-0.239558752289,0.431357433822,-0.0844577461611,-4.90876340866,0.211291357875,-0.18025778234,0.0951453521848,-2.31730461121,0.538587987423
2017/07/09/10:22:38.831703,534350,1499566961,638987907,,0.670907185436,0.0841430515551,0.128550738604,0.724137197144,0.67751059803,-0.12841693722,0.0106676850457,-0.138298235965,-0.162575166387,-0.1023997483,-0.241270369495,0.405191890719,-0.063647104067,-4.82406949997,0.0201798528433,-0.219298303127,0.121007271111,-2.24838447571,0.545380413532
2017/07/09/10:22:38.842002,534351,1499566961,648953738,,0.669435679533,0.0824620273958,0.126880496939,0.724444328177,0.676821272989,-0.130394459454,0.00952180371167,-0.145272498962,-0.156773044104,-0.119129557454,-0.211358346505,0.414585879185,-0.0887827356723,-4.39485836029,0.0198563188314,-0.765179216862,0.0886918157339,-2.11942362785,0.499591171741
2017/07/09/10:22:38.851723,534352,1499566961,658953954,,0.668156698649,0.081044782625,0.12615980079,0.724663006536,0.676225985387,-0.132293437196,0.00896605382715,-0.140812422359,-0.167332640353,-0.102869499319,-0.221809204612,0.401281591128,-0.112714406063,-4.4614982605,-0.103417932987,-0.827508091927,0.117898575962,-2.12257432938,0.515688657761
2017/07/09/10:22:38.861654,534353,1499566961,668965690,,0.667435537657,0.0798506474061,0.125311810563,0.724234470855,0.676345116075,-0.13403548788,0.00872944300868,-0.129879081779,-0.163600667856,-0.0989152983462,-0.180853430514,0.3647549744,-0.146819014028,-4.19973278046,0.417293429375,-0.741813540459,0.00880588591099,-2.12003707886,0.531458616257
2017/07/09/10:22:38.871999,534354,1499566961,678958747,,0.665793367737,0.0783776639707,0.124595814793,0.724742512883,0.675465190526,-0.135771279859,0.00782470267597,-0.136402415072,-0.160010952067,-0.0998049520863,-0.189112521288,0.377303487883,-0.123488250727,-3.52744579315,0.891603112221,-0.608690023422,-0.137243956327,-1.86041426659,0.523780226707
2017/07/09/10:22:38.881820,534355,1499566961,688955294,,0.664500074076,0.0766967946745,0.123311554598,0.7250994144,0.674726965056,-0.137556668807,0.00724739468961,-0.128514901815,-0.146507492102,-0.0995590465573,-0.165839019788,0.351572281742,-0.140195531566,-4.11207389832,0.569974541664,-0.556785225868,-0.0857511162758,-2.0415186882,0.567180633545
2017/07/09/10:22:38.891818,534356,1499566961,698958407,,0.663230017169,0.0755828432438,0.122166219085,0.725029561744,0.674435320846,-0.139384153262,0.0064179757036,-0.132718422554,-0.152486870386,-0.109929226781,-0.169339083996,0.357263023929,-0.127744281017,-3.41838479042,1.04520857334,-1.012591362,-0.234918043017,-1.67572140694,0.502886235714
2017/07/09/10:22:38.901809,534357,1499566961,708958595,,0.662244657949,0.0739491197423,0.121306815253,0.725645344642,0.673447424076,-0.140961541299,0.00610284194469,-0.133926065564,-0.13290771097,-0.104171603158,-0.129008907497,0.358670223499,-0.140583437878,-2.60401844978,0.997392475605,-0.735978007317,-0.19179725647,-1.45938789845,0.471720159054
2017/07/09/10:22:38.911858,534358,1499566961,718966716,,0.660664137313,0.0718106837166,0.120404774913,0.725806779716,0.672829143032,-0.143100440577,0.00526561593268,-0.120221001992,-0.150884559765,-0.0958844066787,-0.180699520106,0.32657446861,-0.112600727269,-3.62043046951,-0.0879472196102,-0.50880920887,0.0806476548314,-1.83827984333,0.478042423725
2017/07/09/10:22:38.922001,534359,1499566961,728958024,,0.659480932751,0.0713009365532,0.119448206615,0.725661115778,0.672686437899,-0.144530345795,0.00445875076422,-0.125484463193,-0.164944638707,-0.0826147220948,-0.191317291755,0.325786584754,-0.122341384473,-3.4503993988,0.118486642838,-0.582556724548,0.0556969419122,-1.78427922726,0.484701901674
2017/07/09/10:22:38.932087,534360,1499566961,738954319,,0.658351523694,0.0689411379625,0.118649346096,0.726228003146,0.671633410924,-0.146566213197,0.00444903649491,-0.122426172754,-0.148214926984,-0.0929446103271,-0.154546661427,0.314706401704,-0.140488973495,-2.73273324966,0.0655046850443,-0.379006922245,-0.00226475298405,-1.53858339787,0.406580984592
2017/07/09/10:22:38.941950,534361,1499566961,748967481,,0.657373809976,0.0672325977809,0.117949092103,0.726639675964,0.670961641455,-0.147609450347,0.00408744165977,-0.128925465516,-0.154030465505,-0.0920457274545,-0.170176177626,0.336062799954,-0.119187276106,-1.76493883133,-0.242078095675,-0.473907709122,0.11495372653,-1.21167910099,0.347664892673
2017/07/09/10:22:38.951738,534362,1499566961,758955720,,0.65590368132,0.0662419089427,0.117214982031,0.726660321087,0.670453270806,-0.149819873344,0.00334588924635,-0.132971018757,-0.168170466654,-0.0809128400391,-0.185984968164,0.320446760098,-0.176667357622,-1.34623885155,0.120848208666,-0.710431098938,-0.0441295355558,-1.00954079628,0.316231548786
2017/07/09/10:22:38.961838,534363,1499566961,768953830,,0.655425363612,0.0650201557165,0.116545219675,0.72674146564,0.670163215274,-0.150723508876,0.00324513252904,-0.110200321017,-0.168443017535,-0.0732826187458,-0.184110711566,0.272471809541,-0.145025336835,-1.29498934746,0.694315910339,-0.727661728859,-0.177099823952,-0.973552823067,0.313286721706
2017/07/09/10:22:38.972078,534364,1499566961,778952913,,0.65410508921,0.0623661314814,0.116066494889,0.726984168138,0.669435034379,-0.152773124278,0.00333564399251,-0.10721230834,-0.18104404755,-0.069811070241,-0.197773470432,0.267513854735,-0.113799955421,-1.42531263828,0.417110174894,-0.429601967335,-0.0320605784655,-1.04556512833,0.364450097084
2017/07/09/10:22:38.982065,534365,1499566961,788965583,,0.653311233038,0.0606587685,0.115486788769,0.727481157591,0.668603217657,-0.154051824164,0.00298967565844,-0.104449032437,-0.202493540051,-0.066315413768,-0.214822636243,0.241661437981,-0.148572963753,-0.859771311283,0.278176724911,-0.961040019989,-0.0610234290361,-0.755332291126,0.276844918728
2017/07/09/10:22:38.991900,534366,1499566961,798961464,,0.65220464472,0.0586755475716,0.115026321633,0.727527308994,0.668125669473,-0.155893102788,0.00307326560446,-0.104396945023,-0.182246972348,-0.0679386510486,-0.211445808678,0.252420496272,-0.147946339527,-1.06936120987,0.0291381627321,-0.806089282036,-0.0714283883572,-0.76909083128,0.246535003185
2017/07/09/10:22:39.001739,534367,1499566961,808958891,,0.651071684682,0.0579430748436,0.11407599434,0.727558591824,0.66784245845,-0.156971103182,0.00224029495171,-0.113290412601,-0.177465947019,-0.0655179940757,-0.213363394864,0.267566703092,-0.137114681288,-1.19109475613,0.676834464073,-0.643635451794,-0.241368189454,-0.903674304485,0.338265359402
2017/07/09/10:22:39.011761,534368,1499566961,818960379,,0.649485498587,0.0552625695658,0.113496253434,0.728474514954,0.666341508135,-0.159093963294,0.00172813257517,-0.125157417048,-0.17420300346,-0.0620091705346,-0.179706473856,0.29150714448,-0.151679879142,-1.51070761681,0.151453465223,-0.652521729469,-0.109257817268,-1.12444245815,0.350221276283
2017/07/09/10:22:39.021818,534369,1499566961,828953514,,0.647786274347,0.0537048290261,0.112891099813,0.728747976533,0.665598211857,-0.160949003505,0.000908483581785,-0.146157639345,-0.177513141934,-0.0512702741734,-0.179777908866,0.331924945779,-0.170561034736,-1.73734748363,0.096264064312,-1.14505958557,-0.0657204240561,-1.20059680939,0.37069222331
2017/07/09/10:22:39.031862,534370,1499566961,838959949,,0.646678189985,0.0524340397361,0.112222777864,0.728790109259,0.665226216643,-0.162292224467,0.000539642334321,-0.151240582601,-0.183741840928,-0.0533718151147,-0.179549971162,0.332424659627,-0.192236545089,0.0218104720116,0.748453021049,-1.56275188923,-0.266164779663,-0.585345089436,0.221387445927
2017/07/09/10:22:39.041827,534371,1499566961,848953367,,0.64611993357,0.0512620230453,0.112163329353,0.72900592517,0.664765264325,-0.163209528554,0.000392687149754,-0.144114384239,-0.171835409749,-0.0566839803661,-0.154326880279,0.313032225025,-0.20275435639,1.00547873974,0.328245908022,-0.929792940617,-0.0863359719515,-0.235630527139,0.186729937792
2017/07/09/10:22:39.051764,534372,1499566961,858955983,,0.644121784007,0.0488193734613,0.111386527225,0.729825401511,0.663389533286,-0.16513222542,-0.000747371113698,-0.111566121539,-0.179923150013,-0.0481474864875,-0.145898882189,0.228477149342,-0.202772092558,0.560372471809,-0.146524012089,-0.68497467041,-0.091169282794,-0.232480078936,0.138933449984
2017/07/09/10:22:39.061705,534373,1499566961,868953551,,0.64307688809,0.0470475986271,0.110952976214,0.730367663956,0.66240175515,-0.166692421022,-0.000791830396019,-0.144908925004,-0.174132239947,-0.065941816704,-0.133286004895,0.304417730484,-0.198647966531,0.626436531544,0.0573235154152,-0.284908652306,-0.239619374275,-0.208781152964,0.110778205097
2017/07/09/10:22:39.071945,534374,1499566961,878959897,,0.641432466444,0.0457906777952,0.110198831714,0.73056742406,0.661835774412,-0.1680482308,-0.00210683076737,-0.146874199115,-0.177687149137,-0.0573511627483,-0.142621152917,0.307152179913,-0.187167087285,-0.0475270226598,0.321184873581,-0.244148850441,-0.195392459631,-0.396509647369,0.167230412364
2017/07/09/10:22:39.081656,534375,1499566961,888959755,,0.640952003941,0.0439313875561,0.110532456594,0.730885743578,0.661205769585,-0.169146742627,-0.00152956193348,-0.12647720046,-0.176957783803,-0.0448960564204,-0.137534855623,0.260199308758,-0.197048890934,0.10194683075,0.0810306370258,0.493593275547,-0.102380312979,-0.442014336586,0.12489823252
2017/07/09/10:22:39.091860,534376,1499566961,898983847,,0.639293563666,0.0417250555746,0.109173460334,0.731821003701,0.659806323674,-0.17054849035,-0.00261652827531,-0.134285550804,-0.19885603143,-0.0373836684146,-0.168440057898,0.26887067088,-0.219399767441,-0.301251232624,0.114131748676,0.14984574914,-0.071334823966,-0.584626853466,0.192522212863
2017/07/09/10:22:39.101924,534377,1499566961,908953073,,0.638114493872,0.0404401952891,0.10897359652,0.732040994953,0.659223370906,-0.171843710786,-0.00320437560672,-0.124665593525,-0.175850206529,-0.0497332018825,-0.116160922846,0.249409706767,-0.226933604433,0.382037878036,0.353194534779,-0.454147964716,-0.0780316218734,-0.275839775801,0.118027858436
2017/07/09/10:22:39.111717,534378,1499566961,918959690,,0.636925550554,0.0392198183672,0.107871794061,0.732631012694,0.658361389006,-0.172611769341,-0.00415424968574,-0.129631484309,-0.178054550812,-0.057812880365,-0.117384095697,0.262572902694,-0.240699077131,0.534509181976,0.50234824419,-1.07414412498,-0.0775502547622,-0.224615722895,0.138688877225
2017/07/09/10:22:39.121800,534379,1499566961,928953567,,0.635741659406,0.0367273869803,0.107802539496,0.733397418439,0.657141090163,-0.173999246995,-0.00425162223734,-0.114438332246,-0.174812358789,-0.0465810535562,-0.113248807854,0.228214044229,-0.221134328487,0.301835298538,0.334309279919,-1.07732069492,-0.0976186096668,-0.272975832224,0.12243603915
2017/07/09/10:22:39.132042,534380,1499566961,938960239,,0.634425448005,0.0348998466548,0.10739915214,0.733945964668,0.656190664833,-0.175253051827,-0.00484769611417,-0.111198890742,-0.164713367169,-0.0493801346023,-0.0849766772619,0.209617046896,-0.205131978229,-0.34290510416,0.13565197587,-0.982245564461,-0.0957592949271,-0.515931546688,0.181897655129
2017/07/09/10:22:39.142086,534381,1499566961,948956674,,0.634530944617,0.0341176489575,0.106921239852,0.734009378737,0.656129762262,-0.175216854358,-0.00479801508463,-0.0861042935034,-0.171608789422,-0.0499438173653,-0.096872832611,0.126273258639,-0.219890038408,-0.18172866106,0.427083462477,-0.365006864071,-0.047048009932,-0.578924000263,0.187738895416
2017/07/09/10:22:39.151814,534382,1499566961,958959811,,0.63339363607,0.0314077423555,0.106226731378,0.735541868486,0.654304750239,-0.175602835925,-0.00520552914362,-0.0850515987571,-0.171470586515,-0.0500078999214,-0.0559788721696,0.102827821896,-0.238514367152,-0.83241134882,-0.59778034687,-0.406300514936,0.0179390609264,-0.744613409042,0.166693776846
2017/07/09/10:22:39.162000,534383,1499566961,968954560,,0.632700410326,0.0317961404777,0.105585830581,0.735329869317,0.654417426709,-0.176038214881,-0.00619369114467,-0.08195385781,-0.153061991992,-0.0686440719956,-0.0144721376281,0.0972531186869,-0.247183128915,0.476560920477,0.797139406204,-0.853302598,-0.14206597209,-0.289365887642,0.16527608037
2017/07/09/10:22:39.172132,534384,1499566961,978951689,,0.631454196296,0.0290624284958,0.104865039505,0.736483343439,0.652941512746,-0.176683121624,-0.0065376068401,-0.0995669276092,-0.13615305332,-0.0870368736619,0.0171122080203,0.140834714866,-0.228929132687,0.675535023212,-0.260666668415,-0.939633667469,0.0159098282456,-0.183946281672,0.0822924748063
2017/07/09/10:22:39.181832,534385,1499566961,988958331,,0.630650322651,0.0282493420835,0.104136498311,0.737174878778,0.652061250175,-0.177015371805,-0.00740825648774,-0.0779249654001,-0.143572948977,-0.0795775995544,-0.00159838521013,0.104686103186,-0.22389972514,0.880383789539,0.312361419201,-0.650727212429,-0.0344200730324,-0.149359211326,0.0582806169987
2017/07/09/10:22:39.191916,534386,1499566961,998959950,,0.629690626441,0.0264683942777,0.10348711898,0.737515017819,0.651424530134,-0.177931650829,-0.0076162762117,-0.0968275808112,-0.168241869154,-0.064184125324,-0.0386704101805,0.131037582409,-0.262129571252,0.241689756513,0.366340339184,-0.416428714991,-0.152703478932,-0.427066594362,0.0866670012474
2017/07/09/10:22:39.201910,534387,1499566962,8954869,,0.629023914227,0.0255023577102,0.102753190404,0.738067786351,0.650732770421,-0.178139068071,-0.00832326122399,-0.0851756375969,-0.147503664029,-0.0717000438514,-0.0116452175344,0.119420690318,-0.205680547462,-0.556906998158,-0.0112885832787,-0.00161581858993,-0.0325261689723,-0.733474910259,0.136305063963
2017/07/09/10:22:39.211719,534388,1499566962,18962637,,0.628046425562,0.0240099184946,0.102036187364,0.738867894445,0.649722938737,-0.178479402768,-0.00891292460319,-0.101061679959,-0.139346422222,-0.0877771244017,0.0183381001861,0.148144681408,-0.234126591577,-0.503051936626,-0.0863248258829,-0.300773978233,-0.0183969885111,-0.631799280643,0.126955091953
2017/07/09/10:22:39.221854,534389,1499566962,28957104,,0.626909293986,0.0223148054884,0.100718662028,0.739450508709,0.648901545232,-0.179003995771,-0.009864038856,-0.106659379347,-0.130190737808,-0.0779390303535,0.0347150893806,0.160965995754,-0.245536935418,-0.484442412853,-0.175255864859,-0.620349884033,-0.00157193467021,-0.632706999779,0.109035842121
2017/07/09/10:22:39.231857,534390,1499566962,38963351,,0.625969695257,0.021155945382,0.100415368876,0.740370550029,0.647791224563,-0.179170908625,-0.0107593462832,-0.107954734573,-0.141949520997,-0.0882121528363,0.0333133599524,0.154591459244,-0.255302645017,-0.0186308175325,0.108500793576,-0.606530308723,0.0423008725047,-0.493801474571,0.0971809178591
2017/07/09/10:22:39.241905,534391,1499566962,48953728,,0.62504379093,0.0206534205612,0.0996029917242,0.740557333447,0.647422094739,-0.179676158084,-0.0116595599144,-0.108707790524,-0.149344508741,-0.0851449249034,0.0329143242474,0.142756272021,-0.287283906583,-0.152269899845,-0.0166307017207,-0.247427895665,0.0994391962886,-0.577565729618,0.0598282143474
2017/07/09/10:22:39.251793,534392,1499566962,58965020,,0.623571823989,0.0187753655079,0.0984445988426,0.741354083407,0.646297772179,-0.180365532645,-0.0127117003543,-0.122199017818,-0.140742957001,-0.0956478045967,0.0382361721444,0.184024222277,-0.275063904271,0.0631634667516,0.203844562173,-0.630119800568,-0.00204357039183,-0.453953802586,0.0403450876474
2017/07/09/10:22:39.261763,534393,1499566962,68983509,,0.622743282817,0.0176894244869,0.0977877599579,0.741593229376,0.645879485273,-0.180823732086,-0.0134889051004,-0.110726566599,-0.128936187583,-0.0758816594069,0.0572158593636,0.167787793673,-0.249764049439,0.0507491193712,0.361881792545,-0.452428519726,-0.101269118488,-0.506862640381,0.0410500392318
2017/07/09/10:22:39.272010,534394,1499566962,78954408,,0.621958934704,0.0165246487352,0.0970558718885,0.742459047896,0.644873019668,-0.180798873532,-0.0143219422881,-0.118784809822,-0.133936764077,-0.0943963533187,0.0650587376804,0.180606943276,-0.23756883738,0.355530291796,0.921590745449,-0.318741798401,-0.19546417892,-0.468592077494,0.0647547096014
2017/07/09/10:22:39.281842,534395,1499566962,88952461,,0.620597475558,0.0149059891607,0.0956503547698,0.743296624551,0.643765459304,-0.181209163177,-0.0154725731031,-0.100662650397,-0.117158262201,-0.0971129868865,0.0714571615358,0.154348428512,-0.21414032752,0.124618321657,-0.447425216436,-0.495631456375,0.00730617344379,-0.464341133833,0.0262617040426
2017/07/09/10:22:39.292179,534396,1499566962,98962152,,0.619397240197,0.0133583993978,0.094881817084,0.743777911451,0.642974128852,-0.181997080219,-0.015992212366,-0.105448570154,-0.120627231482,-0.100047834977,0.0611794380537,0.149264815282,-0.229103774731,0.196148723364,-0.274792462587,-0.542279779911,-0.0180779993534,-0.461169242859,0.0400046855211
2017/07/09/10:22:39.301663,534397,1499566962,108977280,,0.618592403076,0.0124650726407,0.0939447887748,0.744323190596,0.642272748501,-0.182158866608,-0.0169366995335,-0.105560620991,-0.143202871458,-0.0998718885789,0.039757792449,0.128820442909,-0.247984820529,0.222091063857,0.0935062021017,-0.529683947563,-0.0344405919313,-0.464785128832,0.0293759815395
2017/07/09/10:22:39.311839,534398,1499566962,118952241,,0.618017427887,0.0108240941838,0.0929491857993,0.745028796556,0.641445956842,-0.182153201878,-0.0173028263363,-0.1035170763,-0.135274600267,-0.106625558732,0.0573010207642,0.137490226513,-0.242411472446,0.348601669073,-0.245688274503,-0.384806901217,0.116916328669,-0.475353628397,0.00339259020984
2017/07/09/10:22:39.322032,534399,1499566962,128951943,,0.616892041729,0.00986435360063,0.0919327934305,0.745778076405,0.640506040961,-0.182283155648,-0.0184370120601,-0.105080859944,-0.136342351117,-0.11506321355,0.0620670550627,0.134074403008,-0.26018849034,0.731890439987,-0.265030503273,-0.931769549847,0.0861708000302,-0.269135028124,-0.049815453589
2017/07/09/10:22:39.331941,534400,1499566962,138959081,,0.616053362039,0.00851388191847,0.0903601773447,0.746542664127,0.639589565485,-0.182287169083,-0.0192516583072,-0.0716991925601,-0.103229064496,-0.111191703219,0.0907202420433,0.0812188490544,-0.205457643826,0.577392816544,-0.534874677658,-1.181235075,0.0627323687077,-0.268273860216,-0.0568399950862
2017/07/09/10:22:39.342255,534401,1499566962,148953467,,0.61476232867,0.00720908836762,0.0893062722721,0.747214527667,0.638636163095,-0.182748864906,-0.0204243287915,-0.0855459558768,-0.114294528127,-0.118720340623,0.085045749084,0.105540316896,-0.226765858576,0.820441603661,-0.238530546427,-1.24358546734,0.00521200150251,-0.178469330072,-0.0864192172885
2017/07/09/10:22:39.351878,534402,1499566962,158955099,,0.614554537824,0.0065701656585,0.0882731309148,0.747394657902,0.638479493833,-0.182508086061,-0.0208796507782,-0.0803460938472,-0.124246063827,-0.122682934693,0.0777316783955,0.0808769425306,-0.229346522652,1.05128085613,0.346379101276,-0.963022768497,-0.120183199644,-0.196787327528,-0.0588718950748
2017/07/09/10:22:39.361799,534403,1499566962,168956838,,0.614246741142,0.00554552747778,0.0870671602476,0.747986240119,0.637860217677,-0.182217986668,-0.0211549670931,-0.0704646915841,-0.134955778687,-0.116810185044,0.0657718927621,0.0395262950826,-0.26341183606,1.10083043575,0.30682092905,-1.12942397594,-0.0529804974794,-0.213253781199,-0.0850136876106
2017/07/09/10:22:39.372002,534404,1499566962,178957892,,0.613298179626,0.00356007515795,0.0857283147954,0.749122872562,0.636475907547,-0.182315097986,-0.0217840758856,-0.0650635649503,-0.152224037528,-0.120560358509,0.0486306437181,0.0219746262545,-0.25078211157,0.805238902569,-0.462064445019,-0.979237794876,0.173699200153,-0.282263100147,-0.0845320299268
2017/07/09/10:22:39.381734,534405,1499566962,188951775,,0.612808331665,0.00263355745944,0.0845745215179,0.749797451073,0.635811016319,-0.181791943298,-0.0223567270348,-0.0589476820537,-0.123020609877,-0.138407990795,0.0876298393172,0.0230055750765,-0.203044807781,1.32571089268,-0.1403234303,-0.972322881222,0.128142341971,-0.0922340080142,-0.102717533708
2017/07/09/10:22:39.391599,534406,1499566962,198953636,,0.612119970746,0.00183924003453,0.0828260360375,0.750104731117,0.635360780866,-0.182003753279,-0.0231128597362,-0.0610695251892,-0.108916441236,-0.147595509847,0.0958392873644,0.0310279438342,-0.181930341021,1.45222139359,-0.444489717484,-1.10743701458,0.16440358758,0.109642647207,-0.19451777637
2017/07/09/10:22:39.401588,534407,1499566962,208955630,,0.612077446106,0.000797594547582,0.0815329384743,0.750345895277,0.635237893074,-0.181422496092,-0.0232321879087,-0.0478905385698,-0.129941225122,-0.13835893543,0.0724074997107,-0.0121714729606,-0.203177140637,1.24513113499,0.0862754881382,-0.593227505684,0.0671071708202,0.0888682827353,-0.162865042686
2017/07/09/10:22:39.411518,534408,1499566962,218971475,,0.610930498883,-0.00086587347899,0.0804263316494,0.751094938213,0.634235099218,-0.181724443512,-0.0240511816987,-0.0786363664649,-0.145936056331,-0.146473535015,0.056209030326,0.05193188199,-0.231289845854,2.29001450539,-0.0774228870869,-0.280267953873,0.0670250803232,0.593950271606,-0.327676892281
2017/07/09/10:22:39.421998,534409,1499566962,228972469,,0.609880870663,-0.00157508243036,0.0790235640179,0.751502779233,0.633659781063,-0.181890139187,-0.0251958713898,-0.0733051658375,-0.128529673743,-0.132458705277,0.0646001296939,0.0563832999695,-0.189608239918,1.06331884861,0.185363769531,0.0948887765408,0.044450186193,0.2324090451,-0.216462343931
2017/07/09/10:22:39.431842,534410,1499566962,238959985,,0.608846656004,-0.00324649250324,0.0779370514008,0.751934674241,0.63295930864,-0.182452008083,-0.0258461607526,-0.0920762082912,-0.130120109054,-0.128628363566,0.0779190654378,0.111622667756,-0.210565648445,-0.807976126671,0.123946622014,0.985081911087,0.0525936931372,-0.485891819,-0.123369209468
2017/07/09/10:22:39.441878,534411,1499566962,248951925,,0.608172523419,-0.00433035963746,0.0769152692861,0.752730278655,0.632024609982,-0.182312763787,-0.0265344329828,-0.0898907069733,-0.107226809828,-0.123315486801,0.08908461937,0.129638395834,-0.203947283662,-0.215970531106,0.186414644122,0.133410364389,-0.0267364382744,-0.213829502463,-0.119121566415
2017/07/09/10:22:39.451526,534412,1499566962,258960454,,0.607156452977,-0.00466687954649,0.0754080508994,0.75284125483,0.631792597885,-0.182438802121,-0.028004316884,-0.0805312641218,-0.106414661363,-0.105091515135,0.0756913407132,0.112356765363,-0.194825091456,-1.77704668045,1.03683686256,-0.00700290501118,-0.273787230253,-0.760584890842,0.0635728165507
2017/07/09/10:22:39.461721,534413,1499566962,268959989,,0.605984789475,-0.00668416461189,0.0747450090704,0.753827519703,0.630440749281,-0.182963620013,-0.0285104531049,-0.112218072509,-0.116782453964,-0.114985656757,0.0759062716483,0.161226357523,-0.233128206034,-1.8540148735,0.490395128727,-0.265882849693,-0.218410238624,-0.779837071896,0.00713519006968
2017/07/09/10:22:39.471850,534414,1499566962,278953400,,0.604658538133,-0.0091581222168,0.0738241352256,0.754613104475,0.629175817767,-0.184013327171,-0.0289127708121,-0.117514765634,-0.129917691753,-0.11584700305,0.0513242213546,0.168455086269,-0.213288522884,-0.99818366766,0.326943546534,-0.0836760997772,-0.202781915665,-0.533377408981,-0.0275651104748
2017/07/09/10:22:39.481878,534415,1499566962,288958390,,0.603455998049,-0.00867235103009,0.0719402644261,0.754448739076,0.629255616647,-0.184093339756,-0.030888691821,-0.108243329849,-0.119449590772,-0.11739113315,0.0463329077167,0.176053587746,-0.19679733447,-1.26525759697,0.972261726856,-0.431619793177,-0.307598352432,-0.505569219589,-0.0077176168561
2017/07/09/10:22:39.491537,534416,1499566962,298953215,,0.602453574852,-0.0105851613339,0.071135267561,0.754653569015,0.628789775933,-0.184802282511,-0.0311371937484,-0.113364043476,-0.118720973206,-0.126127778735,0.0594605597867,0.192919726881,-0.150244199632,-1.0205643177,0.612610816956,-0.42667222023,-0.190035745502,-0.402130484581,-0.0228644236922
2017/07/09/10:22:39.501628,534417,1499566962,308951842,,0.601371514433,-0.0109620120655,0.0697387277696,0.754879838316,0.628398141018,-0.184963562814,-0.0325681823262,-0.136664398104,-0.147930427439,-0.117197802927,0.0448179157526,0.222038092019,-0.169512871093,-1.14296257496,1.20398044586,0.0523843169212,-0.278794646263,-0.563975691795,0.00480232387781
2017/07/09/10:22:39.511608,534418,1499566962,318971099,,0.600936355818,-0.0127729080368,0.0691247401697,0.755365287232,0.62777444124,-0.185086872096,-0.0326402136842,-0.138266143611,-0.132876580885,-0.119112537789,0.0556758072868,0.2286916089,-0.151163082175,-0.717142164707,0.575585603714,0.258009970188,-0.0845556631684,-0.422135323286,-0.0714582800865
2017/07/09/10:22:39.521688,534419,1499566962,328953994,,0.5994740844,-0.0136817186246,0.0680023081457,0.755249293384,0.627648183457,-0.185763698228,-0.0338837876644,-0.117115162608,-0.130325588367,-0.106864712308,0.0447099384338,0.191885945276,-0.121769325928,-1.74097394943,0.753829181194,0.366516113281,-0.245821505785,-0.706959784031,-0.00461715459824
2017/07/09/10:22:39.531926,534420,1499566962,338960318,,0.59733563148,-0.015230651898,0.0663639539581,0.755635603217,0.626644046514,-0.187277268805,-0.0354865989944,-0.133235441719,-0.134175262581,-0.115754297549,0.060112607603,0.215778194679,-0.125244212355,-1.58651137352,0.224664643407,0.151971891522,-0.0993854552507,-0.610440909863,-0.0477468632162
2017/07/09/10:22:39.542073,534421,1499566962,348956505,,0.596128554004,-0.0166076435524,0.0654445817224,0.755857164946,0.626187811493,-0.187736888481,-0.0363817487285,-0.12349794979,-0.113678904751,-0.116305275816,0.071008998764,0.208822940397,-0.105562945646,-1.17679512501,0.339736282825,0.343024671078,0.0444050729275,-0.487726807594,-0.0656312778592
2017/07/09/10:22:39.551611,534422,1499566962,358959610,,0.595073371862,-0.0173039286215,0.0641839640417,0.756018838156,0.625846528812,-0.187996123415,-0.0375379315921,-0.124504998515,-0.115765616415,-0.117137850336,0.0678928616266,0.208835512257,-0.15189931463,-1.45768284798,0.141885921359,0.213440015912,0.0161795914173,-0.558477401733,-0.0825232490897
2017/07/09/10:22:39.561667,534423,1499566962,368952923,,0.593326472875,-0.0182885864478,0.0627418463903,0.756331756727,0.625101680683,-0.188968168426,-0.0387452435157,-0.134789643597,-0.121116655111,-0.11312291195,0.0333880299594,0.224628335889,-0.17765903814,-1.04859483242,0.227123469114,-0.263419598341,-0.00172103941441,-0.343578398228,-0.0967600941658
2017/07/09/10:22:39.572120,534424,1499566962,378956506,,0.592367341194,-0.0193327468246,0.0619442235278,0.756782388429,0.624458453772,-0.189070866067,-0.039802809963,-0.127801892355,-0.109608712747,-0.115332913448,0.0625621933207,0.204314285658,-0.173611977003,-0.716642975807,0.769914150238,-0.161934435368,-0.179780885577,-0.254667252302,-0.0852564647794
2017/07/09/10:22:39.581969,534425,1499566962,388956139,,0.591795500836,-0.0208723181005,0.0610987135535,0.757178485742,0.623899616274,-0.189290213305,-0.039990307442,-0.132148163728,-0.104457268336,-0.119106938343,0.0791594270447,0.215540443018,-0.181545089592,-0.413050025702,0.75852060318,0.0168858617544,-0.291865706444,-0.20154812932,-0.0829452499747
2017/07/09/10:22:39.591916,534426,1499566962,398960586,,0.590690017498,-0.0221370164891,0.0599653921022,0.757352913481,0.6234118649,-0.190072571637,-0.0405786724049,-0.117149516778,-0.10857954408,-0.116347389826,0.0679388712278,0.190872378362,-0.137087137292,-0.393746137619,0.265929430723,0.015912681818,-0.176295801997,-0.188097015023,-0.0945227891207
2017/07/09/10:22:39.601858,534427,1499566962,408952172,,0.589480770574,-0.0234458084595,0.0594022713392,0.757651598208,0.622727796359,-0.190972591255,-0.0412748926538,-0.11924710921,-0.124484364055,-0.111023094758,0.0181750574303,0.188024834433,-0.160114611111,-0.443532496691,0.617785096169,0.0642500594258,-0.284978657961,-0.171165168285,-0.0968643203378
2017/07/09/10:22:39.611864,534428,1499566962,418960100,,0.588113228265,-0.0242339904569,0.0576750381322,0.757974709309,0.622091675456,-0.191494332926,-0.0424995039106,-0.131520881666,-0.117798601064,-0.114320613758,0.0205455576389,0.215008527803,-0.177236370073,-0.0277819894254,0.247538551688,-0.146495133638,-0.100379727781,0.0263951085508,-0.167904615402
2017/07/09/10:22:39.622037,534429,1499566962,428960376,,0.58729678953,-0.024523319921,0.0563482187707,0.758092758705,0.621839831782,-0.191644887422,-0.0433915882787,-0.133969419817,-0.123270988166,-0.120337404462,0.0280793313093,0.212351454218,-0.181935315325,-0.141075178981,0.998302876949,-0.107011117041,-0.216823786497,-0.0917678251863,-0.104973569512
2017/07/09/10:22:39.631886,534430,1499566962,438960817,,0.585525009204,-0.0259059635415,0.0555462700668,0.758821871941,0.62059805893,-0.192454327748,-0.0448190545113,-0.116638354868,-0.108921432177,-0.10851821953,0.0308088380693,0.185133784221,-0.169977717223,-0.895657122135,0.588291108608,0.140570744872,-0.140540748835,-0.372936934233,-0.0631812959909
2017/07/09/10:22:39.641714,534431,1499566962,448955460,,0.584421320847,-0.0281882558405,0.054641910668,0.759191695203,0.619851646476,-0.193366079394,-0.044960712133,-0.132726579183,-0.117386906503,-0.105256241045,0.028543611538,0.212020836327,-0.171270013147,-0.744405686855,-0.113552838564,0.077381812036,-0.0610418170691,-0.284461200237,-0.135789990425
2017/07/09/10:22:39.651734,534432,1499566962,458960093,,0.583412234529,-0.0281266073076,0.053635315941,0.759201908622,0.619607006665,-0.193839420566,-0.0461074643743,-0.137259334538,-0.107799774257,-0.11254339618,0.026390702456,0.240733367525,-0.139292908166,-0.899652242661,0.689808011055,0.0923531726003,-0.168149679899,-0.386677652597,-0.0630882903934
2017/07/09/10:22:39.661535,534433,1499566962,468976831,,0.582260298511,-0.0287230154398,0.0523218998957,0.759217143746,0.619316291835,-0.194448242383,-0.0471862304497,-0.134795213344,-0.125065476386,-0.113091186,0.00293965366326,0.226395719226,-0.161233031831,-0.0540276393294,0.777965188026,0.133761525154,-0.154725506902,-0.186195150018,-0.127323687077
2017/07/09/10:22:39.671911,534434,1499566962,478960089,,0.580707288855,-0.030292061849,0.0515122538415,0.759644210558,0.618473841992,-0.195263006467,-0.0479910245965,-0.125591033589,-0.106694931812,-0.107711724112,0.016284665914,0.209397752998,-0.161739832002,-0.339487969875,0.339550971985,0.0502904579043,-0.160796836019,-0.178953766823,-0.153245314956
2017/07/09/10:22:39.681598,534435,1499566962,488955651,,0.579598913361,-0.0318575264991,0.0505120480109,0.760180155497,0.617575577936,-0.195937319776,-0.048322908075,-0.124684953263,-0.100908950797,-0.107550031182,0.0280475525029,0.200196306752,-0.148833246029,0.0933229997754,-0.359630584717,-0.167834639549,0.0674396157265,0.0099478662014,-0.214670419693
2017/07/09/10:22:39.691735,534436,1499566962,498958932,,0.578085089249,-0.0323919166541,0.0494277209485,0.760098154865,0.617250511063,-0.196962094449,-0.0495836153771,-0.131195229989,-0.105493386805,-0.113017239522,0.0270260191197,0.205565359299,-0.156088118975,0.368774443865,0.227993413806,-0.450549155474,-0.00742283463478,0.156946390867,-0.188361153007
2017/07/09/10:22:39.701975,534437,1499566962,508960147,,0.577068435027,-0.0337843539106,0.048479752615,0.760536669632,0.616486560808,-0.197507575839,-0.0501901581498,-0.127373502215,-0.117057533325,-0.110581020701,0.0157733370424,0.199901501544,-0.158634703478,0.882488429546,-0.209401577711,-0.419312238693,0.0118555873632,0.325018286705,-0.242859661579
2017/07/09/10:22:39.711886,534438,1499566962,518960436,,0.576486597807,-0.0341078701017,0.0477146710043,0.760243262231,0.616731779444,-0.197775316799,-0.050566970647,-0.134285393773,-0.115414879506,-0.0976049634635,0.00691649360693,0.220222038639,-0.147391257663,1.38553333282,0.340957552195,-0.458084255457,-0.0667624548078,0.513017416,-0.285682976246
2017/07/09/10:22:39.722057,534439,1499566962,528957046,,0.574230555053,-0.0360572768288,0.0461230865038,0.761010687036,0.615273210018,-0.198963711607,-0.0521061677209,-0.114561593299,-0.0957195830537,-0.111406448253,0.0362456323901,0.179863122628,-0.139609823783,0.795830845833,-0.256520390511,-0.719039082527,-0.0190437957644,0.39607834816,-0.262710303068
2017/07/09/10:22:39.731951,534440,1499566962,538953505,,0.574083216359,-0.0363087357703,0.0451726241491,0.761412267961,0.614861386158,-0.198576094701,-0.0525772633706,-0.112563862371,-0.0971083812278,-0.116806746015,0.0303844207211,0.174427706022,-0.16837694952,1.2375856638,0.0199826955795,-0.239917695522,-0.0541270747781,0.47841951251,-0.27252677083
2017/07/09/10:22:39.741666,534441,1499566962,548953047,,0.572114310418,-0.0372990471609,0.043847922133,0.761300368606,0.614543572189,-0.199604782734,-0.0539988643506,-0.117402725917,-0.0923301670399,-0.114748225784,0.0485832367152,0.174574175981,-0.151701122347,1.39422273636,0.361637055874,-0.529622733593,-0.100480690598,0.627738595009,-0.259992212057
2017/07/09/10:22:39.751883,534442,1499566962,558960454,,0.571875086665,-0.0383558623757,0.0432881006183,0.761866494159,0.613857342446,-0.199542026309,-0.0540517154068,-0.125918593883,-0.104513325242,-0.106392455922,0.0364584906642,0.188349651101,-0.165971524022,0.858326494694,0.288430333138,0.31076797843,-0.086454257369,0.26449277997,-0.207482263446
2017/07/09/10:22:39.761561,534443,1499566962,568954437,,0.5703919986,-0.0391655721998,0.0420903658079,0.761845480223,0.613473663638,-0.20051146773,-0.0551060758469,-0.106069430417,-0.0906828076886,-0.104842447493,0.0242794313034,0.166250026043,-0.108484803985,0.0425754860044,0.253562510014,0.428079932928,-0.0727073103189,-0.0667028278112,-0.178226947784
2017/07/09/10:22:39.772173,534444,1499566962,578957307,,0.569115429313,-0.0395984801371,0.040922575893,0.76220505639,0.612877075689,-0.200633328374,-0.0563152701682,-0.095490188616,-0.0817993634047,-0.111703929983,0.0547662246699,0.132663794665,-0.142034556991,0.0115285664797,0.519216775894,0.105631478131,-0.0984762534499,-0.0532869398594,-0.164101779461
2017/07/09/10:22:39.782085,534445,1499566962,588961293,,0.56847561633,-0.0409111278689,0.0397993951114,0.762441271405,0.612401586433,-0.20115114206,-0.0564430920611,-0.088573755603,-0.0695453253633,-0.113521482791,0.0731992150704,0.104223909673,-0.135391116376,0.543743252754,-0.0869668424129,-0.473427355289,0.00261475145817,0.0796759575605,-0.240446209908
2017/07/09/10:22:39.791873,534446,1499566962,598960896,,0.567629122659,-0.0412519554636,0.0386563948393,0.762715318221,0.611974437495,-0.201177688216,-0.0572727593893,-0.0919642666108,-0.0865317532031,-0.121322819104,0.0477816506876,0.101187353233,-0.152134079561,1.34563446045,-0.178740501404,-0.843279659748,0.066258251667,0.35724183917,-0.291474282742
2017/07/09/10:22:39.801740,534447,1499566962,608969237,,0.567414439496,-0.0419565811045,0.0373298244568,0.763239172104,0.611418065954,-0.200804672906,-0.0575447489369,-0.0826817966476,-0.0649847525824,-0.124347163575,0.0736026648493,0.0792102263245,-0.144850388481,2.27411293983,-0.292498290539,-0.717874884605,0.0617293864489,0.56127256155,-0.314692884684
2017/07/09/10:22:39.811754,534448,1499566962,618960218,,0.566203021429,-0.0422192769266,0.0357525174136,0.763676005402,0.610837278706,-0.200584779203,-0.0586730267575,-0.0686546965029,-0.0717156993693,-0.126613025624,0.0773156755645,0.0363097907691,-0.143824888694,1.47924435139,0.139379769564,-0.76875013113,-0.0232251435518,0.372393667698,-0.251941859722
2017/07/09/10:22:39.822075,534449,1499566962,628954042,,0.56669277874,-0.0430292320478,0.0348220408347,0.764028917309,0.610674849351,-0.199820217808,-0.0583774137884,-0.0584067603881,-0.0673120799126,-0.13330063443,0.0754749631327,0.0119937020868,-0.151990815836,1.43667936325,-0.415879011154,0.0621232092381,0.126603394747,0.180340826511,-0.232342034578
2017/07/09/10:22:39.832026,534450,1499566962,638957083,,0.566130718079,-0.0438873925486,0.0337239239927,0.764576657244,0.610072026796,-0.199488115134,-0.0586442600728,-0.0538252970256,-0.070069404556,-0.136351977526,0.0805071769855,-0.00348714066728,-0.15083985345,1.87812399864,-0.330627918243,0.194052815437,0.0972482413054,0.361942529678,-0.28450524807
2017/07/09/10:22:39.841702,534451,1499566962,648953098,,0.5652949131,-0.044419323205,0.0322890712111,0.764664918184,0.609798833194,-0.199817153426,-0.059211917127,-0.0502613751369,-0.0635001481416,-0.134229359247,0.0947344689552,-0.0131804870118,-0.136716951655,1.63145720959,-0.778216302395,-0.0701204165816,0.222081899643,0.357101470232,-0.310577839613
2017/07/09/10:22:39.851565,534452,1499566962,658954391,,0.564906313003,-0.0445849749765,0.030848582191,0.765174463932,0.609388930645,-0.198896339621,-0.0599451168989,-0.0475476614566,-0.0591437926729,-0.138809254588,0.0892515295544,-0.0195275242322,-0.13000270012,1.6774430275,-0.244971260428,-0.439525604248,0.0992331951857,0.359901368618,-0.245264083147
2017/07/09/10:22:39.861817,534453,1499566962,668961301,,0.564275984895,-0.0453992594342,0.0292351793824,0.765418019886,0.609020573113,-0.198902217398,-0.0605566203851,-0.0281340338401,-0.0600233716838,-0.138605525498,0.100521403381,-0.0589404884117,-0.126813111625,1.41710567474,-0.624848484993,-0.914190709591,0.173235297203,0.38460585475,-0.306622445583
2017/07/09/10:22:39.872077,534454,1499566962,678959577,,0.564535915507,-0.0463867315665,0.0280306409137,0.765868831638,0.608739889591,-0.198218869056,-0.059916270715,-0.0463643892476,-0.0625193169281,-0.154310093284,0.0977606802242,-0.0168802500766,-0.140733346254,2.12420368195,-0.399620652199,-0.848542928696,0.0731270909309,0.52933716774,-0.298869848251
2017/07/09/10:22:39.881721,534455,1499566962,688961181,,0.564150306839,-0.0467798462063,0.0265443254534,0.76630648265,0.608398829707,-0.197406276747,-0.0604648704682,-0.0380967379135,-0.059176767667,-0.152155918768,0.0874519866842,-0.0336100530602,-0.112300252202,2.03066158295,-0.461973249912,-0.489883482456,0.0552510172129,0.471452653408,-0.321148216724
2017/07/09/10:22:39.891817,534456,1499566962,698955651,,0.563628427085,-0.0467482668439,0.0249477268417,0.766496028976,0.608147185796,-0.197202800049,-0.061252703005,-0.0307770129164,-0.0565573681334,-0.153894423622,0.0900120591901,-0.0586325742257,-0.111994885138,1.95390915871,0.0589354932308,-0.440334409475,-0.106748268008,0.449650675058,-0.259626358747
2017/07/09/10:22:39.904715,534457,1499566962,708952501,,0.563999085775,-0.0471679462635,0.0237642401198,0.766569701861,0.60835165339,-0.196384265492,-0.0609292891277,-0.0173910954525,-0.0545001747456,-0.148545047402,0.0893540258611,-0.0919801135717,-0.100843874062,2.2106859684,0.119737043977,0.0856995210052,-0.124403893948,0.40821531415,-0.242342293262
2017/07/09/10:22:39.911658,534458,1499566962,718960528,,0.563525513881,-0.0483233745102,0.0224134195985,0.767258431714,0.607641363077,-0.195851817766,-0.0610617582418,-0.0269179601257,-0.0664441777066,-0.15052019745,0.0681436613047,-0.0809074819918,-0.138542303376,1.9730309248,-0.711562395096,0.065431855619,0.158115684986,0.319898366928,-0.327135384083
2017/07/09/10:22:39.922158,534459,1499566962,728951752,,0.56211174741,-0.0489161905456,0.0204758877757,0.767799068503,0.606834822118,-0.195891853677,-0.0621487790215,-0.0253763062529,-0.0484958700309,-0.15886117651,0.0981094164529,-0.0722036188863,-0.116580129835,1.72448277473,-0.856662690639,-0.881407022476,0.163350582123,0.408694803715,-0.315573185682
2017/07/09/10:22:39.932025,534460,1499566962,738960351,,0.562804249821,-0.0491652801224,0.0191128752351,0.767959752675,0.60702939778,-0.194797186146,-0.0617023887111,-0.0468888916737,-0.0545423199799,-0.158718032131,0.0988109538225,-0.0431221033094,-0.129273365981,2.76298594475,-0.774597287178,-0.988677442074,0.139884710312,0.613169312477,-0.344268292189
2017/07/09/10:22:39.941937,534461,1499566962,748959105,,0.562607301718,-0.050386312876,0.0178511647344,0.76900773137,0.606011515063,-0.193795936209,-0.0618084768768,-0.00769469956034,-0.0551328186314,-0.152963167047,0.0905231727731,-0.124055393984,-0.0870603175114,2.89151191711,-1.03483843803,-0.919258534908,0.218962550163,0.663014650345,-0.351807951927
2017/07/09/10:22:39.951705,534462,1499566962,758961759,,0.562070831974,-0.050775731259,0.0159647263884,0.768649036859,0.606412124844,-0.193878676992,-0.0620810082549,-0.0100206828861,-0.0762002453963,-0.15561517663,0.057255956819,-0.122425949661,-0.0776089734056,3.16236019135,-0.572244822979,-1.18587863445,0.0609322041273,0.778706550598,-0.345605194569
2017/07/09/10:22:39.961888,534463,1499566962,768960870,,0.561798420594,-0.0505283949259,0.0143140833008,0.768951437824,0.606145600241,-0.193285808122,-0.0627837077313,-0.0309403252093,-0.0444977744447,-0.161889311208,0.092934147232,-0.0529166116926,-0.0713272633025,2.44075775146,-0.564858973026,-1.66831505299,0.0472853258252,0.545100152493,-0.277405023575
2017/07/09/10:22:39.972023,534464,1499566962,778962877,,0.561695631392,-0.0508057816873,0.0131085453118,0.769494956488,0.605710737713,-0.192474339745,-0.0628143510568,-0.0531584210793,-0.0378352666,-0.151684089169,0.121942624581,-0.0134317362787,-0.14644619899,2.78377389908,-0.410163402557,-1.57836925983,-0.00035285949707,0.587091445923,-0.265731215477
2017/07/09/10:22:39.981802,534465,1499566962,788955440,,0.560505684567,-0.0522888459759,0.0117753657854,0.769932597947,0.605011511272,-0.192764197439,-0.0632995263172,-0.0416612359357,-0.0313720925629,-0.152492494312,0.108799701661,-0.0262285948189,-0.110495012611,2.41428422928,-1.18154370785,-1.12893307209,0.213856950402,0.549423217773,-0.340053230524
2017/07/09/10:22:39.991821,534466,1499566962,798958385,,0.560620593321,-0.0515547987909,0.0102941080348,0.769848308216,0.605376841725,-0.19168466801,-0.0641049911395,-0.0579512190236,-0.0436651952767,-0.139564108391,0.101250740145,-0.00114560976676,-0.112908007523,2.63242006302,-0.204080075026,-1.07322895527,0.0636956393719,0.466835767031,-0.276735723019
2017/07/09/10:22:40.001721,534467,1499566962,808956519,,0.559656893216,-0.0516417720344,0.00880747514886,0.770079881755,0.605053766258,-0.191464864141,-0.0650240067329,-0.0652167376333,-0.0395888153696,-0.145152353956,0.116856853915,0.0183268938491,-0.121279686143,2.64715337753,-0.649516642094,-1.10632765293,0.0745151638985,0.613141417503,-0.344438582659
2017/07/09/10:22:40.011738,534468,1499566962,818958601,,0.559090120743,-0.0531273115906,0.00756266421614,0.770772350296,0.604177707424,-0.191465666792,-0.0649629148919,-0.0746341608005,-0.046993212632,-0.153474521472,0.114853539922,0.0203188590902,-0.139819006201,3.02348208427,-0.697317779064,-1.21495223045,0.0231490656734,0.815226972103,-0.33727517724
2017/07/09/10:22:40.021914,534469,1499566962,828959400,,0.55874614665,-0.0530075217621,0.0064194371371,0.770863128302,0.604167034288,-0.191011748731,-0.0653203180626,-0.0844162967796,-0.0424013517506,-0.153585537286,0.122673802897,0.0461334693602,-0.117585064336,3.46890687943,-0.462750852108,-1.04618990421,0.0291918516159,0.942947208881,-0.3650200665
2017/07/09/10:22:40.031695,534470,1499566962,838959979,,0.55806793376,-0.0531159145845,0.004829646601,0.770945045388,0.60404772229,-0.190748364065,-0.0662204484605,-0.0676122300721,-0.0442451225642,-0.136301115757,0.090217413476,0.00831161704619,-0.116247977349,3.52225732803,-0.491087526083,-1.20630645752,0.0241683200002,1.12437713146,-0.404538810253
2017/07/09/10:22:40.041639,534471,1499566962,848956618,,0.55669162957,-0.0539413482949,0.00337850549537,0.771437993786,0.60324870096,-0.191042852377,-0.0669107994882,-0.0744026350771,-0.0372869831863,-0.141285218169,0.100367495986,0.0294731010709,-0.109826396705,3.05007600784,-0.885893106461,-1.36167156696,0.163644134998,1.07392895222,-0.426174998283
2017/07/09/10:22:40.051669,534472,1499566962,858959138,,0.557194065199,-0.05388521415,0.00265077562263,0.771234821644,0.603811571483,-0.190188350944,-0.0666095127792,-0.0792962509822,-0.0353181135309,-0.134593379728,0.0990764418894,0.0390794022732,-0.106798874951,3.02388238907,-0.596941232681,-0.587202489376,0.223711460829,0.850653886795,-0.409679919481
2017/07/09/10:22:40.061714,534473,1499566962,868958710,,0.555887529752,-0.0540755361282,0.00110309213525,0.771542867852,0.603266655145,-0.190333535567,-0.0675580572192,-0.0668190314868,-0.0487324432741,-0.128981985602,0.0759002510077,0.0106230122162,-0.100292268229,3.36975479126,-0.238110169768,-1.06068706512,0.0793224424124,1.10340976715,-0.406207084656
2017/07/09/10:22:40.072253,534474,1499566962,878961058,,0.55510945829,-0.0551338358743,6.15682601401e-05,0.77205234281,0.602567182166,-0.190353738281,-0.0679222000502,-0.0635799626635,-0.0207523141204,-0.132888256935,0.106445554948,0.0115665161847,-0.0558843807103,2.92263913155,-0.711923539639,-0.915135502815,0.149713635445,0.875018000603,-0.406079769135
2017/07/09/10:22:40.081891,534475,1499566962,888962930,,0.553889167986,-0.055350170294,-0.00116240079767,0.772005277558,0.602446894097,-0.190517536372,-0.0690554816784,-0.0610942506651,-0.0367370372167,-0.121247444097,0.0856145413157,0.0158911929732,-0.0823081835347,2.63398098946,-1.14212083817,-1.34710454941,0.182173088193,0.904237687588,-0.42062574625
2017/07/09/10:22:40.091704,534476,1499566962,898960906,,0.553443255568,-0.0553129990288,-0.00254802601791,0.772405485543,0.602129675804,-0.189707380555,-0.0695753489539,-0.0797941588771,-0.0337324456298,-0.129730081873,0.103167841237,0.0516765514896,-0.0966551190031,3.07843708992,-0.967829704285,-1.69001710415,0.171527028084,1.01027023792,-0.426741600037
2017/07/09/10:22:40.101493,534477,1499566962,908977987,,0.552921005972,-0.0556089171288,-0.00408211592451,0.772340843744,0.602199406921,-0.189615207475,-0.0699397489503,-0.0912108173241,-0.0377749145373,-0.140537084345,0.102167502683,0.0576477516809,-0.0936404659281,3.76349401474,-1.08643698692,-1.80364084244,0.18050378561,1.20303308964,-0.460165172815
2017/07/09/10:22:40.111759,534478,1499566962,918960119,,0.552176588313,-0.0563155466692,-0.00516705031686,0.772542163308,0.601856355478,-0.18974048959,-0.0703283718812,-0.0553711350219,-0.0335693104736,-0.132530743853,0.104161400227,-0.00661687844374,-0.0750271328326,3.48491621017,-1.14019727707,-1.70496189594,0.226952195168,1.05039036274,-0.457062423229
2017/07/09/10:22:40.122270,534479,1499566962,928961147,,0.552064544912,-0.0569187329431,-0.00618997440289,0.772668831984,0.601885097096,-0.189175274555,-0.070213399514,-0.0438855259938,-0.0257218751506,-0.126581998856,0.0867382882446,-0.00478702792289,-0.0287662262829,3.33207130432,-1.37837433815,-1.17657899857,0.227473109961,1.01413142681,-0.521358072758
2017/07/09/10:22:40.131949,534480,1499566962,938961843,,0.551594789879,-0.0566158257097,-0.00776779391897,0.77275552628,0.601891528552,-0.188562336433,-0.0708500510889,-0.0413723085158,-0.0359923664067,-0.129615065475,0.0731869213236,-0.0199505148861,-0.0135352800681,2.85022926331,-0.729379713535,-1.37338602543,0.178089588881,0.861272871494,-0.431964635849
2017/07/09/10:22:40.141744,534481,1499566962,948962067,,0.551256467154,-0.0579466919875,-0.00861666790348,0.773495246118,0.601069272224,-0.188315613049,-0.0704135221525,-0.0463051500569,-0.0371172713129,-0.12881401801,0.0629745927829,-0.0238248832424,-0.0557074958053,2.59903454781,-0.952801346779,-1.21651375294,0.147669628263,0.749721705914,-0.416998684406
2017/07/09/10:22:40.151717,534482,1499566962,958960278,,0.551009834221,-0.0568635513846,-0.00984108073609,0.772974490712,0.60180122857,-0.187769385827,-0.0713328517963,-0.027954917922,-0.00765168471442,-0.127683977074,0.11454689035,-0.0515603374129,-0.0401632792098,2.6187953949,-0.435824871063,-1.23418664932,0.0847195088863,0.731124281883,-0.337398827076
2017/07/09/10:22:40.161737,534483,1499566962,968959980,,0.550441335665,-0.0574371993173,-0.0108571607845,0.773369587606,0.601348392882,-0.187427784115,-0.0717664063851,-0.0403270234518,-0.0194213412173,-0.106624979459,0.0840369524385,-0.0305314393733,-0.0692071170069,1.98840785027,-0.705901801586,-1.10786986351,0.143825396895,0.453547775745,-0.357559114695
2017/07/09/10:22:40.172265,534484,1499566962,978969802,,0.550308651796,-0.0573227529552,-0.0117656743079,0.773557783375,0.601223454151,-0.187068152834,-0.0717232190643,-0.0525390751161,-0.0297460575879,-0.109965964775,0.0651389261026,-0.00706523152065,-0.0716488002631,2.34520292282,-0.424309551716,-1.07989621162,0.0121525377035,0.532628655434,-0.341308474541
2017/07/09/10:22:40.181864,534485,1499566962,988958289,,0.550279370828,-0.0580596809868,-0.0124875518645,0.773744451786,0.601142286836,-0.186723325404,-0.0712872643441,-0.054908489672,-0.0247045681139,-0.11110694514,0.0669343141502,-0.00808118039748,-0.0828606609466,3.32366847992,-0.867711663246,-1.19662129879,0.148738816381,0.75950551033,-0.407064795494
2017/07/09/10:22:40.191841,534486,1499566962,998960464,,0.549047770725,-0.0581012200629,-0.0142431765548,0.773624796831,0.60113198423,-0.186900793106,-0.0722018337693,-0.024472516986,0.000201527746041,-0.111554384274,0.0833288500769,-0.0365070924627,-0.0108455390602,2.52946972847,-0.83175766468,-1.5183416605,0.0770185887814,0.675173342228,-0.352833032608
2017/07/09/10:22:40.201667,534487,1499566963,8955650,,0.548720751229,-0.058194060689,-0.0149767338416,0.773775053646,0.60102762589,-0.186518881895,-0.0724476774605,-0.0374414859493,-0.0252553902852,-0.10475272644,0.0637582910295,-0.0397372583989,-0.0179637084393,2.6072716713,-0.657462716103,-1.13541090488,0.0940087735653,0.66781359911,-0.352587163448
2017/07/09/10:22:40.211596,534488,1499566963,18963194,,0.548757831741,-0.0583140828227,-0.0157909264005,0.773616892133,0.601369603731,-0.186150782077,-0.0722453475831,-0.0257017710448,-0.00976081087674,-0.105750725206,0.0635843419099,-0.0390842919703,0.0328169793983,2.93405008316,-0.581702589989,-1.01485168934,0.0564626604319,0.826927483082,-0.387258917093
2017/07/09/10:22:40.221950,534489,1499566963,28956100,,0.547951858985,-0.0594423217415,-0.0166439595633,0.773926845836,0.600962614397,-0.186232315804,-0.0721019967898,-0.0288290959373,-0.0202808537737,-0.101009252514,0.0530935230888,-0.0419161846749,0.0380507415569,1.78273165226,-1.3013201952,-0.730905056,0.172521039844,0.50200510025,-0.360527008772
2017/07/09/10:22:40.231935,534490,1499566963,38960505,,0.548074787596,-0.0577832410736,-0.0178071777342,0.773384534748,0.601908206047,-0.185044630357,-0.0730845926396,-0.0278835868787,-0.0355002212515,-0.088512680762,0.0327401478611,-0.0586214998171,0.000845947844021,1.94566631317,0.155675277114,-1.01292347908,-0.0571150630713,0.556898474693,-0.300720393658
2017/07/09/10:22:40.241622,534491,1499566963,48954717,,0.547692159769,-0.0582996148202,-0.0185678470823,0.77352339607,0.601701002707,-0.185234798165,-0.0728390597292,-0.0334118446908,-0.00153381228546,-0.0929367259737,0.0512661936806,-0.0190341918016,0.0380724658723,2.16875743866,-0.51638686657,-1.01129794121,0.137153297663,0.657908260822,-0.351586401463
2017/07/09/10:22:40.251638,534492,1499566963,58958279,,0.547048726979,-0.0588088795374,-0.0194450996496,0.773411208843,0.601768982744,-0.185424761642,-0.0729852808015,-0.0449454491606,-0.0214323964438,-0.0852466966719,0.0299198937664,-0.00793437222563,-0.0040738351843,2.19998884201,-0.938286662102,-1.03984773159,0.176236599684,0.675595641136,-0.433617472649
2017/07/09/10:22:40.261735,534493,1499566963,68958947,,0.547353034747,-0.0586799257779,-0.0200868294393,0.773469410422,0.601898098071,-0.184907832603,-0.0726143520397,-0.0391058685248,-0.000383274865092,-0.0863886508103,0.0545161165085,-0.0101154676514,0.0205079286918,2.37153339386,-0.415794432163,-0.511316359043,0.0994757860899,0.559864461422,-0.352533876896
2017/07/09/10:22:40.272176,534494,1499566963,78953890,,0.546489239091,-0.0590592692106,-0.0211642703599,0.773232455835,0.602197861932,-0.184852921383,-0.0727921821651,-0.022235536778,-0.00343680364058,-0.0776171366624,0.0211086659792,-0.0312006606045,0.0504622813505,1.77518355846,-0.932556390762,-0.944437503815,0.209991708398,0.495637625456,-0.390180766582
2017/07/09/10:22:40.281883,534495,1499566963,88965142,,0.546338631155,-0.059279007086,-0.0216228792902,0.77308359549,0.602492996223,-0.184569398026,-0.0726504039799,-0.0261144726357,-0.00519851235248,-0.0846082175403,0.0369841355171,-0.0375857287937,0.0875627123148,1.567507267,-0.841650247574,-0.776229679585,0.215711921453,0.448805302382,-0.385728478432
2017/07/09/10:22:40.291963,534496,1499566963,98965736,,0.546350657015,-0.0598844491706,-0.0224359169913,0.77281181456,0.602985448744,-0.18429302035,-0.0721562923754,-0.0267585751966,-0.0233987826948,-0.0764021481593,0.0301701034995,-0.0460158576951,0.0816508330377,1.15105676651,-0.881140649319,-0.575787305832,0.172083839774,0.262964636087,-0.341726958752
2017/07/09/10:22:40.301850,534497,1499566963,108960601,,0.54612203194,-0.0602951725389,-0.022962458991,0.772999497519,0.602844671004,-0.184135707389,-0.0717225260405,-0.0367742552199,-0.0504529158568,-0.0738461585363,-0.00957085263968,-0.0457324138381,0.068052510937,1.42494809628,-0.585161089897,-0.49877089262,0.0209931284189,0.331436306238,-0.318511903286
2017/07/09/10:22:40.311764,534498,1499566963,118960036,,0.546078853487,-0.060179329862,-0.0235909850443,0.772566026966,0.603475823856,-0.183921085363,-0.0716358734009,0.0058794056353,-0.00365824466973,-0.0708195370053,0.0219457460133,-0.0958183905883,0.1336019781,1.08313560486,-0.349621325731,-0.427242815495,0.00644545257092,0.189628794789,-0.263797909021
2017/07/09/10:22:40.321944,534499,1499566963,128956882,,0.545808105884,-0.0596827483754,-0.0246735509232,0.772303171306,0.603893430159,-0.183587782718,-0.0718057284521,-0.0126127677817,-0.00126510206561,-0.0763566427531,0.0211295778897,-0.0583226936744,0.0937983412594,1.09621763229,-0.0877603888512,-1.09522712231,-0.0954888761044,0.286398649216,-0.265852630138
2017/07/09/10:22:40.331634,534500,1499566963,138962206,,0.545717952228,-0.0597617680912,-0.025223017901,0.771976763739,0.60443537783,-0.183259770733,-0.0715933426036,-0.0200067282915,-0.0026603434911,-0.0752607209716,0.0213749065808,-0.052373891799,0.0604599162513,1.21684813499,0.0634381622076,-1.37363135815,0.011552259326,0.282806873322,-0.267634153366
2017/07/09/10:22:40.342276,534501,1499566963,148953114,,0.54525058396,-0.0601196537928,-0.0259653808689,0.772077356442,0.604393049826,-0.182988734738,-0.0715592059106,-0.0162105163507,-0.00831540644914,-0.0757082164375,0.0188969906182,-0.0781492639101,0.0379906476997,1.16455006599,-0.31780821085,-1.16048276424,0.073818013072,0.240847468376,-0.294012367725
2017/07/09/10:22:40.351786,534502,1499566963,158954738,,0.545357532613,-0.060463063584,-0.0267458085385,0.772338702824,0.604263830548,-0.182555403689,-0.0709343061946,-0.00435961713285,-0.012520976687,-0.0640121664942,-0.00902813053635,-0.0929786299477,0.0608579322664,1.07711780071,-0.566971242428,-1.15837931633,0.151503607631,0.138607263565,-0.296590864658
2017/07/09/10:22:40.361814,534503,1499566963,168956128,,0.545179334601,-0.059584689788,-0.0272052355995,0.771651590139,0.605128268567,-0.182481994445,-0.071231479842,0.00132999833837,0.0109491438452,-0.0657694969775,0.0355910126265,-0.0993146836413,0.0619495652224,0.834547817707,-0.383881866932,-0.784165263176,0.104961499572,-0.0054022334516,-0.261152207851
2017/07/09/10:22:40.371945,534504,1499566963,178965768,,0.545439485154,-0.059577315593,-0.0280078998154,0.771681451936,0.605355792614,-0.181761682725,-0.0708151945567,-0.0152390715322,0.0109125269694,-0.0657302932211,0.0303260499912,-0.0757375237066,0.0519396897797,0.545202374458,-0.0334135591984,-0.626776337624,-0.10019223392,-0.161453947425,-0.197867184877
2017/07/09/10:22:40.381814,534505,1499566963,188958098,,0.545949239123,-0.0596587823018,-0.0283442916089,0.771749935945,0.60556669696,-0.181061834143,-0.0700544368242,-0.00520803555576,0.00316560981832,-0.0691180989317,0.0252250271912,-0.0915540291361,0.0571679177104,1.00847899914,0.116795256734,-0.697064518929,-0.279067546129,0.00960829854012,-0.127761006355
2017/07/09/10:22:40.391624,534506,1499566963,198956006,,0.545758306173,-0.0597743325827,-0.029230354081,0.7713058879,0.606183845467,-0.181048690259,-0.0696401072713,0.0165875531632,-0.0267390896984,-0.0521000764423,-0.0287265979659,-0.142514435769,0.0554055932198,0.398471295834,-0.0330570787191,-0.916616737843,-0.258314728737,-0.108532696962,-0.0919112116098
2017/07/09/10:22:40.401690,534507,1499566963,208969459,,0.545541236509,-0.0600505191392,-0.0295239947501,0.771197918817,0.606309485979,-0.181334048152,-0.0689966680753,0.00921198141659,-0.0193531403153,-0.0515436857152,-0.0557075169974,-0.106708380598,0.124222729884,-0.0764097049832,-0.0903729200363,-0.41749215126,-0.20062752068,-0.39618653059,-0.0748490765691
2017/07/09/10:22:40.411662,534508,1499566963,218966415,,0.545849692786,-0.0605945412743,-0.0297407943587,0.771142398144,0.606629574243,-0.180749576336,-0.0683341210108,-0.00719246766976,-0.0245957427234,-0.0506019855976,-0.0661624090562,-0.0723654629915,0.128127589138,0.000180564820766,0.0264053046703,-0.719329059124,-0.189940139651,-0.369968950748,-0.0682704225183
2017/07/09/10:22:40.421925,534509,1499566963,228970760,,0.545522241826,-0.0600464156478,-0.0306415391871,0.770511800471,0.607404180599,-0.180776795827,-0.0684943560849,-0.00964553440613,-0.0338565266732,-0.0476769091735,-0.062176881701,-0.0647982614528,0.132290005351,0.382273852825,0.543420732021,-1.05817115307,-0.277322947979,-0.277728945017,-0.0978101044893
2017/07/09/10:22:40.431632,534510,1499566963,238956988,,0.545558402118,-0.061186477697,-0.0309036373433,0.770403504201,0.607615254123,-0.180975911152,-0.0673042588077,0.00136229784833,-0.0152661221217,-0.0468013492292,-0.0554122695194,-0.066363742266,0.158503341191,0.430362612009,-0.4831199646,-0.84436827898,-0.0231668651104,-0.198193833232,-0.19886264205
2017/07/09/10:22:40.442019,534511,1499566963,248960109,,0.544980944713,-0.0613535862503,-0.0314618808193,0.770242349974,0.607771616394,-0.181161505236,-0.0672375909267,-0.0142831494121,-0.00176245974743,-0.0527842717716,-0.0124184273835,-0.0446861857285,0.110460942341,0.35506606102,-0.4712639153,-0.863505780697,0.176614195108,-0.198947116733,-0.218870490789
2017/07/09/10:22:40.451980,534512,1499566963,258959431,,0.546081996273,-0.0611381427899,-0.0312070662422,0.769406252032,0.609098947692,-0.180704617492,-0.0660176678683,-4.04964936253e-05,0.0075437386678,-0.0504066493872,-0.0140937675959,-0.0685228844975,0.147287015656,0.354310005903,-0.439893424511,-0.555648326874,0.135074898601,-0.256619930267,-0.193299114704
2017/07/09/10:22:40.461763,534513,1499566963,268966446,,0.545109730079,-0.0611449836582,-0.0318585752278,0.769344256638,0.609023297538,-0.181073105531,-0.0664271652866,0.0103315580567,-0.0165829328226,-0.0300729071453,-0.0460983094619,-0.0948788672208,0.141568679428,-0.608657360077,0.0805417746305,-0.464149862528,-0.0856554806232,-0.510420262814,-0.0910488665104
2017/07/09/10:22:40.472249,534514,1499566963,278966494,,0.546115763933,-0.0607605590312,-0.0324620549687,0.768631828888,0.610258543434,-0.180287378868,-0.0654681816364,-0.00861662620385,-0.0063896733894,-0.043499900921,-0.0363918859111,-0.0535626746058,0.127304579223,-0.336698502302,0.451064229012,-0.657633543015,-0.196209922433,-0.478089421988,-0.0637996792793
2017/07/09/10:22:40.481657,534515,1499566963,288959997,,0.545759942929,-0.0611575193256,-0.032738220041,0.768588708303,0.610232265092,-0.180694305439,-0.0650964522258,-0.00555661896945,-0.0179678540791,-0.053310274185,-0.0519230260651,-0.05779378158,0.126650226111,-0.318740725517,0.385905236006,-0.635964274406,-0.241991698742,-0.389969676733,-0.0529027879238
2017/07/09/10:22:40.491965,534516,1499566963,298952653,,0.545070538724,-0.061319333987,-0.0329981396968,0.768414334186,0.610408527458,-0.180775783363,-0.0652760045818,0.000166134348137,-0.0119650448807,-0.048345992527,-0.0389572218727,-0.0725520195823,0.113245284453,-0.329029619694,0.00621718168259,-0.58148008585,-0.0507002770901,-0.383407741785,-0.104603528976
2017/07/09/10:22:40.501809,534517,1499566963,308951383,,0.545461281614,-0.0621385542704,-0.0334575186315,0.768457653064,0.610543921537,-0.180561291676,-0.0640825660408,0.00763376943914,-0.0180961711508,-0.0405661143371,-0.04940475919,-0.0798117178372,0.10542364159,-0.124839767814,0.158689111471,-0.610603809357,-0.0539188086987,-0.359915912151,-0.0746466219425
2017/07/09/10:22:40.511748,534518,1499566963,318966395,,0.545166713182,-0.0620856677853,-0.0337620391328,0.767689384898,0.611403595337,-0.18086837154,-0.064228374574,0.00986730208221,-0.0130422292102,-0.0342013848533,-0.0547977718426,-0.0667580462638,0.0997563344161,-0.676374495029,-0.468390762806,-0.829083502293,0.0135924592614,-0.490507900715,-0.0893458873034
2017/07/09/10:22:40.522209,534519,1499566963,328957093,,0.545112212122,-0.061286595676,-0.0344891317539,0.767389157849,0.611820083626,-0.180747682023,-0.0641898834046,-0.0268103629819,0.00130487480812,-0.0387423344111,-0.0339563390601,0.0310223195041,0.123846810686,-0.200383841991,0.271664500237,-0.782478451729,-0.0677815899253,-0.545782506466,-0.0312084592879
2017/07/09/10:22:40.531578,534520,1499566963,338954886,,0.545145341098,-0.0616030648127,-0.0343618074338,0.767187408004,0.612032175504,-0.181041934838,-0.0637488429601,-0.000781131711402,0.00660387121464,-0.0295911000518,-0.0314455225829,-0.0207029260248,0.132268803267,-0.290452361107,0.119596913457,-0.699523389339,-0.0812723040581,-0.554235458374,-0.0439696907997
2017/07/09/10:22:40.541800,534521,1499566963,348956376,,0.545097274592,-0.06169129429,-0.0350294725167,0.767174751104,0.61214022776,-0.180848680351,-0.063411336848,-0.00946134928314,-0.0147469674029,-0.032786126562,-0.0432878435731,-0.0356004539585,0.0758726931237,0.017286863178,-0.316242188215,-1.0158509016,0.00991298258305,-0.351384520531,-0.132042825222
2017/07/09/10:22:40.551749,534522,1499566963,358953978,,0.545319018708,-0.0621451709983,-0.0350368208635,0.766998235377,0.612518405443,-0.180569499334,-0.0626862491445,-0.00864967833859,-0.0151842839635,-0.0416019830972,-0.0349845081076,-0.0423646805574,0.0771176247145,0.672883749008,-0.437763929367,-0.685485363007,0.00455667823553,-0.0947063192725,-0.152265071869
2017/07/09/10:22:40.561553,534523,1499566963,368954858,,0.545639072018,-0.0619611092081,-0.0356192103356,0.766819100793,0.612838498938,-0.180377520959,-0.0623008090782,0.00423185389781,-0.00595863110742,-0.035174086273,-0.0151126233567,-0.0553902938576,0.103155020128,0.428497105837,-0.422056287527,-0.358484983444,0.0460506677628,-0.264052420855,-0.133401930332
2017/07/09/10:22:40.572096,534524,1499566963,378964205,,0.545508507114,-0.0621721503167,-0.0358754944056,0.766502994956,0.613245365147,-0.180393747203,-0.0621399776262,0.00521410289654,0.00245543388373,-0.02916491501,-0.0172564308986,-0.0340412871713,0.104163218553,-0.52902173996,-0.38396525383,-0.398529291153,0.00773071497679,-0.553780913353,-0.0724042803049
2017/07/09/10:22:40.581752,534525,1499566963,388957504,,0.545186968056,-0.0616425320894,-0.0362695111244,0.766078424846,0.613728639667,-0.180418891105,-0.0625302132612,-0.0127084872545,-0.0206169553441,-0.0209434835811,-0.0423063263815,-0.0102610155534,0.0625336945586,-1.04011511803,0.780361652374,-0.466510504484,-0.241705387831,-0.83584022522,0.053637418896
2017/07/09/10:22:40.591993,534526,1499566963,398954837,,0.545797219756,-0.0616720434581,-0.0358498935248,0.766152678587,0.613802761016,-0.180100262767,-0.0618072731497,-0.0256462258619,0.00529985425427,-0.0336285895676,0.00664680741898,0.0293147698809,0.0834102009062,-0.0767814591527,0.753605008125,-0.229743242264,-0.198417112231,-0.582801818848,0.0218894854188
2017/07/09/10:22:40.601681,534527,1499566963,408953171,,0.544935446937,-0.0614145954155,-0.0364873085292,0.765981239296,0.613838001485,-0.180478689523,-0.0624747277477,0.000965997026079,0.0108800612769,-0.0136510263684,-0.000110788115995,-0.0318047707269,0.0564883324937,-0.362090587616,0.519410014153,-0.646566510201,-0.116789542139,-0.531627595425,-0.0207962803543
2017/07/09/10:22:40.611771,534528,1499566963,418953611,,0.54475923651,-0.0616327525582,-0.0369323444151,0.766006521418,0.613869231622,-0.180353381348,-0.0622192369661,-0.00312910906112,0.00439166715498,-0.0216380560196,0.00337130337975,-0.0334085309327,0.0172860234364,-0.238366574049,-0.342252463102,-0.735401153564,-0.0219860821962,-0.411466956139,-0.138624370098
2017/07/09/10:22:40.622064,534529,1499566963,428983082,,0.543896858081,-0.0613314237971,-0.0372494824191,0.765754066041,0.613984096212,-0.180781692529,-0.0629461641966,-0.0229634613082,0.00661269038793,-0.0221338256437,0.0203868618925,-0.000413141273031,0.0256422553498,-0.0556705631316,0.253028810024,-0.675784289837,-0.00563312321901,-0.360298931599,-0.0960858985782
2017/07/09/10:22:40.631946,534530,1499566963,438960126,,0.543852430259,-0.0619145896117,-0.0375127968094,0.765768557727,0.614060296951,-0.180575043606,-0.0626188576369,-0.0291334440996,0.00642730269378,-0.0278953279864,0.0156597601655,0.0248535755378,0.0508996412914,0.178273737431,-0.422126293182,-0.463543951511,0.0968540385365,-0.31624174118,-0.161246091127
2017/07/09/10:22:40.641676,534531,1499566963,448959069,,0.544128288174,-0.0618210726936,-0.0371101595045,0.766002634746,0.613841571314,-0.180498997617,-0.0621176363692,-0.016202698362,0.000675106050083,-0.0220150513107,0.00873684812112,-0.0058765251283,0.0173714570941,-0.216551721096,-0.229097113013,-0.269612014294,0.0627187415957,-0.419820338488,-0.124750711024
2017/07/09/10:22:40.651651,534532,1499566963,458959791,,0.544138823559,-0.0617111905663,-0.0372920358968,0.765636211284,0.614343739249,-0.180368466927,-0.0620498038231,0.00700847835851,0.00414836326709,-0.0146414186111,0.00385663649289,-0.0396128065915,0.0407929970897,-0.390318036079,0.380977213383,-0.408127814531,-0.176859408617,-0.416974514723,-0.0765792280436
2017/07/09/10:22:40.661591,534533,1499566963,468960125,,0.544681337019,-0.061640486656,-0.0376607430697,0.765405836773,0.614816021071,-0.179878637157,-0.0616347399048,-0.00549405642722,-0.00240289746339,-0.0188643603258,-0.0124486875846,-0.029091976795,0.0349037382908,0.147996485233,0.500775516033,-0.295645743608,-0.104885861278,-0.299878001213,-0.0970926061273
2017/07/09/10:22:40.672197,534534,1499566963,478959904,,0.543951215924,-0.0608970190723,-0.0380274260877,0.76512679427,0.614977283426,-0.18021782193,-0.0624937294365,-0.00794851232002,0.0124677760989,-0.0180852084181,0.000537380561192,-0.0162168394467,0.0328576587674,-0.4503698349,0.656212925911,-0.539814472198,-0.201180368662,-0.363227158785,-0.0614500679076
2017/07/09/10:22:40.681793,534535,1499566963,488953462,,0.543753495147,-0.061667785684,-0.037972256302,0.765310018686,0.614748702862,-0.180363669244,-0.0620770041586,-0.0131977375144,0.00435714481582,-0.0241367430151,0.0155585484409,0.00468774802212,0.0298600575912,-0.168968260288,0.509787201881,-0.415512025356,-0.189178168774,-0.249118819833,-0.0872699320316
2017/07/09/10:22:40.691732,534536,1499566963,498993363,,0.544239938121,-0.061699440841,-0.0374677493681,0.765411290671,0.614754550166,-0.180016963481,-0.061776144443,-0.00525930361394,0.00937742925138,-0.00894928722458,0.0110125120981,-0.000943023215372,0.0330465940654,0.0574698857963,0.506794214249,-0.0562386550009,-0.203883320093,-0.254985541105,-0.0450384132564
2017/07/09/10:22:40.701729,534537,1499566963,508955830,,0.543084081416,-0.0619943288399,-0.0380777522646,0.76541860507,0.614469136953,-0.180793956742,-0.062254188218,-0.0123869625037,-0.00758977698309,0.00759849140762,-0.0108928996388,0.0105003527151,0.0116684284246,-0.89614200592,-0.00212648510933,-0.368570387363,-0.133607834578,-0.563133001328,-0.0329086147249
2017/07/09/10:22:40.711645,534538,1499566963,518959063,,0.542610627607,-0.0622634252975,-0.0378241399293,0.765408773479,0.61434522343,-0.181197888016,-0.0624234035312,-0.0358732465681,-0.0201300028623,0.00168579159633,-0.0317540266586,0.0582488525829,-0.00674379471341,-0.0102561563253,0.281135678291,-0.606516957283,-0.25542935729,-0.345702767372,-0.0409963317215
2017/07/09/10:22:40.721864,534539,1499566963,528953100,,0.543253858791,-0.0618265702316,-0.0376813354605,0.76510518408,0.614809717808,-0.181047999825,-0.0620055638097,-0.0190818676887,0.0101390137931,-0.00185305490838,0.000153861263156,0.045316647822,0.0174630564419,0.0545194074512,-0.193869054317,-0.767002940178,-0.143702924252,-0.341302484274,-0.0564758256078
