time,.header.seq,.header.stamp.secs,.header.stamp.nsecs,.header.frame_id,.pose.position.x,.pose.position.y,.pose.position.z,.pose.orientation.x,.pose.orientation.y,.pose.orientation.z,.pose.orientation.w,.twist.linear.x,.twist.linear.y,.twist.linear.z,.twist.angular.x,.twist.angular.y,.twist.angular.z,.wrench.force.x,.wrench.force.y,.wrench.force.z,.wrench.torque.x,.wrench.torque.y,.wrench.torque.z
2017/07/09/10:14:43.383741,486805,1499566486,189745104,,0.781370412107,0.398597736321,0.166231088699,0.623403821183,0.779323233068,0.0559249004989,0.0299228949028,0.0110556103906,-0.00657121919905,-0.00400992261254,-0.000531489471972,-0.0150142409878,-0.00591016161567,5.79353427887,1.95335292816,-0.913301885128,-0.89202940464,2.20629072189,-0.0875032916665
2017/07/09/10:14:43.393955,486806,1499566486,199742216,,0.781319133721,0.398488202998,0.16562501857,0.623655148995,0.77912865199,0.0559217589033,0.0297582872562,0.00234762351117,-0.0264543609757,-0.0238144449756,-0.00838279281311,0.0159494153082,-0.0322287822459,5.49174594879,1.88929200172,-0.698262035847,-0.885608196259,2.14010500908,-0.102008268237
2017/07/09/10:14:43.403663,486807,1499566486,209747566,,0.780949543075,0.3987979272,0.165527636085,0.623353069048,0.77939445968,0.0556974176942,0.0295469996721,0.00287288573541,-0.0201750781528,-0.0212998162752,-0.00105834321835,0.00865101657457,-0.0465401686446,5.79750204086,2.06627821922,-0.655843615532,-0.989794850349,2.29823374748,-0.125722035766
2017/07/09/10:14:43.413931,486808,1499566486,219750892,,0.781410642462,0.398059194514,0.165509583841,0.623855691786,0.778986445807,0.0555111296212,0.0300450921606,0.00499383553097,-0.000632671129689,-0.0148255879278,-0.0037607054402,-0.00275470710012,-0.000623200209121,5.83396816254,2.19620299339,-0.435237616301,-0.938103854656,2.39053702354,-0.0751234963536
2017/07/09/10:14:43.423712,486809,1499566486,229745857,,0.780950190976,0.398029870772,0.164959183243,0.62367365049,0.779175977637,0.0550952176856,0.0296730609376,-0.00283151123221,-0.00207346919544,-0.0256354137173,-0.0293184198197,0.0160931396889,0.0177086571792,6.22424650192,2.11662364006,-0.604474961758,-0.877733170986,2.55661845207,-0.0622069239616
2017/07/09/10:14:43.434229,486810,1499566486,239745811,,0.781186605604,0.398254676361,0.16531888997,0.623391662579,0.779382062348,0.0552193212612,0.0299543398417,0.0177390886904,-0.0332326882376,-0.0154001499934,-0.0256635776035,-0.0067815102795,-0.0294011604076,6.0646982193,2.1604013443,-0.674558222294,-0.855967462063,2.48948955536,-0.0614591650665
2017/07/09/10:14:43.443734,486811,1499566486,249742393,,0.781179560572,0.397588226636,0.165337421494,0.623644819271,0.779186868795,0.0550849262707,0.0300102281121,0.00225011397185,-0.0468492661047,-0.0138312076754,-0.0349663779968,0.0288526413395,-0.0520287301716,5.54553556442,2.15875148773,-0.837393462658,-0.814767301083,2.22377085686,-0.0471035055816
2017/07/09/10:14:43.453781,486812,1499566486,259743804,,0.781709543536,0.396511607494,0.164962459817,0.624318275864,0.778638089399,0.0550401817409,0.0303314119873,0.00278005975947,-0.030674895866,-0.0132400434674,0.00124817811098,0.0267062208168,-0.0521605339518,4.84637308121,1.86793649197,-0.683185875416,-0.633013010025,1.96402299404,-0.0340766049922
2017/07/09/10:14:43.464473,486813,1499566486,269764772,,0.781596968082,0.396382973319,0.16462443524,0.624525567061,0.778480234069,0.0551215069779,0.0299659927138,-0.011872238682,-0.0380434147939,-0.0293167223869,-0.00513539968655,0.0579930774284,-0.0678193259671,4.96415710449,1.97949767113,-0.468406796455,-0.728178441525,2.0199201107,-0.00688479468226
2017/07/09/10:14:43.473742,486814,1499566486,279750408,,0.781322876354,0.396165860474,0.164490427356,0.62464235613,0.778414186763,0.0548054691909,0.0298268556984,-0.000942508937603,-0.0393815486549,-0.030518857519,0.0045460980394,0.0317525301263,-0.0784294997511,5.04229593277,2.04055213928,-0.297640264034,-0.746164381504,2.09794449806,-0.0198588147759
2017/07/09/10:14:43.483719,486815,1499566486,289746988,,0.781202393079,0.395180648837,0.16404471632,0.625433915851,0.777827595322,0.0543238500159,0.0294205400814,-0.00955151886201,-0.051515337213,-0.0343824735865,-0.00671564399517,0.0623719665174,-0.116304086248,5.50638055801,2.11023950577,-0.267090529203,-0.812194287777,2.2659573555,-0.0349670611322
2017/07/09/10:14:43.494026,486816,1499566486,299748268,,0.781101553722,0.396160539634,0.163497768875,0.625226940018,0.777990731212,0.0545917128883,0.0290075939843,-0.00976867660015,-0.0291989645438,-0.0360417997695,0.000416851799776,0.0633538032816,-0.092213238443,5.20436525345,2.18165421486,-0.275435715914,-0.812046647072,2.13787055016,-0.0333838872612
2017/07/09/10:14:43.503937,486817,1499566486,309742905,,0.781380659483,0.394811239932,0.163619186761,0.626452225934,0.777017741465,0.0544015585809,0.0290087658145,-0.00532538848857,-0.0318749635486,-0.0321976643097,-0.00410239521898,0.0524255381237,-0.0894857378664,4.99032688141,1.86908769608,-0.200268402696,-0.723451137543,2.03766727448,-0.0441708266735
2017/07/09/10:14:43.513954,486818,1499566486,319750854,,0.781045602751,0.394465165332,0.162765381702,0.627063946074,0.776574408464,0.0537811783784,0.028819793633,0.00544877817002,-0.034052317748,-0.0190121069279,0.00644300903092,0.0216449248257,-0.154155275972,5.34480857849,2.04406523705,-0.0664639249444,-0.794948577881,2.1882686615,-0.0242396276444
2017/07/09/10:14:43.523957,486819,1499566486,329755367,,0.780899199778,0.393361066079,0.162422091825,0.627790844741,0.776022083962,0.0531953068531,0.0289592781699,-0.000271413900021,-0.0369750756978,-0.0225783068374,-0.0013276234687,0.0314633761419,-0.186917112972,4.54148435593,1.88525164127,0.243131309748,-0.778192162514,1.8961070776,-0.0509073622525
2017/07/09/10:14:43.533851,486820,1499566486,339765289,,0.780996091492,0.39293991863,0.162520902464,0.627985285866,0.775867563746,0.0531819244579,0.0289082544151,-0.0074550307431,-0.0657512871742,-0.0317389978853,-0.0309511113837,0.0586054900338,-0.137987401981,5.46428108215,1.98785090446,0.270491808653,-0.788207054138,2.27493810654,0.0394160188735
2017/07/09/10:14:43.543785,486821,1499566486,349743985,,0.781363450766,0.392188607559,0.16264802592,0.62829265682,0.775592112752,0.0532571969145,0.0294768214025,-0.00249274426194,-0.0693302029776,-0.0385637744423,-0.0113829515999,0.0559962995421,-0.110258116708,5.03652334213,2.1450252533,0.0688517168164,-0.788851559162,2.08932614326,-0.0215103551745
2017/07/09/10:14:43.554004,486822,1499566486,359775877,,0.781473449383,0.392069089118,0.162557895871,0.62837208703,0.775525542678,0.0533847151376,0.0293040114068,0.00374337040979,-0.0685082695977,-0.0240115189132,-0.0284864506694,0.0238581021233,-0.0671455822549,4.63033390045,1.99917864799,0.447734475136,-0.775587499142,1.9674539566,-0.0257204063237
2017/07/09/10:14:43.563987,486823,1499566486,369749297,,0.781258656833,0.391366820569,0.162016541777,0.629160787162,0.77493008274,0.053011077156,0.0288079235736,0.0118266918125,-0.0663298307586,-0.00807561645933,-0.0320541730575,-0.00248661637256,-0.0743695634348,4.74569034576,1.90727710724,0.557023286819,-0.731166183949,2.0036687851,-0.00810754857957
2017/07/09/10:14:43.573858,486824,1499566486,379764755,,0.781472068807,0.389832239628,0.162055274879,0.629444240851,0.774725651898,0.0523379512194,0.0293402592626,0.0121160923077,-0.108457169526,-0.0126919596299,-0.0580912877146,0.0199354681907,-0.137008356344,4.4911866188,1.79899561405,0.490152001381,-0.669101119041,1.88760316372,-0.00690210796893
2017/07/09/10:14:43.583750,486825,1499566486,389745003,,0.781332634713,0.389906479151,0.161752232043,0.629598722111,0.774600733814,0.052466524913,0.0290932303966,0.014461177464,-0.0885216975653,-0.0105153767727,-0.0291960780393,0.0157503043792,-0.14064003947,4.99408102036,1.90121042728,0.437433749437,-0.758479833603,2.0382900238,-0.0193614624441
2017/07/09/10:14:43.593906,486826,1499566486,399758126,,0.782535021811,0.387923052978,0.16209783964,0.630573369977,0.77374840755,0.0528328056007,0.0299886902403,0.00636075692059,-0.0840878173592,-0.0113028256954,-0.0263682728828,0.0265215355789,-0.121542911763,4.4552397728,1.798812747,0.473697006702,-0.701688289642,1.82968425751,-0.0250401012599
2017/07/09/10:14:43.603750,486827,1499566486,409750105,,0.782234056865,0.387181807095,0.161983026227,0.630746263696,0.773642388414,0.0522876173855,0.0300434810118,0.0138836474318,-0.0990836417805,0.00467842610165,-0.0288219290621,0.0021470798357,-0.14203818535,4.39101982117,1.56516695023,0.456065475941,-0.573289811611,1.82945728302,0.0389794148505
2017/07/09/10:14:43.614031,486828,1499566486,419757146,,0.782151749147,0.38692879242,0.16170442198,0.631265415287,0.773233880187,0.0522855928567,0.0296573561406,0.0151785762923,-0.120497413977,-0.0108549999262,-0.059741626814,0.00631073492776,-0.137574166043,4.07486248016,1.0992307663,0.458855390549,-0.269899964333,1.71450006962,0.109773203731
2017/07/09/10:14:43.623990,486829,1499566486,429746320,,0.782556903264,0.385503249305,0.161649374307,0.632042951835,0.772591455367,0.0521469653742,0.030080627196,0.0263915798522,-0.126175109175,-0.00548430293331,-0.050459531529,-0.0164142713392,-0.155497173184,4.296459198,0.805620968342,0.241205468774,-0.171244055033,1.81706941128,0.112033948302
2017/07/09/10:14:43.634060,486830,1499566486,439747372,,0.782507453732,0.384341452833,0.161727896445,0.632609237024,0.772143458263,0.0519287810065,0.0300571921159,0.039192783569,-0.124800302163,0.00767630858757,-0.0317511624081,-0.0423635371795,-0.194029145232,4.22344875336,0.707599937916,0.242658048868,-0.138819754124,1.80762481689,0.131642922759
2017/07/09/10:14:43.644031,486831,1499566486,449744169,,0.782953266514,0.383291678683,0.162052496708,0.633301698035,0.771554336545,0.0519971459091,0.0304821561304,0.0264743613015,-0.133591386765,0.00366031712179,-0.0391976191568,-0.0135406302045,-0.167437545109,4.58329677582,1.05410754681,0.0105613367632,-0.345151692629,1.9413125515,0.0646672323346
2017/07/09/10:14:43.654050,486832,1499566486,459747995,,0.783629768545,0.381207850388,0.162116373823,0.633968141654,0.770987328116,0.0519793782351,0.0310012820833,0.0329064092388,-0.137979468177,0.00895122753248,-0.033237467478,-0.0296199753456,-0.193684870513,4.78922843933,1.39670860767,-0.0975588411093,-0.494187891483,2.01273036003,0.0683979392052
2017/07/09/10:14:43.663992,486833,1499566486,469752622,,0.78393745048,0.380351031965,0.162495697787,0.634632134489,0.770428800797,0.0518836106197,0.0314580311775,0.0320245408274,-0.138887767835,0.0149182274401,-0.0289039393635,-0.0255249471989,-0.191580594826,4.592648983,1.64816045761,-0.324404448271,-0.596817851067,1.90663731098,0.0322401896119
2017/07/09/10:14:43.673707,486834,1499566486,479743923,,0.784105953949,0.378024739807,0.162376634741,0.635870855834,0.769429451188,0.0516989009835,0.0312057363675,0.0384188282275,-0.148360495214,0.0131025336729,-0.0195322761174,-0.0363367360186,-0.220548557565,4.31291246414,1.47952818871,-0.60568022728,-0.499146521091,1.75595128536,0.0710092708468
2017/07/09/10:14:43.683990,486835,1499566486,489748944,,0.78436716569,0.376809160463,0.162490072553,0.636670196957,0.76875451056,0.0517072424313,0.0315265583498,0.0363158003843,-0.164056464361,0.0136693856693,-0.0425013923485,-0.027834041945,-0.212480426529,4.34751462936,1.63583922386,-0.852232992649,-0.560532450676,1.73169457912,0.0314795784652
2017/07/09/10:14:43.694073,486836,1499566486,499754750,,0.785306656499,0.3740383307,0.162711120606,0.638137225032,0.767501519153,0.0519315613682,0.0320220714537,0.0320561671943,-0.173070339363,0.0108206664911,-0.0450141141958,-0.0151889807083,-0.243836225543,4.17973709106,1.48804819584,-0.974139392376,-0.47902700305,1.7051640749,0.0827832520008
2017/07/09/10:14:43.703788,486837,1499566486,509743781,,0.785546565572,0.373357498407,0.163017516183,0.638491779685,0.767200148303,0.0517486395075,0.0324693398157,0.0350422056494,-0.183585572977,0.0111043942705,-0.0290986429802,-0.0197088481783,-0.271895248596,4.6273188591,1.40858697891,-1.07068383694,-0.496417790651,1.89237558842,0.0676525011659
2017/07/09/10:14:43.713888,486838,1499566486,519750766,,0.786210597679,0.371163506036,0.163633331055,0.639288940783,0.766494625223,0.0521569020283,0.0327917255988,0.0377298920376,-0.208880037014,0.0192732662866,-0.0342707151879,-0.034274646818,-0.272630969138,4.81174945831,1.33492839336,-1.14592921734,-0.52197176218,1.9601919651,0.0239219665527
2017/07/09/10:14:43.723691,486839,1499566486,529743542,,0.786433263614,0.368646349251,0.163052027345,0.640901243309,0.765167330011,0.0517540953864,0.0329555309266,0.0460814248859,-0.201282571898,0.0250432243325,-0.0225315955793,-0.0502815377934,-0.257646784521,4.8153886795,1.33919632435,-1.31307339668,-0.547101676464,1.94668793678,0.0344495624304
2017/07/09/10:14:43.733712,486840,1499566486,539744533,,0.786052202176,0.367061493897,0.162888384647,0.641437416341,0.764769977358,0.0511332540374,0.032715638161,0.0422702900281,-0.198664696548,0.0128427119738,0.00350253276757,-0.034657787001,-0.313930287808,5.09204435349,1.44272041321,-1.31931352615,-0.631006121635,2.03775787354,0.016820140183
2017/07/09/10:14:43.744017,486841,1499566486,549744215,,0.786700080635,0.36504821876,0.163127276871,0.642785853702,0.763612900638,0.0513145422216,0.0329924539177,0.0216532838537,-0.175572459259,0.00286009724302,-0.00785662267536,0.00526891319837,-0.256574827739,4.95224761963,1.47951567173,-1.3068779707,-0.717454910278,1.9580848217,-0.0051102489233
2017/07/09/10:14:43.753688,486842,1499566486,559742868,,0.787120931434,0.363492584258,0.163659099274,0.643625122068,0.762874126954,0.0514950085045,0.0334369969723,0.033280196258,-0.209353072604,0.00701292185922,-0.0262122005363,-0.0163378434561,-0.298203666369,4.86048030853,1.31930994987,-1.2114289999,-0.530781209469,1.95157277584,0.0489144399762
2017/07/09/10:14:43.764030,486843,1499566486,569743349,,0.787240305268,0.361290754904,0.163476748038,0.644598679029,0.762069624438,0.0512053359104,0.0334730350695,0.0416200546473,-0.208408404596,0.0123732661969,-0.0178810859124,-0.0318407489453,-0.285722868771,5.30656147003,1.29265570641,-1.33663523197,-0.560784637928,2.15135836601,0.0375482775271
2017/07/09/10:14:43.774156,486844,1499566486,579747590,,0.787681436287,0.358835485923,0.163354964374,0.646207064029,0.760708333165,0.051113247745,0.0335663247454,0.0338988574081,-0.207299235469,0.00573522024904,-0.0140984799524,-0.0240559182722,-0.26761337112,5.22611188889,1.40881025791,-1.51229941845,-0.559102773666,2.07188892365,0.0458613634109
2017/07/09/10:14:43.784017,486845,1499566486,589744556,,0.787750208342,0.35766891978,0.163524932359,0.646524609604,0.760432507311,0.0512146472317,0.0335468465061,0.0346519257568,-0.22157153742,0.0173706224124,-0.0193008571725,-0.0192234054328,-0.310039622529,5.40530252457,1.42651605606,-1.56423676014,-0.54270452261,2.11273550987,0.0354349575937
2017/07/09/10:14:43.793719,486846,1499566486,599760102,,0.788259510865,0.355524360064,0.163722368459,0.647905614127,0.759232557366,0.0512686415273,0.033996550025,0.018115033075,-0.208024467579,0.00778671797974,-0.0230776658421,0.00456985742504,-0.270853875206,5.88963031769,1.34050822258,-1.78790414333,-0.464627891779,2.27814459801,0.0759054943919
2017/07/09/10:14:43.803764,486847,1499566486,609752052,,0.788751808462,0.354115912885,0.163860043863,0.648451427202,0.758743664753,0.0515851817848,0.034025972104,0.0236585092158,-0.220933815917,-0.00120879902809,-0.00676891342921,0.00993973036748,-0.31785714212,5.85974645615,1.32365441322,-1.74994432926,-0.419674754143,2.28135180473,0.117946863174
2017/07/09/10:14:43.813816,486848,1499566486,619749528,,0.788597096023,0.350984561285,0.163834639707,0.649983640354,0.757484879578,0.0508340691177,0.033967954008,0.0368241503341,-0.223629029308,0.0133347756799,0.00183802791742,-0.0213852170446,-0.302971726381,6.0333738327,1.18607807159,-1.73037445545,-0.357787162066,2.35465240479,0.108587235212
2017/07/09/10:14:43.823821,486849,1499566486,629743829,,0.788699952129,0.34947471498,0.163644825298,0.650901307011,0.756688528125,0.0510992854173,0.033746451155,0.0310693966303,-0.218602299641,0.0120732568684,0.0266252481529,-0.0159004506493,-0.303094325356,6.36117744446,1.48228001595,-1.71497786045,-0.595990359783,2.49037098885,0.0533196441829
2017/07/09/10:14:43.833806,486850,1499566486,639766733,,0.789290210379,0.346440136999,0.163868255348,0.652341840776,0.75543826234,0.050984343227,0.034113799428,0.0288728162312,-0.227348278809,0.00467285112554,0.00288988291526,-0.00924484270397,-0.31435962066,6.27403020859,1.38561522961,-1.72844409943,-0.547499418259,2.47794151306,0.0779214799404
2017/07/09/10:14:43.844097,486851,1499566486,649742539,,0.789601922932,0.344004255482,0.16361401845,0.653854411103,0.754130284921,0.0510934771263,0.0339319766671,0.0225464547401,-0.226007297623,-0.00446635408217,0.0288899180493,0.0074254670515,-0.341885688113,6.04623031616,0.967536568642,-1.69733345509,-0.325419664383,2.39769077301,0.159631803632
2017/07/09/10:14:43.854085,486852,1499566486,659759148,,0.789411952614,0.342105416838,0.16361436059,0.654688979627,0.753430917549,0.05078910051,0.0338328199418,0.0359958908489,-0.218312931398,0.0140912877554,0.0328961410344,-0.0301179185705,-0.31768076961,5.99766111374,1.11977362633,-1.82471346855,-0.462116211653,2.3668718338,0.0875117778778
2017/07/09/10:14:43.864085,486853,1499566486,669743819,,0.790338980922,0.340063954246,0.164098311519,0.65608609155,0.752152351457,0.0514440614469,0.0342255637577,0.0250749601188,-0.247570388131,-0.000454348703247,0.000901368384684,0.00628056856526,-0.360993688495,6.07844543457,0.79846996069,-1.82492411137,-0.321649938822,2.39792013168,0.116929650307
2017/07/09/10:14:43.873946,486854,1499566486,679742648,,0.790889741226,0.337693525008,0.164503478276,0.657058751166,0.751272876148,0.0515336949347,0.0347439399945,0.0285770588651,-0.253977698049,0.00148737684249,-0.00547838576703,0.00265468061069,-0.347567671503,5.78371953964,0.88492846489,-1.81662046909,-0.280613929033,2.32323241234,0.140034258366
2017/07/09/10:14:43.883887,486855,1499566486,689748428,,0.790791537885,0.335303693025,0.164240964925,0.65829730114,0.750215438071,0.0511826033443,0.0346670002654,0.03219833928,-0.258497881328,0.00724714704256,-0.00593922000117,-0.0175388364951,-0.357487814146,6.17670631409,1.07859480381,-1.90630602837,-0.442980974913,2.42701601982,0.0881299301982
2017/07/09/10:14:43.893929,486856,1499566486,699750229,,0.79057707337,0.332498122603,0.163687508254,0.659832800149,0.748927603131,0.0507090984139,0.0340104168468,0.022353644566,-0.253578863272,-0.00403185212397,0.00546000394604,0.00988158716389,-0.355786677858,5.84061717987,0.990596413612,-1.8446508646,-0.433558672667,2.27489542961,0.0932162553072
2017/07/09/10:14:43.903910,486857,1499566486,709743338,,0.790834442668,0.329705028788,0.163934946206,0.661136471478,0.747760147038,0.0506133553292,0.0345198036881,0.0166256909634,-0.273562420666,-0.00441573503405,0.00247529765848,0.0225682824416,-0.381448995014,6.39424085617,1.09182965755,-1.89132642746,-0.532273888588,2.46487975121,0.0456847399473
2017/07/09/10:14:43.913768,486858,1499566486,719748120,,0.791363807609,0.327755248227,0.164248643176,0.662411734749,0.746598533475,0.0510665313144,0.0345475449135,0.0170611571425,-0.271146255694,-0.00452096481308,0.00797947973579,0.0198028418825,-0.375099119359,6.52745819092,0.891066789627,-1.82094764709,-0.320996671915,2.51657414436,0.154769450426
2017/07/09/10:14:43.924058,486859,1499566486,729749179,,0.790964906999,0.325509924942,0.163686779375,0.663391795868,0.745788420878,0.0504618818608,0.0341255760116,0.0211997079575,-0.260162131112,0.00027982599611,0.00692233973935,0.00199946827513,-0.365798645315,6.50309038162,0.873117804527,-1.75935733318,-0.387914776802,2.51852822304,0.109245851636
2017/07/09/10:14:43.933878,486860,1499566486,739742578,,0.791756922215,0.322527155002,0.163996475991,0.665072178279,0.744227937167,0.050968236331,0.0347277137737,0.00716034966937,-0.236994284198,-0.00660455466897,0.0114073684895,0.0260328237978,-0.320315354094,6.72846078873,0.866296887398,-1.67166531086,-0.363029837608,2.60633134842,0.124039873481
2017/07/09/10:14:43.944030,486861,1499566486,749743294,,0.791836408497,0.320397214416,0.163782154587,0.666333882925,0.743127528056,0.0507954435531,0.034357770966,0.0147853660667,-0.259365324628,0.00043662372472,0.00725996394608,0.00935000443645,-0.356538445157,6.5993475914,0.71279245615,-1.59532618523,-0.311590850353,2.57988548279,0.109648033977
2017/07/09/10:14:43.953781,486862,1499566486,759746132,,0.79216302285,0.317022137778,0.164226776793,0.667625958124,0.741957443073,0.0504697439403,0.0350362334586,0.0359456809796,-0.28603531694,0.00615849358515,0.00773400736576,-0.0244458598223,-0.403696331855,6.76148366928,0.567056834698,-1.67460858822,-0.249255895615,2.63837528229,0.123335748911
2017/07/09/10:14:43.964169,486863,1499566486,769742710,,0.792395513991,0.314308205637,0.163873757496,0.669023344177,0.740695657954,0.0504658127218,0.0350843124597,0.0227964273891,-0.279635677844,-0.00175929344478,-0.0170719647659,-0.00456966202693,-0.363720365383,6.25584077835,-0.350125908852,-1.43673717976,-0.14349706471,2.44618058205,0.130101308227
2017/07/09/10:14:43.974206,486864,1499566486,779748257,,0.792610488463,0.311648296327,0.163980998152,0.670769214045,0.739117766579,0.0504245432647,0.0350849547965,0.0171549664396,-0.276411458397,-0.00304790077736,-0.0156554508495,0.00464352116417,-0.375784317294,5.92789077759,0.0951894745231,-1.60226273537,-0.257824122906,2.28846120834,0.107204973698
2017/07/09/10:14:43.983752,486865,1499566486,789743966,,0.79281063195,0.309274076585,0.164137463339,0.672077205866,0.737909072275,0.0506807014002,0.0351268688576,0.0225122006884,-0.271809652433,0.00689670316334,0.012195080493,-0.00791485556651,-0.390592096155,6.0765838623,0.469486951828,-1.46890318394,-0.502075016499,2.3305542469,0.0500847287476
2017/07/09/10:14:43.993939,486866,1499566486,799752857,,0.792871304639,0.306039138308,0.164430041162,0.67310233485,0.736979489137,0.0503026993157,0.035554435069,0.0050536219109,-0.283690919522,-0.00427688636573,-0.0022090838398,0.0305338050599,-0.380495166347,6.38825464249,0.243558347225,-1.45925474167,-0.375543564558,2.4397623539,0.0885761976242
2017/07/09/10:14:44.003801,486867,1499566486,809750543,,0.793071884004,0.303163332456,0.163663753113,0.6749764914,0.735287619502,0.0501212639109,0.0353088029727,0.0195001384404,-0.28824149389,0.00848717504365,-0.020047758911,-0.0125976488707,-0.374752826935,5.98840856552,0.0437870770693,-1.66675376892,-0.319784760475,2.3139731884,0.0717588439584
2017/07/09/10:14:44.013869,486868,1499566486,819749819,,0.793175625151,0.300331859841,0.163900045213,0.676381409459,0.733996140024,0.0500078769415,0.0354551493079,0.0237966359113,-0.284369206523,0.00640814587593,0.00400683840163,-0.0248573784198,-0.399972819389,6.34135103226,0.131640076637,-1.23104262352,-0.381532341242,2.48832154274,0.0742648988962
2017/07/09/10:14:44.023668,486869,1499566486,829743842,,0.793483442314,0.297939959977,0.16399838069,0.677369093447,0.733061937826,0.0501725511421,0.0356934401013,0.0207422682476,-0.277896432398,0.0102237200708,0.00461860470704,-0.0215336063634,-0.386123518487,5.53993606567,-0.0191010572016,-1.29563188553,-0.281984418631,2.18182754517,0.0540930889547
2017/07/09/10:14:44.034159,486870,1499566486,839743867,,0.793387054724,0.295854065836,0.163853402777,0.678376864173,0.73214422804,0.0500829678106,0.0355155717626,0.00596013083441,-0.299799595463,-0.00197686891239,-0.0182502601053,0.0123964424089,-0.406450254783,4.8212723732,-0.0350135602057,-0.977435648441,-0.282292813063,1.91744577885,0.0658196285367
2017/07/09/10:14:44.043762,486871,1499566486,849742989,,0.793764161569,0.29255685126,0.164054282286,0.680265800035,0.730364755588,0.0500921313718,0.036007547432,0.0195345083466,-0.274246837044,0.0165981438858,-0.00345504371858,-0.0298573084182,-0.352206909498,3.35616898537,-0.189350128174,-0.409888803959,-0.211394280195,1.41699576378,0.0562861487269
2017/07/09/10:14:44.053706,486872,1499566486,859749980,,0.794028366963,0.290495714832,0.164611978084,0.681035222279,0.729629253737,0.0502040957341,0.0362177702009,0.0233269995714,-0.271239867527,0.0183790487715,-0.00843858067927,-0.0415549308412,-0.372615775894,2.93615150452,-0.218842342496,-0.112935803831,-0.30592033267,1.286470294,0.0158557072282
2017/07/09/10:14:44.064479,486873,1499566486,869743797,,0.794349261439,0.287440352832,0.164788120586,0.682553679654,0.728173112741,0.0504857667886,0.0365455828084,0.0325889510867,-0.296265864799,0.0187027344266,-0.0100806885967,-0.0611077157176,-0.40165927261,2.95109510422,-0.471248984337,-0.00349743943661,-0.179777443409,1.31654310226,0.0514544248581
2017/07/09/10:14:44.074064,486874,1499566486,879750068,,0.794738192741,0.283737995707,0.164651413682,0.684290433139,0.726530780212,0.0502970632039,0.0370112679118,0.0251022613,-0.291538850112,0.00112138995685,0.00594853840686,-0.0406377051981,-0.418843324509,3.11652708054,-0.489427149296,-0.19356623292,-0.197215825319,1.40716874599,0.0343130975962
2017/07/09/10:14:44.084020,486875,1499566486,889748179,,0.794985695173,0.281400230428,0.164789835125,0.685679496904,0.725186845118,0.0506178534737,0.0372223065369,0.0218479296809,-0.297137970298,0.0123360914987,0.00103476658845,-0.0378645733333,-0.414169769403,2.60926127434,-0.733356654644,-0.118753179908,-0.0152838379145,1.22871232033,0.101637095213
2017/07/09/10:14:44.093836,486876,1499566486,899750530,,0.79454608414,0.278393185872,0.164835433152,0.687296714235,0.723704611686,0.0499608059054,0.0371319202148,0.0183691295903,-0.308549379463,0.015635084144,-0.0112294468556,-0.033881149786,-0.417548476183,2.20569324493,-0.599436640739,-0.261438667774,-0.0700964853168,1.04648518562,0.0247969813645
2017/07/09/10:14:44.103784,486877,1499566486,909744401,,0.795621365414,0.276243482986,0.165416554885,0.688069803464,0.722883807462,0.050628069659,0.0378912263293,0.0138239978063,-0.290301613511,0.0154801659442,-0.0199141852207,-0.027071104562,-0.383857890973,3.10496139526,0.821888744831,-0.22869721055,-0.797803223133,1.38187801838,-0.153634250164
2017/07/09/10:14:44.113846,486878,1499566486,919750873,,0.795715956179,0.273181393238,0.16506718989,0.689770010483,0.721253650127,0.0505636475553,0.0381290225872,0.0337796689791,-0.281312800759,0.0172346161761,-0.00708256563403,-0.0651455889857,-0.388218382201,3.42030549049,2.01479887962,-0.557880461216,-1.41778099537,1.51005101204,-0.307019412518
2017/07/09/10:14:44.124052,486879,1499566486,929744054,,0.79576291041,0.27074533153,0.165549194629,0.690903777422,0.720152334764,0.0506563649636,0.0382951402461,0.0326281093429,-0.283741779646,0.0179415176922,-0.0309233476227,-0.0695770687561,-0.379033220369,2.41308021545,1.84961426258,-0.549175679684,-1.23938119411,1.15181005001,-0.230383828282
2017/07/09/10:14:44.134063,486880,1499566486,939750621,,0.796158772443,0.267041754044,0.165673315715,0.69243392621,0.718634193037,0.0507632976324,0.0390287335885,0.0151073735564,-0.301116509709,0.0118262972777,-0.0421324038216,-0.0354831423754,-0.407324205878,1.86452805996,0.97371083498,-0.561570286751,-0.813735544682,0.912414312363,-0.128376841545
2017/07/09/10:14:44.143993,486881,1499566486,949743604,,0.796324146385,0.264766289443,0.165722406583,0.6937288101,0.717383416745,0.050743415117,0.039070157888,0.0196988633023,-0.308416868964,0.00994711069112,-0.0209148737109,-0.0458043167633,-0.401260787949,1.04889464378,0.221472412348,-0.574305176735,-0.236908167601,0.591695666313,0.042351052165
2017/07/09/10:14:44.153824,486882,1499566486,959742789,,0.796754242447,0.26251843813,0.166049278991,0.694603033831,0.716483194012,0.0509550808723,0.0397748390975,0.0260068189729,-0.301682315447,0.0158496876118,-0.0536982760128,-0.073210135888,-0.366312685187,0.637024819851,-0.0433721914887,-0.534072816372,0.0357161387801,0.410245507956,0.0868506580591
2017/07/09/10:14:44.163796,486883,1499566486,969744166,,0.796603615137,0.258912343862,0.165869435908,0.696255655687,0.714897334062,0.0504180468332,0.0400984317504,0.025789487423,-0.294479323486,0.0240620252383,-0.0280022057584,-0.0815493057616,-0.397408050333,-0.0245578549802,-0.625710070133,-0.646183550358,0.177282214165,0.118353195488,0.0875219330192
2017/07/09/10:14:44.173898,486884,1499566486,979752814,,0.797003064734,0.256440802594,0.165936234272,0.697548266891,0.713583289555,0.0510127116552,0.0402865669421,0.0215749440768,-0.284671246042,0.00576414220401,-0.0313914425103,-0.0633946493473,-0.367326085794,0.0625934451818,-0.370388656855,-0.691101253033,0.155839651823,0.125835642219,0.127088427544
2017/07/09/10:14:44.183833,486885,1499566486,989751426,,0.797561668515,0.254448707222,0.166418633475,0.698793615525,0.712291130666,0.0516018724425,0.0408175799935,0.0164190316324,-0.274702875236,-0.00542529650684,0.0178278650338,-0.0496050798827,-0.385105294574,0.177992790937,-0.104986384511,-0.675763309002,0.0572545751929,0.139265403152,0.098684810102
2017/07/09/10:14:44.193811,486886,1499566486,999749737,,0.797462068545,0.2510213545,0.166222746124,0.700121027209,0.710992290107,0.0514240966425,0.0409398699628,0.0286906205674,-0.267083208661,0.0132455027102,0.0215316336334,-0.0811562549935,-0.388758201169,-0.794100284576,-0.563618242741,-0.662582814693,0.111356019974,-0.239526838064,0.11011993885
2017/07/09/10:14:44.203654,486887,1499566487,9744964,,0.797336650256,0.248269663823,0.165848994164,0.701246465891,0.709898260452,0.0510403866007,0.0411428343511,0.017692103373,-0.3167476698,0.00350032739688,-0.02001245455,-0.0559639649661,-0.422126745629,-1.40632104874,-0.224435448647,-0.854518175125,-0.0542029365897,-0.458974272013,0.0177649315447
2017/07/09/10:14:44.213900,486888,1499566487,19749816,,0.798023473356,0.245874540594,0.166415318958,0.702491538616,0.70858190568,0.0516638604243,0.0418110827736,0.0168941053477,-0.296025301644,-0.00467049460485,-0.0237629492496,-0.0550346442763,-0.381118166502,-1.74006092548,0.151408702135,-0.416050732136,0.00712342653424,-0.540982186794,0.0709792226553
2017/07/09/10:14:44.223702,486889,1499566487,29743797,,0.797460477375,0.241951690118,0.165211558282,0.70423926278,0.706935809836,0.0505185540171,0.0416736994996,0.0218948288365,-0.283761677675,-0.000328592399177,-0.0127038405939,-0.0702581494714,-0.375448163496,-2.33054232597,-0.584695518017,-0.341151893139,0.213323011994,-0.711269140244,0.127898782492
2017/07/09/10:14:44.234200,486890,1499566487,39753968,,0.797464637657,0.239240564898,0.165503943976,0.705515500313,0.705641389104,0.0507390441586,0.041757133511,0.00828676587104,-0.309044371994,-0.00364546250351,-0.0279665016093,-0.0306937941542,-0.416470834605,-2.87321782112,-0.501659154892,-0.0010514180176,0.196829244494,-0.847149729729,0.0850185155869
2017/07/09/10:14:44.244177,486891,1499566487,49743999,,0.797828885555,0.236809472004,0.166031237606,0.706905500372,0.70419995547,0.0510715953029,0.0421749737763,-0.0035708590305,-0.30109322412,-0.00623459513309,-0.0175586838859,0.00119906644369,-0.402558933964,-2.3740196228,-0.124054774642,0.157698720694,0.0496708825231,-0.675751924515,0.0665721222758
2017/07/09/10:14:44.253695,486892,1499566487,59742688,,0.797401121491,0.234325606927,0.165427299387,0.708287490983,0.702857119604,0.0507749221834,0.0417445423554,-0.0255893739992,-0.295830194425,-0.013239380051,-0.0107310035765,0.050218955445,-0.402803609963,-2.72505021095,0.0988195538521,0.374457836151,-0.0054400600493,-0.862983822823,0.0620405972004
2017/07/09/10:14:44.264099,486893,1499566487,69746615,,0.797556172949,0.231044199937,0.165787869622,0.709607122894,0.701514455934,0.0504959927057,0.0422534492533,-0.0118935585457,-0.298112291832,-0.00341476399156,-0.000303391035341,0.0215295408579,-0.402163076919,-2.85232949257,-0.162829965353,0.865052044392,-0.00532421749085,-0.958403348923,0.0235818549991
2017/07/09/10:14:44.274081,486894,1499566487,79749080,,0.796800058244,0.227969684728,0.165549211867,0.711068292353,0.700107384312,0.0497435733724,0.0419179072765,-0.0196864163607,-0.305497933874,-0.0107726363559,-0.00636750602337,0.0392421054934,-0.431790171528,-3.82674264908,-0.615793466568,1.18876814842,0.101454608142,-1.31566393375,0.0411139503121
2017/07/09/10:14:44.283827,486895,1499566487,89744488,,0.797213437757,0.224338252047,0.165624408904,0.71281222637,0.698280410023,0.0500200064582,0.0424405215509,-0.0145252285332,-0.31984110856,-0.00772370652414,-0.0182461898085,0.0307101653834,-0.441475675512,-4.44404125214,-1.05957818031,1.36774671078,0.237337902188,-1.64366769791,0.0437707863748
2017/07/09/10:14:44.296027,486896,1499566487,99748340,,0.797426620877,0.221220023975,0.165906540479,0.714423928835,0.696598819526,0.0501206157382,0.0428539195444,-0.00420870139904,-0.344919675177,0.00093706417445,-0.0140373991807,-0.00883991756252,-0.463030084584,-4.82028150558,-0.706943929195,1.46255528927,0.173934176564,-1.7668030262,0.052542027086
2017/07/09/10:14:44.303980,486897,1499566487,109744179,,0.797134929512,0.218310787576,0.165570563535,0.715812507719,0.695184408155,0.050153976344,0.0426106924105,-0.00405196610198,-0.351341261372,-0.0033884585305,-0.0178778411341,-0.0138283093959,-0.479720568136,-4.6690826416,0.0955841690302,1.42996358871,-0.0343391150236,-1.66959226131,0.0488685145974
2017/07/09/10:14:44.318385,486898,1499566487,119762001,,0.797252167504,0.215517685085,0.165568157932,0.7170035231,0.693943924552,0.0500572710911,0.042919075599,-0.00563470735909,-0.322127676622,-0.0172429970216,0.00223683507553,-0.00380119590965,-0.449528610187,-5.22341918945,0.231591656804,1.52973675728,-0.0776970982552,-1.8554186821,0.0325156711042
2017/07/09/10:14:44.323956,486899,1499566487,129749207,,0.79745365028,0.212534569847,0.165849724311,0.718562877762,0.692296198594,0.0500526624789,0.0434522162045,0.00859811816581,-0.295616841152,9.44304835102e-06,-0.0169157402662,-0.0454571770428,-0.404745804235,-6.0027756691,0.402601629496,1.78087878227,-0.140119820833,-2.11292862892,0.00408976851031
2017/07/09/10:14:44.333933,486900,1499566487,139743287,,0.796968187892,0.210095465078,0.165270889346,0.719736903763,0.691134677924,0.0494628488408,0.043186489982,-0.0124552074514,-0.302806136476,-0.00559077868487,-0.02539116324,-0.000241441093455,-0.414247687876,-7.01691770554,0.137106508017,2.42000555992,-0.0572836846113,-2.50208640099,-0.00859265401959
2017/07/09/10:14:44.344450,486901,1499566487,149749416,,0.796993824777,0.206458350062,0.165271378055,0.721449351126,0.689334538152,0.0493480947251,0.0435142944068,-0.00543344242176,-0.291940260019,0.00600719476001,-0.0207612213765,-0.0133830165496,-0.392394577937,-7.2623872757,-0.659641742706,2.15758109093,0.159276336432,-2.60336041451,0.0463892370462
2017/07/09/10:14:44.353877,486902,1499566487,159743669,,0.796475826246,0.203764906133,0.165127944199,0.722387737625,0.68840435029,0.0487477743228,0.0433481433162,-0.00787039900655,-0.313598312432,-0.00534711283732,-0.0340403929658,-0.00548908902617,-0.417132296457,-7.4213924408,-0.775187015533,2.17095470428,0.324808657169,-2.6733622551,0.10462898016
2017/07/09/10:14:44.363714,486903,1499566487,169746186,,0.79682940365,0.201646944667,0.165085411154,0.723785046611,0.686900812307,0.0490858850548,0.0435092661785,-0.00705454173013,-0.324045422519,-0.00282277482874,-0.0289767784679,0.00179970551258,-0.435238759904,-6.76526975632,-0.664910078049,1.81631588936,0.336154103279,-2.50411391258,0.11646502465
2017/07/09/10:14:44.373956,486904,1499566487,179743819,,0.796918111976,0.198262727801,0.165332904443,0.725080512939,0.685503436889,0.0490524625912,0.0440129944718,-0.00909185747506,-0.304700186822,0.00289798981634,-0.0295987626882,0.00349859066153,-0.427367508771,-6.61640977859,-0.354612827301,1.5335123539,0.224115744233,-2.47897219658,0.0737158805132
2017/07/09/10:14:44.383804,486905,1499566487,189745799,,0.796292313381,0.195042519053,0.165461109213,0.726315701483,0.68423818276,0.0483090013365,0.0441571219936,-0.0100274947253,-0.268179651202,-0.00963812082474,-0.0190325563201,0.0150332688934,-0.362119641354,-7.30870628357,-0.692918419838,1.76179075241,0.236688017845,-2.73622608185,0.0802761614323
2017/07/09/10:14:44.393964,486906,1499566487,199750103,,0.797055795562,0.191802382989,0.16564363676,0.72782694485,0.682550319247,0.0484979156393,0.0451768992286,-0.00325485214244,-0.28970744632,0.0112681054168,-0.0324095212959,-0.0195108586131,-0.394810189101,-7.32382440567,-0.421605616808,2.04596233368,0.0797993838787,-2.83174490929,0.0267397705466
2017/07/09/10:14:44.403500,486907,1499566487,209745811,,0.797106115083,0.19018200681,0.165631501699,0.728842184397,0.681462548696,0.0489576902093,0.0447326450966,0.0017611494249,-0.295280242711,0.0222778297015,-0.0209308942163,-0.0363134933658,-0.406246807403,-7.62832784653,-0.429462313652,1.89111149311,0.0315032750368,-2.92771530151,0.00496513443068
2017/07/09/10:14:44.413980,486908,1499566487,219748790,,0.796721364162,0.187122895405,0.165649814224,0.73002150055,0.680226847258,0.0481975769107,0.0451335638284,-0.000219624235255,-0.29954172292,0.00977245630592,-0.0456198389897,-0.0236702608907,-0.391631128834,-7.54425144196,-0.172320514917,1.73839914799,0.00104224588722,-2.8955218792,0.0393630489707
2017/07/09/10:14:44.423966,486909,1499566487,229745260,,0.797374589637,0.18476218784,0.166259914678,0.731351211462,0.678707575089,0.0487252397099,0.0459051633739,0.00127999762735,-0.276758526035,0.000816451126578,-0.0372891614235,-0.0178761388454,-0.368507317886,-7.50576257706,-0.274122357368,2.08184051514,0.114808753133,-2.88115882874,0.0601706057787
2017/07/09/10:14:44.433856,486910,1499566487,239751172,,0.79698667035,0.181495173269,0.16567232261,0.732623161996,0.677382560606,0.0480763876078,0.0458784268222,0.0041531194829,-0.302819344116,0.00599265687632,-0.0466634842391,-0.0340632784759,-0.417288588819,-7.68948078156,-0.219721257687,1.98982429504,0.0624875873327,-2.9531519413,0.0516487509012
2017/07/09/10:14:44.443910,486911,1499566487,249743566,,0.796722894062,0.178213521769,0.165917665707,0.73416292277,0.67571611998,0.0477547457456,0.0461737185935,0.0020398535587,-0.317669408838,0.00672058675616,-0.0599908530072,-0.0285865026032,-0.430915564605,-8.65383148193,-0.729948937893,2.30820870399,0.394318223,-3.33303880692,0.143253564835
2017/07/09/10:14:44.453815,486912,1499566487,259746281,,0.796723474912,0.176239619138,0.165330387112,0.73529460837,0.674498877494,0.0474767504993,0.0462499872805,0.0137616073582,-0.309463949562,0.00551815391512,-0.0772074723092,-0.0439145843866,-0.403511428224,-9.03734302521,-0.406905293465,1.64090704918,0.402948141098,-3.49912309647,0.198691338301
2017/07/09/10:14:44.463669,486913,1499566487,269743222,,0.797182805529,0.17331867648,0.165580180699,0.736450090152,0.67318159366,0.0475336264018,0.0469932019879,0.0109585970472,-0.280381660608,-3.68080530343e-05,-0.0596238291922,-0.0340414355395,-0.382537382716,-9.25349617004,-0.290228158236,1.75210428238,0.325258284807,-3.63518476486,0.15721181035
2017/07/09/10:14:44.473912,486914,1499566487,279750706,,0.797859839272,0.169979246291,0.166346204707,0.738125438815,0.671247098724,0.0478723408901,0.0480250768556,0.0110030615261,-0.31390309619,0.000295422774729,-0.0702752096283,-0.0387599239201,-0.423542336804,-8.46095561981,-0.401051402092,1.83097195625,0.309083938599,-3.3176035881,0.120655246079
2017/07/09/10:14:44.484010,486915,1499566487,289747814,,0.798013487425,0.167435036396,0.16600698025,0.739127332045,0.670149311307,0.0474188551235,0.0483956584587,0.021224930622,-0.305951677217,0.00540147119561,-0.0776838247283,-0.0522745356317,-0.408103367907,-8.32662963867,-0.476793676615,1.78188061714,0.315089434385,-3.34024786949,0.1422714293
2017/07/09/10:14:44.494110,486916,1499566487,299751288,,0.798281844974,0.164246777969,0.165950204063,0.740365920939,0.668740966541,0.0473273207968,0.0490300671831,0.0316828726468,-0.301076555173,-0.000972878854108,-0.0651068683962,-0.0665253809483,-0.409110634647,-8.10533905029,0.152767002583,1.32586216927,0.116267584264,-3.27204275131,0.088812276721
2017/07/09/10:14:44.503940,486917,1499566487,309744289,,0.797943567157,0.161318699545,0.165632421666,0.741626024539,0.667391484459,0.0465583198002,0.0491097653859,0.0147304938067,-0.292237909227,-0.0182574599626,-0.0639156610705,-0.0200208683677,-0.402686426743,-8.78884315491,-0.127724930644,1.35755634308,0.202115893364,-3.5166990757,0.160483434796
2017/07/09/10:14:44.514063,486918,1499566487,319744461,,0.798424670765,0.158213900574,0.165420302554,0.743152088533,0.665646593206,0.046547754092,0.0497281897074,0.0226598906742,-0.313003909943,-0.00415687447812,-0.0752436490069,-0.0449387025128,-0.441557594416,-9.42765426636,-0.437545001507,1.15962541103,0.215653494,-3.81052970886,0.139005511999
2017/07/09/10:14:44.523853,486919,1499566487,329742229,,0.798152960227,0.154889948066,0.16467637015,0.744522106221,0.664156308743,0.0458364965676,0.0498221485597,0.0277581745189,-0.314590011845,-0.00867286225916,-0.0848403421283,-0.0526435252566,-0.42284412512,-9.87938404083,-0.641682982445,0.985173642635,0.263820886612,-3.97705888748,0.158111691475
2017/07/09/10:14:44.533855,486920,1499566487,339746563,,0.798912743873,0.152294819567,0.164833146358,0.745713017601,0.662740462028,0.0461817560873,0.0505412779414,0.0350676005018,-0.305355685647,-0.0156128244003,-0.0834487215919,-0.0509475461482,-0.392374733262,-9.65604400635,-0.163368165493,1.20566654205,0.21111831069,-3.99333739281,0.167807266116
2017/07/09/10:14:44.543845,486921,1499566487,349746458,,0.799504210281,0.149659910518,0.164890192623,0.747020150798,0.661220930238,0.0461570252769,0.0511596006126,0.0215583505645,-0.297597261148,-0.027879458523,-0.063574728693,-0.0111434816858,-0.420852311829,-8.86992168427,0.310779541731,1.00779867172,0.0871297717094,-3.75769734383,0.152254194021
2017/07/09/10:14:44.553909,486922,1499566487,359745812,,0.800005395001,0.146571286327,0.165185647819,0.747948622114,0.660119239064,0.0456848312752,0.0522335628314,0.0372392195764,-0.298182054201,-0.0164493291831,-0.0996614134471,-0.0380151170596,-0.405009168092,-8.57649326324,-0.081277102232,0.86482489109,0.179054141045,-3.68977403641,0.131960138679
2017/07/09/10:14:44.563774,486923,1499566487,369743765,,0.799636368665,0.143562225112,0.164251259423,0.749493114728,0.658436175663,0.0449276427577,0.0519940426463,0.0314271330911,-0.312977056788,-0.0298309966393,-0.114142925588,-0.0253885814661,-0.402360566592,-8.61480045319,-0.129606828094,0.885305345058,0.279639154673,-3.70850944519,0.149327367544
2017/07/09/10:14:44.573761,486924,1499566487,379748170,,0.800430324386,0.141475105506,0.164327356146,0.750398824777,0.657336671709,0.045040765533,0.0527392950326,0.039957932411,-0.296830028596,-0.0240029204739,-0.0860834648168,-0.0330893586345,-0.39219560208,-7.87298154831,0.0479175522923,0.864592134953,0.220530390739,-3.50635504723,0.151292219758
2017/07/09/10:14:44.583621,486925,1499566487,389747135,,0.800944321396,0.13891875239,0.163510141031,0.751792065173,0.655740633173,0.0450403063599,0.0527663107737,0.0436811400382,-0.307686071374,-0.0367245543949,-0.0883110510073,-0.0399206531215,-0.417567480851,-7.72275829315,0.478354364634,0.419604092836,0.0311334654689,-3.49048757553,0.0908119678497
2017/07/09/10:14:44.593893,486926,1499566487,399750353,,0.801673647277,0.136139931222,0.163609268822,0.752788718582,0.654498441132,0.0449775466348,0.0540181083545,0.0553850879479,-0.295554008989,-0.0321502982379,-0.0811417385294,-0.0574074811455,-0.405990989299,-7.67818450928,0.466828674078,0.51388001442,-0.0268169827759,-3.45647549629,0.108298897743
2017/07/09/10:14:44.603760,486927,1499566487,409743293,,0.801629445649,0.133068744264,0.162596679625,0.754227048007,0.652894607822,0.0443008826865,0.0539223786925,0.0630216707282,-0.281398870813,-0.0306097981076,-0.0660723277077,-0.0723695463717,-0.411514941962,-8.4457321167,-0.066859036684,0.598499298096,0.0211048461497,-3.72593641281,0.10143455863
2017/07/09/10:14:44.614054,486928,1499566487,419744453,,0.802430346886,0.130094337845,0.162545063522,0.755590600565,0.651255796026,0.0444670230542,0.054510699326,0.0621241031371,-0.295951866669,-0.0432134347023,-0.0682736645165,-0.0627596260509,-0.413361769474,-8.20497322083,-0.101154796779,0.459685981274,0.0276604108512,-3.63584709167,0.124444417655
2017/07/09/10:14:44.623737,486929,1499566487,429749264,,0.803161405447,0.1277665382,0.161780260977,0.756323461899,0.650370067773,0.0441947443487,0.0551400081369,0.0560844841253,-0.297783505201,-0.0474984627562,-0.0793010023502,-0.0456109419812,-0.398433636655,-7.90506792068,0.799214720726,0.518938541412,-0.105744950473,-3.56673455238,0.0932342559099
2017/07/09/10:14:44.633839,486930,1499566487,439744358,,0.804055591644,0.124613965763,0.16142238091,0.758142543106,0.648187061999,0.0446670666325,0.0554821606342,0.0680131423971,-0.28343442131,-0.0449637687581,-0.0846279314415,-0.0611706644754,-0.37238264614,-7.29037666321,-0.347186326981,0.292811244726,0.138404130936,-3.3450293541,0.108422130346
2017/07/09/10:14:44.643722,486931,1499566487,449742379,,0.804208634915,0.120883079292,0.160829472583,0.759324627717,0.646799561296,0.043443160288,0.0564723744325,0.061632652008,-0.315223625023,-0.0494035095731,-0.105570129152,-0.046324127128,-0.428293800624,-6.43926095963,0.205087259412,-0.188606366515,-0.093055292964,-3.05208015442,0.0701954290271
2017/07/09/10:14:44.653868,486932,1499566487,459772142,,0.805831451492,0.119273997072,0.160965749439,0.759859893941,0.646036388017,0.0442396411774,0.057382759489,0.0779657273207,-0.307557139255,-0.0430031413334,-0.109440710627,-0.0753707190734,-0.391246692952,-5.3113899231,1.08139920235,-0.168745860457,-0.296916157007,-2.67368674278,0.0206491742283
2017/07/09/10:14:44.663686,486933,1499566487,469743147,,0.805613571422,0.115760193546,0.159894709599,0.761601885791,0.644059395219,0.0431030076688,0.0573776412903,0.082061141286,-0.269285414827,-0.0455240552495,-0.0944753192828,-0.0648124222998,-0.332751239822,-5.20530462265,0.770747244358,-0.553341031075,-0.287398695946,-2.54856228828,0.0423953905702
2017/07/09/10:14:44.673718,486934,1499566487,479754592,,0.806399458422,0.113123486554,0.159250696585,0.762537753217,0.642905408744,0.0430032013127,0.0579614958723,0.0604795355195,-0.275298923065,-0.0649668147885,-0.0957930801578,-0.0113522077529,-0.354141344292,-5.41986131668,0.25943928957,-0.347788363695,-0.355290681124,-2.60503077507,0.0124034173787
2017/07/09/10:14:44.683957,486935,1499566487,489752422,,0.80699105334,0.109232209178,0.158759471421,0.763731437244,0.641444370561,0.0422930374813,0.0589466726894,0.0641452571322,-0.310141204493,-0.0570912355054,-0.133969637212,-0.0318164166191,-0.363612217904,-5.31108188629,-0.287414968014,0.224630981684,-0.245866924524,-2.48955154419,-0.0171918421984
2017/07/09/10:14:44.694141,486936,1499566487,499750386,,0.807787284403,0.107661686764,0.158821702397,0.764048127314,0.641019900034,0.0420798349159,0.0596090127536,0.0661543058842,-0.306815997051,-0.0378304174942,-0.148538246443,-0.0365540348802,-0.330466745586,-5.68008136749,0.575333058834,0.438023746014,-0.403467923403,-2.57800197601,-0.0391118116677
2017/07/09/10:14:44.704044,486937,1499566487,509744782,,0.808760356592,0.104495556631,0.158335163509,0.765093817463,0.639700781833,0.0418697935854,0.0605085166584,0.0645491423638,-0.249535564706,-0.0511134508504,-0.102238842658,-0.00961931950089,-0.286145829583,-4.47130346298,0.439888656139,0.314915210009,-0.410992950201,-2.12260961533,-0.0716656595469
2017/07/09/10:14:44.713793,486938,1499566487,519746590,,0.80905030564,0.102708877766,0.157615282011,0.766056485884,0.638592374723,0.0415994507202,0.0602222972038,0.0662323797362,-0.252438312177,-0.0526199996354,-0.0892906161721,-0.00661470975632,-0.294266954875,-4.77057313919,0.578783690929,0.119068257511,-0.306285321712,-2.1809566021,-0.00501595437527
2017/07/09/10:14:44.723870,486939,1499566487,529743773,,0.809793120061,0.100167513754,0.15694031954,0.766731352962,0.637753704622,0.0411294416889,0.0608408879919,0.0560223362292,-0.260258067088,-0.0584134660948,-0.10693900856,0.0197870987441,-0.292820417142,-4.54257774353,0.372453808784,-0.177214294672,-0.350616812706,-2.12902760506,-0.0375267788768
2017/07/09/10:14:44.733579,486940,1499566487,539744675,,0.810605571526,0.0978218040162,0.156526308896,0.76765400752,0.636622348704,0.0409024154162,0.0612070443818,0.0621500667123,-0.259554170078,-0.0473378324318,-0.108411462562,0.00477029171291,-0.277471321851,-4.00104379654,0.504663646221,-0.632422506809,-0.410219371319,-1.87247693539,-0.0961847007275
2017/07/09/10:14:44.743868,486941,1499566487,549744817,,0.810499596114,0.095123438133,0.155572082281,0.768209715038,0.63603114311,0.0396186348752,0.0612256685241,0.0603475323858,-0.254942372725,-0.0474770666416,-0.103762569074,0.00899330466529,-0.267183659085,-3.1772518158,0.365034431219,-0.438351720572,-0.404143750668,-1.51634955406,-0.106745131314
2017/07/09/10:14:44.753782,486942,1499566487,559742022,,0.811312231225,0.0929971731005,0.155470855871,0.769528870779,0.634387748991,0.0398195292429,0.0615784545007,0.0594959503975,-0.221871841079,-0.0434545651394,-0.0663577388612,0.0201873549635,-0.269763065075,-3.14790511131,0.211911708117,0.0528233759105,-0.492169767618,-1.51237714291,-0.118820995092
2017/07/09/10:14:44.763984,486943,1499566487,569751968,,0.811734340508,0.0913605834826,0.15514953011,0.770000968007,0.633851614385,0.039240731353,0.0615695152885,0.0600296529313,-0.218758244872,-0.0471549090123,-0.0383087317413,0.0236286214198,-0.30198521936,-2.69104504585,0.317880928516,0.260546863079,-0.275477409363,-1.35403692722,-0.0323811657727
2017/07/09/10:14:44.773786,486944,1499566487,579750586,,0.811934769701,0.0884529432623,0.154591170973,0.771285422375,0.632320414393,0.038561989096,0.0616657422835,0.0600560677357,-0.21872788747,-0.0291428706054,-0.0483621774112,0.0161891213433,-0.277245094954,-1.35056304932,-0.253071844578,-0.114322640002,-0.251809179783,-0.908755779266,-0.100080385804
2017/07/09/10:14:44.783637,486945,1499566487,589743683,,0.812786427132,0.0873384839657,0.154082731942,0.771477275357,0.632088651718,0.038645218058,0.0615897483214,0.0666576165462,-0.22227885982,-0.0262993148953,-0.0643836730054,0.00580214483443,-0.264878718078,-1.09410655499,0.595128417015,-0.743389248848,-0.340776026249,-0.913957059383,-0.118290238082
2017/07/09/10:14:44.794101,486946,1499566487,599747997,,0.813687715799,0.0859121441087,0.154386129779,0.772191441741,0.631190762461,0.0387732136486,0.0617676014524,0.0596893445712,-0.19004188314,-0.0364759926575,-0.0330854947938,0.035601298558,-0.219900224427,-1.31377398968,0.754489600658,-0.734830021858,-0.378591299057,-1.08145976067,-0.0820557773113
2017/07/09/10:14:44.804069,486947,1499566487,609745644,,0.814138453424,0.0832161481325,0.154200260107,0.773034999555,0.630156333277,0.0384125513103,0.0620029111945,0.0688433971931,-0.194582142015,-0.0194202204655,-5.42754620016e-05,-0.00153248631669,-0.250520827545,-1.10467708111,-0.0664799138904,-0.591209292412,-0.278616189957,-0.917206645012,-0.0977166742086
2017/07/09/10:14:44.813871,486948,1499566487,619751806,,0.815217467921,0.0823969837923,0.153894254858,0.773830014356,0.62916356885,0.0390277904659,0.0617830404295,0.0824696517161,-0.178186095028,-0.00950309576611,0.0136926786022,-0.0355567838289,-0.25360375143,-1.1182564497,-0.331136614084,-0.335454493761,-0.0901173353195,-0.864882826805,-0.0121690379456
2017/07/09/10:14:44.823636,486949,1499566487,629744012,,0.81589799805,0.0800302051008,0.153884517263,0.774996751476,0.627707095855,0.0390703858379,0.0619462829031,0.0759786866604,-0.181200164899,-0.0194850709024,0.0281550193963,-0.0257109894115,-0.266106179271,-0.308026134968,-0.492591738701,-0.688568413258,-0.0678456574678,-0.54049628973,-0.0544166564941
2017/07/09/10:14:44.833438,486950,1499566487,639742807,,0.816363073961,0.0783521533169,0.153553839151,0.775654734414,0.626918534957,0.0388650585861,0.0618254860858,0.058229979992,-0.194494791011,-0.0213624856995,0.027121933239,0.0127674553536,-0.278442290181,-0.13649712503,-0.439572930336,-0.414546430111,-0.0784628167748,-0.413856089115,-0.0464689619839
2017/07/09/10:14:44.844178,486951,1499566487,649744318,,0.81715607194,0.0773509845343,0.153818558956,0.776300854891,0.62611943005,0.0389985175884,0.0617297143627,0.0751394483879,-0.155053834323,0.00344099516532,0.0686682550729,-0.0210147010948,-0.259096993424,-0.153364956379,0.0341264419258,-0.224906295538,-0.183452174067,-0.471249043941,-0.0529358349741
2017/07/09/10:14:44.854264,486952,1499566487,659744560,,0.817991576643,0.0759072721529,0.153846956558,0.777038933726,0.625195403334,0.0396368497762,0.061401329498,0.0783242129615,-0.143233908281,0.00280515014753,0.0697109978615,-0.0184224821781,-0.259055984453,-0.0391306653619,0.430095881224,-0.290287822485,-0.389851212502,-0.426303118467,-0.129611164331
2017/07/09/10:14:44.863773,486953,1499566487,669749237,,0.818281064934,0.0752299619167,0.15325274225,0.777717442311,0.624443874348,0.0394771233384,0.0605556310119,0.0561409851983,-0.144523277731,-0.0108867590049,0.0555438341129,0.0296667970508,-0.245936238512,0.0172948781401,0.199798792601,-0.772609829903,-0.271776169538,-0.406058639288,-0.0916398093104
2017/07/09/10:14:44.873825,486954,1499566487,679750773,,0.819010993684,0.0733887725272,0.153956339087,0.778476537148,0.623457319364,0.0394243811566,0.0609997558348,0.0592789259785,-0.167299739653,0.00268314591216,0.0651989868271,0.00159105569223,-0.27170306565,1.02085912228,0.307391196489,-0.797361731529,-0.240089461207,0.0314826481044,-0.110877811909
2017/07/09/10:14:44.883704,486955,1499566487,689744238,,0.819280024967,0.0708884747625,0.153884968362,0.779815863468,0.621810638421,0.0393159047039,0.0607701297236,0.0465959565717,-0.158719196052,-0.0128748577404,0.0640657423574,0.0406436726993,-0.255662306979,1.09471404552,-0.666927278042,-0.308303624392,-0.0460047051311,0.107983447611,-0.0517819821835
2017/07/09/10:14:44.894201,486956,1499566487,699750759,,0.819788549698,0.069836762978,0.153462156503,0.780137100575,0.621456683574,0.0393535242579,0.06024113939,0.032468015996,-0.152607713123,-0.0109016837478,0.0655067082627,0.0678764260242,-0.24462598785,2.02335119247,-0.406396508217,-0.739290595055,-0.0846458673477,0.377284705639,-0.103425472975
2017/07/09/10:14:44.904344,486957,1499566487,709743916,,0.819739399249,0.0687070109798,0.153566812054,0.781170130195,0.620253562279,0.0390851492801,0.059423036593,0.0309039710837,-0.149290127976,-0.0050074672915,0.069818926646,0.0820369510335,-0.241752986866,1.6584533453,-0.2471806705,-0.387548804283,-0.193688437343,0.202698990703,-0.11690954119
2017/07/09/10:14:44.913944,486958,1499566487,719746913,,0.820340773452,0.0674260827786,0.153655129875,0.78193910716,0.619308329542,0.0389959304166,0.0592262025152,0.0168082305492,-0.171510370059,-0.00543036279891,0.0712101587273,0.102036636608,-0.309476753504,1.16123819351,0.0134735889733,-0.752661943436,-0.280722111464,-0.0494038797915,-0.134508132935
2017/07/09/10:14:44.923619,486959,1499566487,729746069,,0.820406230842,0.0663490703535,0.153331362635,0.782595884876,0.618589367707,0.0387610627339,0.0582104384936,0.013578637032,-0.153123234705,-0.00774431534961,0.0915798968001,0.114853782315,-0.286477321881,1.32472503185,0.705339491367,-0.332173705101,-0.36946117878,0.0316257253289,-0.127895906568
2017/07/09/10:14:44.933731,486960,1499566487,739743456,,0.82063416622,0.0646682588635,0.15388428381,0.783346331886,0.617665223768,0.0386617720205,0.0579953709555,0.0179214984222,-0.161599646143,-0.000848561266049,0.0791627960642,0.100620728848,-0.277525898913,1.19340205193,0.368260502815,-0.0355593413115,-0.36070972681,0.045426633209,-0.131890594959
2017/07/09/10:14:44.944071,486961,1499566487,749744253,,0.820924352529,0.0627209812517,0.154045551306,0.784558277124,0.616153569906,0.0385459674931,0.0577693385617,0.0274174215543,-0.164077750832,0.0112413601881,0.0760818649811,0.0643470762817,-0.290058640115,1.12507534027,0.070951372385,-0.165053233504,-0.203969746828,0.0870167016983,-0.104550130665
2017/07/09/10:14:44.953871,486962,1499566487,759744671,,0.820503653039,0.0611622725491,0.15343881723,0.785189175575,0.615485931838,0.0379237277071,0.0567169916847,0.0102771949439,-0.151275991279,-0.0112033809624,0.0804903149768,0.111920223478,-0.268091822329,1.09649026394,0.244032591581,-0.417552679777,-0.232314139605,0.097568705678,-0.101321518421
2017/07/09/10:14:44.964221,486963,1499566487,769747901,,0.821108956479,0.06012725877,0.153439213794,0.786122042267,0.614314995494,0.0380997814548,0.0563704499486,0.00408465744231,-0.158568074682,-0.00887130885783,0.0823318498191,0.113241115502,-0.278683317939,1.40373432636,0.129390507936,-0.0574616864324,-0.168146282434,0.176327392459,-0.0885769128799
2017/07/09/10:14:44.973889,486964,1499566487,779750816,,0.820790763415,0.0580716499411,0.153102470436,0.787135513188,0.613121582222,0.0371137520257,0.0558764592887,0.0234907103357,-0.142425343862,0.0213984155772,0.0806179745013,0.0634037332637,-0.261857757483,0.651060938835,0.597138285637,-0.325506359339,-0.316699355841,-0.0656501874328,-0.120144739747
2017/07/09/10:14:44.983649,486965,1499566487,789749247,,0.820293777602,0.0558528225143,0.153283746808,0.788091713596,0.611983321147,0.0366273434658,0.0551933266831,-0.00620789068531,-0.156985954304,0.00581341125444,0.0584513826396,0.140149850971,-0.271479086409,0.0785542801023,-0.630007624626,-0.33623200655,-0.105895645916,-0.155021324754,-0.0786657482386
2017/07/09/10:14:44.994098,486966,1499566487,799750648,,0.820165683496,0.055541501459,0.152797748397,0.788689114574,0.611360191016,0.0364323776827,0.0536738227728,-0.0219999777209,-0.163035219254,-0.00525565474012,0.0787560619925,0.16485341465,-0.269632451396,0.621338069439,0.104870773852,-0.809349536896,-0.292234778404,0.0499319136143,-0.134290441871
2017/07/09/10:14:45.003632,486967,1499566487,809746553,,0.819885579444,0.0537306338847,0.152972829067,0.789509396081,0.61038823759,0.0357513423732,0.0531314824837,-0.03354153697,-0.156727201543,-0.017092219045,0.062952097806,0.206481862632,-0.257850709727,0.968146800995,0.328172206879,-0.730092227459,-0.282792538404,0.130388721824,-0.100816354156
2017/07/09/10:14:45.013881,486968,1499566487,819753402,,0.820267636583,0.0521399247828,0.153312027882,0.790539685927,0.609060041008,0.0361014185005,0.0528162759375,-0.00986774562387,-0.142603573786,0.013444867477,0.0910342757756,0.133507719779,-0.255766641593,2.0253264904,0.329941511154,-0.0180990230292,-0.343412697315,0.596980929375,-0.187295496464
2017/07/09/10:14:45.023623,486969,1499566487,829745932,,0.819702406911,0.0511363332361,0.152832272436,0.791186747637,0.608378804249,0.0351182356958,0.0516281940976,-0.0248362384133,-0.139516794372,-0.00614503208704,0.0875132070356,0.178147725593,-0.241661194779,2.09454441071,0.23042294383,0.0851479768753,-0.346625119448,0.649768412113,-0.196169450879
2017/07/09/10:14:45.033791,486970,1499566487,839748808,,0.818960912631,0.049347786319,0.152912884983,0.792310277152,0.607041643139,0.0341928291398,0.0507515383965,-0.0348243286205,-0.165753801089,-0.00303152503676,0.0842101734404,0.179497755768,-0.283333508391,1.4279062748,0.303060114384,0.197825476527,-0.336941689253,0.441527456045,-0.169160202146
2017/07/09/10:14:45.043991,486971,1499566487,849743926,,0.819142630679,0.0475957728528,0.153263591221,0.793123634475,0.606000021608,0.034374261664,0.0503714639767,-0.0177726194372,-0.154817972491,0.0106776136282,0.0873031966269,0.137426821188,-0.282776170653,1.61306512356,0.114159956574,-0.0867418795824,-0.24412381649,0.533876359463,-0.159144386649
2017/07/09/10:14:45.053907,486972,1499566487,859748690,,0.818842912981,0.0467755223623,0.152540139241,0.793488927269,0.605639337482,0.0337927769763,0.049339268536,-0.0264008427524,-0.152417023209,-0.0105462258639,0.0708218317056,0.164941364152,-0.267122053139,1.77486479282,0.0436617210507,-0.0580348446965,-0.171441912651,0.632903337479,-0.14933206141
2017/07/09/10:14:45.063746,486973,1499566487,869745280,,0.818752681342,0.0451134425613,0.15282587039,0.794350125481,0.604563674069,0.033354366659,0.0489706888744,-0.00875735083932,-0.133159562395,-0.00529360435291,0.0862652919102,0.125312463996,-0.228195993527,2.93352198601,-0.0854237452149,0.0131724029779,-0.0472542494535,1.20362305641,-0.150165572762
2017/07/09/10:14:45.073949,486974,1499566487,879753620,,0.818757500459,0.0429067272029,0.1530803741,0.795282289245,0.60336175766,0.0331752735537,0.048785971662,-0.0117060131136,-0.140667888606,0.00939591388199,0.0786237288701,0.120730739723,-0.24604514228,2.27548933029,-1.02617478371,0.0230464190245,0.133658722043,0.940248310566,-0.0878387317061
2017/07/09/10:14:45.083815,486975,1499566487,889747381,,0.818829054354,0.0421965390832,0.153183698105,0.796062567381,0.602397088449,0.0331948261283,0.0479608190264,-0.0172065158721,-0.136493390902,0.00228208296911,0.0978131270152,0.133250375922,-0.247600006966,2.74169921875,-0.394461393356,0.0478437505662,0.0145386941731,0.982866585255,-0.112555019557
2017/07/09/10:14:45.094065,486976,1499566487,899743146,,0.81822081932,0.040697526284,0.153135304181,0.797064206628,0.601183204141,0.0326588483007,0.0469127402613,-0.0189361675391,-0.15424983646,0.00687676032799,0.0619905680795,0.132482212603,-0.266888183204,2.33392953873,-0.545246005058,0.119475074112,-0.0170688554645,0.752058982849,-0.0901824235916
2017/07/09/10:14:45.103847,486977,1499566487,909744753,,0.818074514251,0.0380448192687,0.15329823986,0.798060213329,0.599883798696,0.0318536012145,0.0471664293051,-0.0123307204846,-0.156426109547,0.00931885569695,0.0679583984547,0.109819861755,-0.271640824627,2.37548851967,-0.697378516197,0.0307508036494,-0.0127475596964,0.750678539276,-0.120603300631
2017/07/09/10:14:45.113846,486978,1499566487,919755671,,0.818396949575,0.0381190726725,0.152989711804,0.798590920148,0.599234229428,0.0324266173688,0.046036887643,-0.0152982083573,-0.16342667516,0.0129478823734,0.0494440487094,0.110462791364,-0.266576748452,3.22355771065,0.0493140891194,-0.240521520376,-0.223104566336,1.02788543701,-0.188108325005
2017/07/09/10:14:45.123662,486979,1499566487,929743808,,0.818562827592,0.0363050382211,0.153402380335,0.799151476159,0.598488648693,0.0323373135973,0.0460711806543,-0.00138392847159,-0.157028195005,0.000211923879249,0.0669183980274,0.0687017853824,-0.261773007137,3.83646917343,-0.100587420166,-0.231691360474,-0.150774657726,1.36734998226,-0.163349404931
2017/07/09/10:14:45.133768,486980,1499566487,939750376,,0.818373141133,0.0351754764244,0.153315126124,0.799763663305,0.597728692329,0.0319367998414,0.0455909425177,0.0114276946283,-0.14698480273,-0.00260272293875,0.070235572946,0.0372366061406,-0.243681128407,3.39583134651,-0.0970684364438,0.0691372305155,-0.0930493101478,1.24461913109,-0.139551013708
2017/07/09/10:14:45.143818,486981,1499566487,949745379,,0.818545275433,0.03387280325,0.153312327786,0.800674074189,0.596530431454,0.0319486873958,0.0452962762733,0.00483968687787,-0.149036895371,-0.00314568004386,0.0790921757902,0.0476632677919,-0.26368185631,3.47345995903,-0.828831195831,0.256873965263,0.190967917442,1.33707678318,-0.0729298219085
2017/07/09/10:14:45.153810,486982,1499566487,959786430,,0.818329751899,0.0313547477722,0.15314395619,0.801497634841,0.595444096286,0.0316429490907,0.0452392894958,0.0100440992092,-0.176237415226,0.00557875167612,0.050303888041,0.0244177799211,-0.305146715509,4.12874507904,-1.06209933758,0.211141854525,0.216997861862,1.66818320751,-0.115022115409
2017/07/09/10:14:45.163862,486983,1499566487,969742733,,0.818734326109,0.0303285756145,0.152962493494,0.802327117134,0.594347141968,0.0320896142538,0.0446422289178,0.0161748939067,-0.160077713802,0.00161117245128,0.0412541278407,0.0199664671792,-0.255898790502,4.2432975769,-1.29736030102,0.0606585144997,0.37110081315,1.68562781811,-0.0773422718048
2017/07/09/10:14:45.173767,486984,1499566487,979751294,,0.819342054126,0.0287515936535,0.153275518597,0.803217849301,0.593095336839,0.0327000473812,0.044829843694,0.00453402212798,-0.138500120735,-0.019308547816,0.0709033393346,0.0516271183607,-0.235544747908,5.09219360352,-1.34041380882,-0.0266397166997,0.367270171642,1.94850826263,-0.0800383239985
2017/07/09/10:14:45.183694,486985,1499566487,989743465,,0.819122264445,0.0273899629239,0.153356141787,0.803712939696,0.592475767062,0.0319967995527,0.0446562518389,0.0123620438761,-0.155373509433,-0.00393598284203,0.0619337066682,0.0196631935404,-0.255021762669,4.72054862976,-0.893228769302,-0.201897859573,0.223541915417,1.84762477875,-0.112874105573
2017/07/09/10:14:45.194107,486986,1499566487,999759276,,0.818738120801,0.0266056393075,0.152298633388,0.804170562368,0.59194769041,0.0315732801028,0.0437123143174,-0.00128861877579,-0.158556303495,-0.0185786037563,0.0601238073143,0.0498046378784,-0.245106675845,4.9281373024,-0.901866137981,-0.189937502146,0.242027491331,1.92798173428,-0.103841871023
2017/07/09/10:14:45.203960,486987,1499566488,9742997,,0.819026751592,0.0248549943796,0.152380422015,0.805288584222,0.590411683179,0.0323388312734,0.0433421328322,0.00278701711072,-0.155711092019,-0.00722945152588,0.0552952350541,0.0234178696281,-0.24128596002,5.03030347824,-0.9451187253,-0.145536780357,0.126480773091,1.93322312832,-0.149546027184
2017/07/09/10:14:45.213956,486988,1499566488,19751034,,0.819232165532,0.0230325302542,0.152458295805,0.805689883061,0.589850440571,0.0320120731786,0.0437663942102,0.00686457627719,-0.172867385153,-0.0271578416914,0.0725581239601,0.00154926846889,-0.27557221086,5.44481706619,-1.10831308365,0.649142086506,0.25144892931,2.10502529144,-0.105927035213
2017/07/09/10:14:45.223817,486989,1499566488,29744397,,0.818732856631,0.0207447438807,0.152027386759,0.806966022427,0.588138444256,0.0319917622205,0.0433074610904,0.00133599803507,-0.173510624139,-0.0211734686497,0.0432904452313,0.0145885875911,-0.269103483787,5.02237081528,-1.22660279274,0.998272955418,0.179998964071,2.02067470551,-0.130377188325
2017/07/09/10:14:45.233708,486990,1499566488,39765100,,0.819065629408,0.0193555034268,0.151733623543,0.807553004597,0.587320964105,0.0322617458514,0.0432597924538,-0.0112879186192,-0.165845672113,-0.0378308702372,0.0533407274099,0.0415143497659,-0.276929744508,5.04792690277,-1.36217939854,0.586455225945,0.257044255733,2.01130461693,-0.101956054568
2017/07/09/10:14:45.244328,486991,1499566488,49746097,,0.819124810913,0.0179175344461,0.151297710473,0.808092969662,0.586579671865,0.0323726395642,0.0431515138214,0.00861736010434,-0.161268165197,-0.0359946412469,0.0424494563826,-0.00511457259066,-0.237238328802,5.81455135345,-1.07889759541,0.704293429852,0.249975681305,2.32324266434,-0.146551087499
2017/07/09/10:14:45.253936,486992,1499566488,59750792,,0.819202935697,0.0169023195745,0.15107685096,0.808672851037,0.585793595429,0.0327380998549,0.0426884102379,0.0109726071955,-0.161433315247,-0.0372288978973,0.0441140158446,-0.0204017482782,-0.240520597202,5.98250198364,-1.08608531952,0.805275082588,0.298440247774,2.4306204319,-0.154092222452
2017/07/09/10:14:45.264197,486993,1499566488,69748521,,0.819547697764,0.0142866570955,0.150490888873,0.809755867233,0.584232835898,0.0330006820258,0.0433403267887,0.0154265571491,-0.172097147522,-0.0416976419049,0.0369071165946,-0.0418937231412,-0.253143422898,7.08995771408,-1.33011209965,0.215389817953,0.369236052036,2.91154551506,-0.169285535812
2017/07/09/10:14:45.273984,486994,1499566488,79754887,,0.819746440396,0.0130019663186,0.149532613138,0.810090726196,0.583770785242,0.0333078182035,0.043072901875,0.0189019107669,-0.194922390005,-0.0527658947942,0.030449170701,-0.0719248933737,-0.268351098415,5.87160348892,-1.06687712669,0.241296768188,0.448130905628,2.41767048836,-0.130013287067
2017/07/09/10:14:45.283836,486995,1499566488,89747831,,0.819808656391,0.0117254516135,0.148739840069,0.810616142511,0.583035823173,0.0335610401435,0.0429459542068,0.0188179211326,-0.163201352535,-0.0510856669469,0.0808866744128,-0.0730790386339,-0.216941770447,5.32521009445,-0.86737704277,0.132885321975,0.378070145845,2.26556825638,-0.106148071587
2017/07/09/10:14:45.294212,486996,1499566488,99769373,,0.819628845957,0.00913320732456,0.148681248012,0.811515940061,0.581750520223,0.033703867436,0.04326962638,0.021942002721,-0.158689114842,-0.05052953406,0.0551478241917,-0.0815865293607,-0.192420255918,5.46453857422,-1.44239556789,0.848202466965,0.417564243078,2.41473913193,-0.13227173686
2017/07/09/10:14:45.304061,486997,1499566488,109744011,,0.819644589964,0.00856679903628,0.147666733557,0.812040910922,0.581054807211,0.0337889901175,0.0426986434622,0.0193459721766,-0.15684216637,-0.0611642148101,0.0663038042457,-0.0780093649487,-0.215161032479,5.50239419937,-1.16196763515,0.98248308897,0.216505497694,2.47600960732,-0.194035947323
2017/07/09/10:14:45.314011,486998,1499566488,119770313,,0.82012187555,0.00663215556492,0.147214387201,0.812487038769,0.580354256513,0.0346300753322,0.0430639833509,0.0131983289051,-0.149062913225,-0.07065955292,0.0552540612028,-0.0560096492499,-0.195739108916,5.4244351387,-1.34577465057,1.4291023016,0.200141891837,2.47302150726,-0.18276168406
2017/07/09/10:14:45.323824,486999,1499566488,129742000,,0.819977381584,0.00469230148471,0.146534518865,0.813170252565,0.579386858609,0.0346004303291,0.0432182673823,0.000759026959726,-0.159708791714,-0.0786213498215,0.0517164953756,-0.0343694524901,-0.197692214408,4.98178052902,-1.16883802414,0.586278021336,0.230899646878,2.32976484299,-0.18067650497
2017/07/09/10:14:45.333619,487000,1499566488,139742275,,0.820073206273,0.00420838201141,0.145579953644,0.813401952208,0.579074855978,0.035159085845,0.0425841989605,0.00925297805373,-0.151999897653,-0.0737387340443,0.039521475791,-0.0572880516457,-0.176087708659,5.11024856567,-0.730911135674,0.500438153744,0.0480337888002,2.34113883972,-0.195808336139
2017/07/09/10:14:45.344364,487001,1499566488,149745099,,0.820481793056,0.00235030597034,0.145011472282,0.813509033473,0.578852469274,0.0351825235581,0.0435323019011,0.00448144394286,-0.156726695795,-0.0712664684277,0.0356404199022,-0.052267709854,-0.155951696552,5.35413551331,-1.31445276737,0.554194271564,0.239103317261,2.40367078781,-0.190058231354
2017/07/09/10:14:45.353979,487002,1499566488,159743929,,0.820501403924,0.000258070494966,0.143938933849,0.81414826893,0.577911394985,0.0355446486216,0.043790337976,0.00337605410158,-0.182557875307,-0.0759328882581,0.00724519956513,-0.0671481419507,-0.174555798988,5.94342660904,-1.17609333992,0.534764647484,0.366459459066,2.59039640427,-0.126912236214
2017/07/09/10:14:45.363917,487003,1499566488,169744326,,0.820308095446,-0.0011364725174,0.143423798736,0.81478216171,0.577020581509,0.0356322804617,0.0436762871857,-6.69121371604e-05,-0.158203894383,-0.0961444968207,0.0118062258369,-0.0418828585848,-0.163583351981,6.15429735184,-1.9819265604,0.625149667263,0.522178113461,2.78818798065,-0.152027010918
2017/07/09/10:14:45.373746,487004,1499566488,179749955,,0.82021235249,-0.0020754542117,0.142557558039,0.815332452478,0.576238949681,0.0361475416044,0.0433015016155,0.0132310185857,-0.140852845981,-0.0864604525775,0.0408589300656,-0.077033962086,-0.187630024001,5.87339258194,-1.32839643955,0.791182637215,0.311529397964,2.69517445564,-0.189018234611
2017/07/09/10:14:45.383636,487005,1499566488,189741838,,0.82066061448,-0.00341436106934,0.141880079158,0.816140365657,0.575037407308,0.0368106876525,0.0434954827149,-0.00894980449169,-0.166401211505,-0.086860264934,0.0373930507852,-0.0471131474155,-0.220079406563,5.19469261169,-0.697018861771,0.981564998627,0.269742995501,2.28240561485,-0.137577533722
2017/07/09/10:14:45.394042,487006,1499566488,199742606,,0.81972616278,-0.00460498436961,0.140360885244,0.816718805577,0.574306658686,0.0363382629432,0.0426823740287,-0.0189642332844,-0.147661431748,-0.0992459195462,0.0301459329231,-0.00376674343253,-0.209242493527,4.71060085297,-1.34239327908,0.622919082642,0.285328477621,2.22259569168,-0.149075195193
2017/07/09/10:14:45.404106,487007,1499566488,209750295,,0.820284724932,-0.00600417074112,0.140252266077,0.817017980355,0.573783701931,0.0369791696418,0.0434329850119,-0.0140061789943,-0.138401013505,-0.100964602176,0.036147562444,-0.0186836771851,-0.200048398182,4.74745225906,-0.930718183517,0.447562456131,0.132515579462,2.16975951195,-0.175454482436
2017/07/09/10:14:45.414124,487008,1499566488,219750721,,0.819663386568,-0.00739452854444,0.138609936879,0.817653059166,0.57293533505,0.0365199373881,0.0430682117097,-0.0209280994474,-0.138608170011,-0.0983643158538,0.0383349666565,-0.0121306069865,-0.195546208034,5.07124185562,-0.789055526257,0.0496755763888,0.0240137726068,2.17500591278,-0.218939930201
2017/07/09/10:14:45.423813,487009,1499566488,229758185,,0.819408501915,-0.0092789180299,0.138200732476,0.818257173377,0.572039838391,0.0366575963259,0.0433802045136,-0.0260480627753,-0.13308389597,-0.10041638073,0.0497130198762,-0.000455801113717,-0.182322658245,6.47879600525,-1.5049649477,0.043102376163,0.262656748295,2.63520264626,-0.194176852703
2017/07/09/10:14:45.433798,487010,1499566488,239751295,,0.818868281016,-0.0110798898702,0.136485546591,0.818947769315,0.571085488408,0.0364587951001,0.0430891207088,-0.0212451072366,-0.143612352954,-0.104236034961,0.042313834669,-0.0272041817027,-0.203581424655,5.88084983826,-1.78323066235,-0.357213407755,0.301296263933,2.36391782761,-0.171549320221
2017/07/09/10:14:45.444165,487011,1499566488,249747510,,0.81908261147,-0.0118813153814,0.136240433159,0.819389675853,0.570382339825,0.0375187096922,0.0430916690862,-0.0242503444167,-0.141955708485,-0.111840078949,0.0466929646371,-0.0279582322173,-0.191679689781,5.43878030777,-1.70679020882,0.345544964075,0.303871154785,2.22255182266,-0.159757375717
2017/07/09/10:14:45.453896,487012,1499566488,259742553,,0.818476262191,-0.0126643834855,0.134368392135,0.819627885427,0.570108578322,0.0372090324634,0.0424479240703,-0.0221261755884,-0.15174447465,-0.0833664858374,0.00423460849909,-0.0458441342917,-0.186439475667,5.50128364563,-1.04398322105,-0.0506417527795,0.151117116213,2.31867694855,-0.176356256008
2017/07/09/10:14:45.463847,487013,1499566488,269743337,,0.818334343423,-0.0148159720528,0.133679633557,0.820250670865,0.569164247341,0.0370944097121,0.0431845025739,-0.0206424021668,-0.117727496349,-0.111882478024,0.0359948420812,-0.023458387984,-0.155050686515,6.85193109512,-1.90910482407,0.344671994448,0.386819452047,2.97871804237,-0.192506670952
2017/07/09/10:14:45.473871,487014,1499566488,279748317,,0.81801620839,-0.0156267041797,0.132884246382,0.820739812125,0.5684752449,0.0373367420491,0.0427554022406,-0.0240970046697,-0.14044543279,-0.107685896736,0.0266469142331,-0.0329137350025,-0.168885996951,6.12333917618,-1.57422685623,1.23134028912,0.396143078804,2.68831205368,-0.151180103421
2017/07/09/10:14:45.484055,487015,1499566488,289745555,,0.818077248585,-0.0166422039024,0.131598415342,0.821046607284,0.568010281117,0.0374688835411,0.0429286848004,-0.0169101225003,-0.110901863992,-0.104808154336,0.0505284704022,-0.0283320677563,-0.152434758732,7.0822429657,-2.07920980453,0.797104418278,0.576499223709,3.1031126976,-0.147161394358
2017/07/09/10:14:45.494093,487016,1499566488,299748540,,0.817935044271,-0.0177316975011,0.131131186395,0.82164676031,0.567116932385,0.0379124540407,0.0428676113517,-0.0207796446676,-0.108670453128,-0.107813170097,0.0611254726975,-0.0225176899873,-0.159339479971,7.29282236099,-2.2943353653,1.39837908745,0.57692271471,3.17045259476,-0.139083921909
2017/07/09/10:14:45.503880,487017,1499566488,309745473,,0.817490989648,-0.0187292188456,0.129657791149,0.821758206255,0.566990124331,0.0377993838084,0.0425071281956,-0.0087542102379,-0.113779733071,-0.098634686625,0.0505125358742,-0.0545236741501,-0.158288916088,6.61310005188,-2.39821958542,0.811649441719,0.545990943909,2.90464377403,-0.153255954385
2017/07/09/10:14:45.514116,487018,1499566488,319752133,,0.817774084247,-0.0189941724575,0.128338089787,0.822137841232,0.566401892613,0.038913877063,0.0419997170285,-0.0141851633867,-0.111983178044,-0.0994131678521,0.0402177334401,-0.0324443645797,-0.147403572587,7.16855669022,-2.05850291252,0.768759667873,0.458650112152,3.05657100677,-0.173095300794
2017/07/09/10:14:45.523861,487019,1499566488,329744059,,0.817360832954,-0.0203941950949,0.127053736555,0.822794128435,0.565477287085,0.0384080599795,0.0420723297698,-0.0307116719308,-0.121998449025,-0.118189452811,0.0462407099102,-0.00249431490761,-0.169496791692,7.69765901566,-2.06491565704,0.363972663879,0.516897201538,3.22802448273,-0.157943025231
2017/07/09/10:14:45.533963,487020,1499566488,339747179,,0.817597676283,-0.0216433076552,0.126526517075,0.823037172401,0.565058302878,0.0386794508054,0.0426945813882,-0.00969698108955,-0.106917022283,-0.111957339772,0.0473886017931,-0.0383873937145,-0.157262259637,7.58912563324,-2.52878594398,0.918767273426,0.604281783104,3.22848415375,-0.162243142724
2017/07/09/10:14:45.544248,487021,1499566488,349783249,,0.817826759795,-0.022288958859,0.12598906093,0.823410556882,0.564461704758,0.0396830452034,0.0424652163629,-0.0113206171936,-0.0885410593223,-0.103168762494,0.0606860587343,-0.027943122881,-0.129678041116,7.21304750443,-1.84206283092,0.768265962601,0.382926017046,3.03758430481,-0.166129752994
2017/07/09/10:14:45.553964,487022,1499566488,359756570,,0.817970743186,-0.0229223193692,0.125100412216,0.823650186161,0.564089624044,0.039923159543,0.0425371392474,-0.00934926041864,-0.103222182296,-0.0949762448442,0.0648371670704,-0.0518401122682,-0.139166401494,7.3220615387,-1.87830889225,0.594801068306,0.446590572596,3.07284379005,-0.165166959167
2017/07/09/10:14:45.563822,487023,1499566488,369744938,,0.817214459017,-0.0237490909715,0.123782725623,0.823926530561,0.56375261342,0.0396811808516,0.0418744192296,-0.00406053161154,-0.102066491625,-0.100628516243,0.0384948858859,-0.0531632116864,-0.133749539632,7.57186508179,-2.30055260658,0.394098639488,0.563928663731,3.28955078125,-0.13612537086
2017/07/09/10:14:45.573795,487024,1499566488,379748660,,0.817082088086,-0.0244420651533,0.122535954991,0.824084834361,0.563523333906,0.039818567879,0.0417147404576,-0.0101023670091,-0.0980476541898,-0.0958579819236,0.0238044064826,-0.02932969633,-0.123026929725,7.91590833664,-2.11501932144,0.0947988182306,0.469729959965,3.34764266014,-0.162767708302
2017/07/09/10:14:45.583708,487025,1499566488,389746208,,0.817083584682,-0.025883830339,0.121805078529,0.824899443314,0.562286959889,0.0403092740294,0.0418263742852,-0.0190449030692,-0.105455484553,-0.101965771213,0.0522167769232,-0.0280081976437,-0.139926744451,7.95698690414,-2.73036384583,0.204559475183,0.619889616966,3.41246986389,-0.158773288131
2017/07/09/10:14:45.594252,487026,1499566488,399757112,,0.816562191063,-0.025807747543,0.120613225822,0.824867811749,0.562396429185,0.0403419228678,0.0409374991863,-0.0213499354368,-0.0635045028953,-0.0950623611135,0.0951963474028,-0.00195358518644,-0.0939069591564,7.15096235275,-1.70245659351,0.13284881413,0.377574235201,2.95579695702,-0.153363645077
2017/07/09/10:14:45.604010,487027,1499566488,409743940,,0.816343011991,-0.0268883066177,0.119749841495,0.825435922586,0.56154835449,0.0409977812858,0.0404742535997,-0.0225577729315,-0.0782700228264,-0.0986793266185,0.0852708497077,-0.0101396933796,-0.109803567291,7.53187942505,-1.99525272846,0.145564496517,0.373145788908,3.1178689003,-0.158550277352
2017/07/09/10:14:45.613996,487028,1499566488,419778719,,0.815901372512,-0.0287779214823,0.119349320094,0.82593080123,0.560805912165,0.0408534356897,0.0408171196121,-0.0204020562399,-0.0695030689031,-0.0863428092712,0.0925734134494,-0.0138597694541,-0.0845366734238,7.57631540298,-3.00511217117,0.199314624071,0.553434967995,3.23994445801,-0.156852886081
2017/07/09/10:14:45.623657,487029,1499566488,429745715,,0.8157275984,-0.028680429132,0.118433803347,0.826015673151,0.560707372449,0.0411355673998,0.0401648513709,-0.0199410235,-0.0492965091219,-0.0814231748643,0.104530710518,-0.00426501270782,-0.0580729717156,7.54971694946,-2.60572552681,0.844767034054,0.605866253376,3.20050168037,-0.127186521888
2017/07/09/10:14:45.633816,487030,1499566488,439757636,,0.815655204865,-0.0282489519575,0.117381144483,0.825970225711,0.560799290122,0.041435058129,0.0395028909733,-0.0207939391573,-0.0623566012373,-0.0828996091273,0.102862688014,-0.014347769277,-0.109081837634,7.24714279175,-2.10955834389,0.82755279541,0.473433196545,3.16299200058,-0.149627566338
2017/07/09/10:14:45.644077,487031,1499566488,449746414,,0.816360104204,-0.0296421059698,0.117831565584,0.826305039193,0.560159183241,0.0426556799852,0.0402761045727,-0.00614664972597,-0.0338706371815,-0.0832359500567,0.122968584574,-0.0318207396062,-0.0834921479365,7.50797367096,-3.0604827404,1.55423927307,0.627042591572,3.3500392437,-0.126976624131
2017/07/09/10:14:45.653903,487032,1499566488,459742709,,0.815093553372,-0.0295611623842,0.115538460215,0.826668002062,0.559785094278,0.0422401930552,0.0384243241015,-0.0235230108405,-0.0665683153861,-0.0805704002681,0.126435970459,-0.0161433857915,-0.124117920776,6.26743745804,-2.02239775658,0.373913764954,0.402566432953,2.83614897728,-0.137333720922
2017/07/09/10:14:45.663684,487033,1499566488,469743784,,0.815409337161,-0.0305451602489,0.115629971856,0.826960750414,0.559265677523,0.043132930903,0.0386958588328,-0.0155449282833,-0.0406457834007,-0.0775079577945,0.136522941148,-0.0169425862513,-0.0616152896111,6.74463510513,-2.160394907,0.927588880062,0.404262840748,2.94144272804,-0.131449982524
2017/07/09/10:14:45.673848,487034,1499566488,479750652,,0.815309168654,-0.0304406650997,0.115024668359,0.826898844989,0.559378311994,0.0433852610455,0.0381041119912,-0.00793819732978,-0.0349465056936,-0.0671741037274,0.125336766363,-0.0316600788306,-0.0292534524905,5.72878265381,-1.69902229309,1.1978572607,0.257145285606,2.53584289551,-0.144618242979
2017/07/09/10:14:45.683755,487035,1499566488,489747337,,0.815506135533,-0.030575807287,0.114599356687,0.827022462025,0.559154498373,0.044118563522,0.0378635261034,-0.0214418386397,-0.0278297238454,-0.0660633885975,0.141713905489,-0.00709791146814,-0.0568568655196,6.29276561737,-1.58014261723,1.25567126274,0.282146930695,2.68759202957,-0.136482566595
2017/07/09/10:14:45.694236,487036,1499566488,499751617,,0.815002740312,-0.0316215275124,0.114033374733,0.827571929886,0.558356672424,0.0441964560899,0.0375393193026,-0.011015579385,-0.0295933706145,-0.0510437185536,0.110893953819,-0.0230923395937,-0.0590051704449,5.74460935593,-1.99725365639,0.912732720375,0.316433906555,2.58385300636,-0.145736634731
2017/07/09/10:14:45.703753,487037,1499566488,509742965,,0.814559921566,-0.0321266706725,0.113005631798,0.827758437545,0.558127879292,0.0439469169102,0.0371201821608,-0.0108756263865,-0.0536775569693,-0.0487283058053,0.08930030123,-0.0379764585744,-0.0914096091944,6.6393327713,-2.30057191849,0.704926013947,0.48283419013,2.93103814125,-0.110219620168
2017/07/09/10:14:45.713837,487038,1499566488,519748504,,0.81425353322,-0.0317466884705,0.112269388733,0.827679032229,0.558295143053,0.0439536866549,0.0363596793329,-0.00504227966424,-0.00924463454844,-0.0532523170958,0.101527398677,-0.0186667785188,-0.0404415312383,6.42536640167,-2.04764223099,0.684258818626,0.493464767933,2.84985256195,-0.0972276180983
2017/07/09/10:14:45.723570,487039,1499566488,529743822,,0.814896284065,-0.0325123237028,0.112889450848,0.828032134572,0.557629443891,0.0453027012677,0.0368761803955,-0.0170916223702,-0.0490213970261,-0.0581524611446,0.0818410052905,-0.0119495637787,-0.0969782245429,6.87320184708,-2.80390453339,1.13964772224,0.629287362099,3.02327561378,-0.0782634541392
2017/07/09/10:14:45.733713,487040,1499566488,539742396,,0.814070894813,-0.0328835243147,0.111844983912,0.828424243333,0.557149652295,0.0445446165704,0.0362396901366,-0.0252171907822,-0.0613463035881,-0.0473615536951,0.0710356482142,-0.00415355348165,-0.10422120853,6.56289720535,-2.07748985291,0.737939894199,0.470102339983,2.90759921074,-0.0932196229696
2017/07/09/10:14:45.744058,487041,1499566488,549744529,,0.813884430109,-0.0330324585683,0.111510039012,0.828624114688,0.5568521001,0.0448756085817,0.0358328749502,-0.0315742099307,-0.023763047935,-0.0609534395389,0.0981907425786,0.0392552563859,-0.0663409245538,6.4886636734,-2.22015213966,1.10339069366,0.476211309433,2.83245515823,-0.0914911627769
2017/07/09/10:14:45.753800,487042,1499566488,559756562,,0.813784770122,-0.0324919015082,0.110356611392,0.828422849008,0.557184617038,0.0450756350196,0.0350581360735,-0.00763267361881,-0.0203127958956,-0.0353556118037,0.0722731924037,-0.0129231936233,-0.0566525057912,6.6402130127,-1.60413265228,0.98971247673,0.323565363884,2.79008197784,-0.12559518218
2017/07/09/10:14:45.764176,487043,1499566488,569745088,,0.813864685045,-0.0336912510789,0.111052053372,0.828920116461,0.556373540521,0.0454663277467,0.0356754393914,-0.0163880555886,-0.0222315438943,-0.0425242719854,0.0691074518235,0.00450745601702,-0.0473063115627,6.21506547928,-2.67059445381,1.26402306557,0.459353774786,2.74289035797,-0.112079970539
2017/07/09/10:14:45.774076,487044,1499566488,579759233,,0.81371571428,-0.0332068179494,0.110091499524,0.828629024936,0.556835650141,0.0456212296193,0.0350242940593,-0.0274746702509,-0.0479058357743,-0.0299000731712,0.051618548865,0.0071118639062,-0.0859419286317,6.34669828415,-1.83234643936,0.976972639561,0.301696687937,2.80997037888,-0.141173005104
2017/07/09/10:14:45.783555,487045,1499566488,589743052,,0.813949087157,-0.0327771998418,0.110401082853,0.828394640545,0.557178745328,0.0457409230566,0.0349561615271,-0.0256781599952,-0.0192185514376,-0.0463208450772,0.0620885931707,0.0303375380849,-0.0423940690408,7.54816198349,-2.03026914597,1.04497778416,0.476079881191,3.22140932083,-0.102321252227
2017/07/09/10:14:45.794208,487046,1499566488,599749895,,0.813331076122,-0.0341392557431,0.109396751829,0.829288896362,0.555869862257,0.0456025014687,0.0347711729001,-0.0257256943511,-0.00691599957042,-0.0506165667811,0.0698324493143,0.0467552528484,-0.024344034681,7.50793075562,-2.46488380432,1.03880524635,0.629148721695,3.19767451286,-0.0653283149004
2017/07/09/10:14:45.803850,487047,1499566488,609749372,,0.813232351931,-0.0336316868215,0.109379337249,0.829021621184,0.556277464215,0.0459059877618,0.0342224298252,-0.020250956994,-0.0338970876612,-0.0343345888099,0.0332235333622,0.0139658289344,-0.0463326686955,6.88161373138,-2.1987426281,1.21011042595,0.519293963909,2.99577665329,-0.0778282433748
2017/07/09/10:14:45.813885,487048,1499566488,619750517,,0.812588055228,-0.0342493159162,0.108997955785,0.82883335811,0.556612478686,0.0453975680728,0.0340128485648,-0.0144318009274,-0.022370242861,-0.023994334645,0.0487216068458,0.00416232742826,-0.00206501192667,6.61177921295,-2.19736623764,1.21927571297,0.48051276803,2.99540305138,-0.10500716418
2017/07/09/10:14:45.823841,487049,1499566488,629743642,,0.812564001395,-0.034520677732,0.108583361326,0.829289412634,0.555927720652,0.0456205854099,0.0337964745193,-0.0249521180067,-0.0468558369654,-0.0179612682741,0.0304326444134,0.0126024634922,-0.0279696661684,5.739341259,-1.95257771015,0.669640958309,0.382660627365,2.5941901207,-0.11013841629
2017/07/09/10:14:45.833844,487050,1499566488,639750998,,0.812933662924,-0.0339602142903,0.108689672593,0.829107072848,0.556151067368,0.0464385329713,0.0334800638236,-0.00919490569809,-0.020225714726,-0.00996722515018,0.0363084566156,-0.00815846343957,-0.00393272613155,4.36656045914,-1.79106271267,0.851399302483,0.382066696882,2.07501316071,-0.0790197327733
2017/07/09/10:14:45.844240,487051,1499566488,649747655,,0.812226244731,-0.0350097944284,0.108650908305,0.829400156871,0.555761710988,0.0458902459584,0.0334422742759,-0.00670377015899,0.00341433551919,-0.0137410703846,0.0665729817881,-0.00726239005895,0.00233351776069,4.08382225037,-2.97371554375,1.15246140957,0.79686832428,2.01911330223,-0.0247599408031
2017/07/09/10:14:45.853930,487052,1499566488,659746306,,0.81201739927,-0.0346173363382,0.107661884906,0.82951406312,0.555619368079,0.0460762967783,0.0327186762736,-0.0203255315939,-0.00498122161052,-0.0239762196692,0.0710017395277,0.0176600984318,-0.0279043392557,4.34000349045,-2.56558704376,1.21234488487,0.764478623867,2.05221009254,-0.0170728713274
2017/07/09/10:14:45.863861,487053,1499566488,669743436,,0.812635064722,-0.0350072714912,0.108577491687,0.829556115538,0.555459523753,0.0467127442881,0.0334557643264,-0.0161596038776,-0.021152586804,-0.0182611549393,0.027243984322,0.0109694704976,-0.0380977354719,4.72450637817,-2.93063664436,1.97985637188,0.895869493484,2.16611790657,-0.00145927071571
2017/07/09/10:14:45.873647,487054,1499566488,679747146,,0.811997747966,-0.0356811741361,0.108274941537,0.829632645381,0.555381544136,0.0464636536468,0.0331985397358,-0.017864361481,-0.00887154110754,-0.0187575630907,0.0445260836213,0.0215562957241,-0.0490874653525,5.08229160309,-2.78345775604,1.8615847826,0.738590657711,2.40423178673,-0.0457281991839
2017/07/09/10:14:45.883901,487055,1499566488,689744808,,0.812300208008,-0.0350496201642,0.108153157115,0.82939133043,0.555739195535,0.0466660733212,0.0329582334759,-0.0170166703233,-0.0103417083066,-0.0110037879012,0.0354592154626,0.0168868253012,-0.015446875939,4.31659269333,-1.76280891895,1.71693336964,0.509434938431,1.96682488918,-0.0560229718685
2017/07/09/10:14:45.894156,487056,1499566488,699749472,,0.811873930008,-0.0352042526644,0.107995873428,0.829849757092,0.555080450046,0.0467311392693,0.0324233751072,-0.0152873081894,-0.00547863662584,-0.00853601037805,0.0302980616395,0.015753296673,0.00207303041296,3.57839512825,-1.16156494617,1.6578823328,0.285938709974,1.73310983181,-0.0754736587405
2017/07/09/10:14:45.903652,487057,1499566488,709746432,,0.811812295681,-0.0348752233768,0.108025621329,0.829277252157,0.555960820455,0.046282905088,0.0326297084009,-0.00510033401366,0.0302716216164,-0.014553568115,0.0452114002133,0.0223553625056,0.0349534011022,5.08228158951,-1.63870751858,1.7258348465,0.504157721996,2.25539588928,-0.0579797029495
2017/07/09/10:14:45.913911,487058,1499566488,719748895,,0.811921017479,-0.0345087208556,0.107983126813,0.829611971339,0.555428741329,0.0470117611227,0.0321369667542,-0.0111414170887,0.0075337729401,-0.0126240333536,0.0223803093055,0.0235613354669,0.0105463222199,6.27417325974,-2.16623187065,1.5645108223,0.786078035831,2.67425560951,-0.00296093523502
2017/07/09/10:14:45.923926,487059,1499566488,729744353,,0.812248272062,-0.0345475332548,0.108254750961,0.829439774459,0.555655244523,0.0472542502144,0.0323101472596,0.0010124562372,-0.0141593769332,0.00338052440021,0.0300814982409,-0.0286162254103,-0.0313559553233,6.8636264801,-2.5610678196,1.42135512829,0.873128652573,2.93243098259,-0.0126291066408
2017/07/09/10:14:45.933782,487060,1499566488,739744596,,0.812082386419,-0.0347801744424,0.108005735441,0.829633303988,0.555383327708,0.0470023370966,0.0323839547571,-0.0066831802122,-0.00612077998356,-0.00640298411748,0.0501472856489,-0.00651104702618,-0.0328933947737,7.02972078323,-2.44955158234,0.958823502064,0.815528333187,2.95520687103,-0.0303660482168
2017/07/09/10:14:45.944217,487061,1499566488,749749525,,0.81200745258,-0.0346072434132,0.108119365693,0.829591464658,0.555429550761,0.047566018132,0.0318353549894,-0.00196932991475,-0.0108929754496,0.00104730601127,0.0277291934054,-0.0108791601796,-0.022761382418,6.14558362961,-2.54123020172,1.25730597973,0.669854998589,2.66937375069,-0.0409937500954
2017/07/09/10:14:45.953893,487062,1499566488,759746438,,0.811422613681,-0.0354486339423,0.107772891175,0.829933515017,0.554978851236,0.0467934495212,0.0319250436969,-0.00557164562808,0.00541221109461,-0.0020448932704,0.0411489023243,5.30303198289e-05,0.000822760932922,5.5965013504,-2.58982634544,1.04190397263,0.59934002161,2.55937051773,-0.0761794000864
2017/07/09/10:14:45.964067,487063,1499566488,769747592,,0.812188293771,-0.0342150479681,0.107865034523,0.829434618692,0.555659160526,0.0477738034993,0.0316033912375,-0.000425120378871,-0.0117125539004,0.00227423621764,0.00529424284913,-0.0157054803595,-0.00888955283063,5.20828819275,-1.45769298077,0.952966034412,0.333467274904,2.31492447853,-0.0826380252838
2017/07/09/10:14:45.973814,487064,1499566488,779751237,,0.811172863559,-0.0356053085782,0.107610541919,0.830146330171,0.554648121656,0.0472377842066,0.0314821122281,-0.0025096231821,-0.0124633755188,0.00289440599077,0.0240541646182,-0.0191985412314,-0.00774988968895,4.74591588974,-2.11904478073,0.864973604679,0.522256553173,2.22895717621,-0.0622128248215
2017/07/09/10:14:45.983810,487065,1499566488,789766494,,0.81230153138,-0.0341835792118,0.108092185392,0.829610199479,0.555356983286,0.0482861776283,0.0315274972925,-0.000516818976718,0.000137976947915,-0.00895377857787,0.0315252629567,-0.00478093934943,-0.0123928516664,6.02144908905,-1.61288189888,1.17769503593,0.501891672611,2.57792139053,-0.0764780342579
2017/07/09/10:14:45.993998,487066,1499566488,799743254,,0.811648992567,-0.0351712561642,0.107750711902,0.829972669917,0.554870773924,0.0476483555179,0.0315186556283,0.0128281426092,0.0115322074359,0.0129888178987,0.0119098338134,-0.0282995885593,0.00390584327043,5.22805023193,-1.80409419537,0.48796081543,0.458727419376,2.34639072418,-0.0619270354509
2017/07/09/10:14:46.003711,487067,1499566488,809744534,,0.811706344028,-0.0349454121062,0.108051131232,0.829796556766,0.555127962658,0.0477448362868,0.0314809476189,0.00401029042257,-0.00985691428419,0.00746419030694,0.00450691227287,-0.0222199356138,-0.0183204786097,5.63747596741,-2.2384018898,0.846463024616,0.646484494209,2.49665570259,-0.0507815256715
2017/07/09/10:14:46.013871,487068,1499566488,819746760,,0.812036691372,-0.0348612142911,0.108424455438,0.829754354938,0.555139043153,0.0482196460676,0.0316736319658,0.00731640745096,0.00740918587928,0.0132428278518,0.00724790570387,-0.0249738410671,0.0123280983302,5.34740543365,-1.96553111076,1.41069102287,0.536386907101,2.29042506218,-0.0421872362494
2017/07/09/10:14:46.023840,487069,1499566488,829745664,,0.812040677858,-0.0350908509271,0.108334951108,0.829802240851,0.555064076144,0.0482357170715,0.0317084854781,0.00212707397205,0.0101159323655,0.00155196995662,0.01005485401,0.000663244897046,0.0231922285763,5.73385095596,-2.0933277607,1.13055086136,0.600090742111,2.50590848923,-0.0441153123975
2017/07/09/10:14:46.033541,487070,1499566488,839747428,,0.812007889023,-0.0350456022703,0.108448325611,0.829735501602,0.555176939691,0.0479273229158,0.031945809351,0.00824348479396,0.0233450722142,0.00558041259152,0.0167899387146,-0.0103715951758,0.0354674599405,5.69816732407,-2.16687321663,0.943040847778,0.560716927052,2.48743605614,-0.057079680264
2017/07/09/10:14:46.044207,487071,1499566488,849744525,,0.811730258711,-0.0346633092807,0.107976276938,0.829479795634,0.555599412318,0.0477440474023,0.0315129751727,0.00781893598544,-0.0062308933282,0.00697773011698,-0.0236034095424,-0.0195313212589,0.0191191747202,4.59827947617,-1.79177689552,0.667651593685,0.512696564198,2.0997736454,-0.0347791835666
2017/07/09/10:14:46.053901,487072,1499566488,859744673,,0.811895557456,-0.0347545601043,0.1082238964,0.829689537212,0.555277045309,0.0477209033239,0.0317078883051,0.00203755524203,0.0073004593388,0.00598378990271,-0.0240103905238,0.0031086082687,0.0343505154923,5.20097446442,-1.95494949818,0.375309228897,0.59158295393,2.29239463806,-0.0258469805121
2017/07/09/10:14:46.064185,487073,1499566488,869745951,,0.811714161577,-0.0345105342164,0.107829228606,0.82970636864,0.555284515824,0.0475304159259,0.0314214558154,-0.00475372893006,-0.000364811793249,0.00511461350609,-0.0176596116936,0.0149164155342,0.0310260769503,4.86782741547,-1.9001609087,0.555918157101,0.622752010822,2.13300704956,-0.0153111889958
2017/07/09/10:14:46.073650,487074,1499566488,879750017,,0.81173003617,-0.0346606480709,0.108214864168,0.829288307843,0.555910295105,0.047139163949,0.0319772652603,-0.00837686743202,0.000827572840584,-0.00187194228552,-0.0257613016192,0.0298486151223,0.0310103177423,5.83177804947,-1.8976995945,0.695264816284,0.523721694946,2.47239613533,-0.0455136671662
2017/07/09/10:14:46.083535,487075,1499566488,889743683,,0.812169603557,-0.0345703938713,0.108538880277,0.829229018816,0.555935724442,0.047770589959,0.0321352668682,-0.0127151487301,0.00229795807078,-0.0122461468811,-0.0276262198774,0.0421972930114,0.0479761533937,5.55720615387,-1.75912535191,1.13922309875,0.517528831959,2.30362176895,-0.026918746531
2017/07/09/10:14:46.094247,487076,1499566488,899747093,,0.811581571317,-0.0351824397837,0.10828101847,0.829203744153,0.556037417831,0.0469637195406,0.0322172267803,-0.00139294231968,0.00997631379993,0.000590096361308,-0.00827013057677,0.00757638474153,0.0311706922558,5.12763690948,-2.24546599388,0.827415049076,0.613647818565,2.22410559654,-0.0366774722934
2017/07/09/10:14:46.104061,487077,1499566488,909746001,,0.811332393114,-0.0346153943139,0.107785218889,0.829179531838,0.556104677984,0.0470852437938,0.0314939823163,0.00425036360023,-0.00608753242097,0.00882004299674,-0.0247193454472,-0.0162196899821,0.00730533371559,5.13636255264,-1.95238983631,0.62439674139,0.514864861965,2.27046442032,-0.069794870913
2017/07/09/10:14:46.114146,487078,1499566488,919750965,,0.811396135133,-0.0347089918867,0.10797584631,0.829065514026,0.55627938564,0.0467511800318,0.0319052618103,0.00578869070685,0.00596463830301,-0.00249897087658,-0.0174790381031,-0.00625355132436,0.0140661517465,5.54182434082,-1.96619689465,0.525445401669,0.529891252518,2.43667864799,-0.0647214129567
2017/07/09/10:14:46.123871,487079,1499566488,929749239,,0.811078599339,-0.0341802606892,0.107369452908,0.829075667973,0.556315866485,0.046635530909,0.0311660188244,-0.00999409882223,0.0279249508341,-0.010595642451,0.00281212485806,0.0429387457873,0.0433380433426,5.41124343872,-1.95147681236,0.583603620529,0.673678517342,2.31269598007,-0.00600934028625
2017/07/09/10:14:46.133845,487080,1499566488,939744942,,0.811541488913,-0.0340432894945,0.107927109047,0.828686075406,0.556855643522,0.0466300596748,0.0318875875719,-0.00769147276236,0.0196546833124,-0.0100469718341,-0.00398594870485,0.0334060294883,0.0376447278327,5.56703996658,-1.9715821743,0.932349264622,0.60386633873,2.34010672569,-0.0343361124396
2017/07/09/10:14:46.144261,487081,1499566488,949745594,,0.81123546467,-0.0339067459269,0.107663900908,0.828695410965,0.556869410635,0.0465463209754,0.0315248370116,-0.00126434330199,-0.00601762230484,0.0110064386172,-0.032043805256,-0.00151750640675,0.0231833790792,4.93985128403,-1.62144231796,0.47431743145,0.527377843857,2.09133815765,-0.0257050395012
2017/07/09/10:14:46.154202,487082,1499566488,959750382,,0.81093041425,-0.0342856466097,0.107442908285,0.828784812983,0.556754181843,0.0462848197274,0.0315947817172,-0.00846843160696,0.0181025735233,-0.0050464405754,-0.000992724025197,0.0283406030067,0.0321566491289,4.15970993042,-1.70815742016,-0.0627203211188,0.48424911499,1.8543432951,-0.022300593555
2017/07/09/10:14:46.163769,487083,1499566488,969743624,,0.811705876994,-0.033190210134,0.107652670132,0.828535713493,0.557075533793,0.0468221564886,0.0316718609728,-0.00881002354968,0.0352008637126,-0.0137725437571,0.00461770362278,0.0390895717281,0.0690750924994,5.05406904221,-1.54877448082,0.579993546009,0.483284533024,2.15369057655,-0.0560373291373
2017/07/09/10:14:46.173748,487084,1499566488,979750635,,0.81115259502,-0.0340996386741,0.107748797865,0.828453947206,0.557233013422,0.0462135894451,0.0319332156529,0.00148665443516,0.00134229833952,-0.0080631114424,-0.0325587022989,0.000205080123714,0.0438519446956,4.78018856049,-1.79092526436,0.514481842518,0.626373529434,2.07193112373,-0.0067201629281
2017/07/09/10:14:46.183676,487085,1499566488,989743881,,0.810725083954,-0.033577038325,0.107192749839,0.828373744278,0.557414616629,0.0459353331229,0.0312382798974,-0.0142544361737,0.00658560181972,-0.0188852557111,-0.0104299860021,0.03798710913,0.034922492752,4.2927274704,-2.20269680023,0.360068827868,0.677087724209,1.91202867031,-0.010742880404
2017/07/09/10:14:46.194098,487086,1499566488,999743742,,0.810594028064,-0.0336278741604,0.107248117423,0.828422342115,0.557356083841,0.045805065028,0.0311851712945,-0.020514659346,0.00240014460534,-0.0138042769242,-0.00686807578881,0.0387674615019,0.0325510543636,3.24656105042,-1.40021979809,0.220901742578,0.532772004604,1.4917974472,-0.00145587325096
2017/07/09/10:14:46.203911,487087,1499566489,9745791,,0.810591458236,-0.0330053476341,0.106723315316,0.828036668281,0.557941825846,0.0457207989307,0.03107737922,-0.0206447798556,-0.0045082235363,-0.013283351887,-0.0207217690529,0.0419954412461,0.0222614405669,3.43394589424,-0.766488313675,0.219046935439,0.2927916646,1.5324422121,-0.0548268854618
2017/07/09/10:14:46.214087,487088,1499566489,19749582,,0.810912040722,-0.0336800711143,0.107439614672,0.828217762687,0.557609649717,0.0459655780299,0.0318430800809,-0.0154050829069,0.0223000933225,-0.0167466379646,-0.00974026234866,0.0505953237729,0.0569110742127,3.68992495537,-1.61961960793,0.499593853951,0.49031278491,1.65960347652,-0.0385381951928
2017/07/09/10:14:46.223974,487089,1499566489,29742754,,0.810675703547,-0.0324351866081,0.106641425115,0.827847820039,0.558234919435,0.0456119925597,0.0310049627378,-0.00406567267431,0.0268194840704,-0.0086655041588,-0.0106718700325,0.0249935339449,0.0686272390019,3.75030374527,-1.10838341713,-0.0419069044292,0.481009721756,1.67978990078,-0.026190392673
2017/07/09/10:14:46.234083,487090,1499566489,39750664,,0.810363508418,-0.0328176920608,0.106527214016,0.82795898306,0.558084965918,0.0454864604366,0.030920464146,-0.0287208459241,0.016881235747,-0.0235197701483,0.0174432075854,0.0677554244612,0.0393891956966,3.6797170639,-1.32745182514,0.425530523062,0.442089408636,1.63583290577,-0.0585414767265
2017/07/09/10:14:46.244191,487091,1499566489,49742573,,0.810044102051,-0.0325014435967,0.106395281207,0.827853160735,0.558264313712,0.0455143152277,0.0304720758383,-0.0308016541165,0.00896438346616,-0.0323485840722,0.0506081093909,0.0592364578839,-0.00854362304171,4.53018665314,-1.75453674793,0.523712813854,0.606584727764,1.95895433426,-0.0342808663845
2017/07/09/10:14:46.253882,487092,1499566489,59748312,,0.810141557096,-0.0322713006648,0.106780069801,0.827723893513,0.558469467089,0.0451901628758,0.0307060192282,-0.012192398724,0.0299971883427,-0.0160354496163,0.0657828909688,0.0248438289618,-0.00508437597685,4.27683258057,-1.30789649487,0.827773571014,0.588001728058,1.81519877911,0.0278678834438
2017/07/09/10:14:46.263919,487093,1499566489,69745212,,0.809974115187,-0.0317085504078,0.106428085351,0.827556212508,0.558730647318,0.0453969157206,0.0301645309818,-0.0013050223895,0.0442313666645,-0.0141539462346,0.0412303810929,0.0213598046978,0.0496726771936,4.36736869812,-1.33191096783,0.464091688395,0.485201209784,1.92100846767,-0.0542973205447
2017/07/09/10:14:46.273922,487094,1499566489,79743540,,0.809546061043,-0.0325095610501,0.106155107009,0.827995149721,0.558095696402,0.0453063682028,0.0300093101683,-0.0012585751516,0.0148070129708,-0.0179541333363,0.0313370683161,-0.00306109025129,0.0134141389947,3.14488387108,-1.50297641754,0.257233768702,0.399254709482,1.5681886673,-0.049753818661
2017/07/09/10:14:46.283989,487095,1499566489,89751310,,0.809668864267,-0.0323471905643,0.105544932411,0.828256424212,0.55768993443,0.0456870619665,0.0297644948813,-0.0127250336166,-4.58088838319e-05,-0.0165182806546,0.027016647282,0.00881343669272,-0.0170195645651,3.36331939697,-1.69935059547,0.190855979919,0.354444742203,1.68544578552,-0.0798372551799
2017/07/09/10:14:46.294046,487096,1499566489,99747018,,0.810128980225,-0.0317130598754,0.106436918557,0.827670989623,0.55851294681,0.0460770782481,0.0300153967433,0.00568109899495,0.0337829592278,-0.0105324363813,0.04000335364,-0.0109945577685,0.0339591654373,4.12231397629,-1.04683530331,0.783912539482,0.343238413334,1.87650585175,-0.0484352558851
2017/07/09/10:14:46.304086,487097,1499566489,109742280,,0.809904477767,-0.0313736605801,0.105785602406,0.827680370457,0.558516713832,0.0461890811217,0.0295102272983,0.00287855268511,0.0483167696403,-0.00873190649297,0.0666594102907,-0.00133929996752,0.048858055668,3.88181614876,-1.09561228752,0.725761890411,0.37727946043,1.81029164791,-0.030676305294
2017/07/09/10:14:46.314161,487098,1499566489,119750999,,0.809481111504,-0.0311860556662,0.105498934473,0.827652711189,0.558612904714,0.0457059100201,0.0292161280405,-0.00615498533686,0.0241118185244,-0.00797074765901,0.0431713124581,0.00613815623211,0.0337311886624,3.06631779671,-1.18255901337,0.667187333107,0.390417397022,1.49880588055,-0.0277969762683
2017/07/09/10:14:46.323799,487099,1499566489,129749158,,0.809933687256,-0.0304786027336,0.10570003643,0.827430841362,0.558905094695,0.0462456862487,0.029062594356,-0.0173323732424,0.0189845556198,-0.0193845677468,0.0261544836327,0.0402521497193,0.0212732582568,3.48429989815,-0.88337045908,0.490265548229,0.288985520601,1.64118778706,-0.0655433014035
2017/07/09/10:14:46.333840,487100,1499566489,139750394,,0.809307594194,-0.0298093057011,0.104842938014,0.827551155288,0.558799268897,0.0460538448267,0.0279554259364,-0.00713554642533,0.0200434199662,-0.0162567988196,0.0356120627392,0.0153788652657,0.017742017204,3.13249325752,-0.415931671858,0.482837736607,0.13377250731,1.54025483131,-0.0821109414101
2017/07/09/10:14:46.344421,487101,1499566489,149744963,,0.808885263264,-0.0301973863276,0.104776865971,0.827464991244,0.558952610125,0.0457599982242,0.0279229379246,-0.0188237915047,0.0137371259717,-0.0101337824831,0.0608782277189,0.0242042294874,-0.00987233013385,2.73683691025,-0.964619636536,0.660506665707,0.34024232626,1.32665264606,-0.02326477319
2017/07/09/10:14:46.353656,487102,1499566489,159745127,,0.80937972412,-0.0292946404514,0.104743288007,0.827216955558,0.559279276217,0.0463206260941,0.0278064602318,0.00213970630895,0.0306999887222,0.000394928571,0.0502723060044,-0.00970977695208,0.0248960976617,2.59768462181,-0.08277374506,0.489493072033,0.0961389690638,1.14199662209,-0.0593819245696
2017/07/09/10:14:46.363716,487103,1499566489,169743438,,0.809404044134,-0.0289196433375,0.104805474573,0.827069978628,0.559503747755,0.0463356355862,0.027637213601,-0.00762987597919,0.0287408625456,-0.0224200292794,0.0527165813035,0.0175665715597,0.019410440674,3.02193951607,-0.708258986473,0.390152394772,0.178238540888,1.32512414455,-0.0387534238398
2017/07/09/10:14:46.373755,487104,1499566489,179750826,,0.809515718498,-0.0290464995583,0.10443163862,0.827173257074,0.559324499033,0.0466461991413,0.0276521187142,0.00221110106501,0.0227325415802,-0.00918142839752,0.0292953994457,-0.00415566297464,0.029386105693,2.31808924675,-0.709902405739,0.152297437191,0.23159211874,1.04140841961,-0.0177878066897
2017/07/09/10:14:46.383641,487105,1499566489,189749312,,0.80962947231,-0.0288611842864,0.104608562853,0.827130307622,0.559380514843,0.0467757365118,0.0275848563566,-0.0026368524513,0.0112524371136,-0.0159822846576,0.0184215295818,0.00224453538627,0.0188829689853,2.39029550552,-0.459490984678,0.788898050785,0.0933807119727,1.0473960638,-0.0845232009888
2017/07/09/10:14:46.394232,487106,1499566489,199746833,,0.808696017567,-0.0293390331225,0.104010044738,0.827489912412,0.558914091049,0.0463301804656,0.0269999640988,0.0145438490005,0.00895544710409,-0.00564239898328,0.0099253768039,-0.0420999849751,0.01106829506,2.18664693832,-0.84658998251,-0.0536511354148,0.22021740675,1.08609879017,-0.0407036095858
2017/07/09/10:14:46.403831,487107,1499566489,209745866,,0.809183161916,-0.0289643087402,0.104296333195,0.827073889204,0.559486898021,0.0464898314144,0.0276023244284,-0.0185655511151,0.0154842995001,-0.0299221414415,0.0242327569676,0.0348052678342,0.0157936163379,2.59506583214,-0.781042098999,0.362667739391,0.172434493899,1.23047339916,-0.0630744844675
2017/07/09/10:14:46.413944,487108,1499566489,219750373,,0.809093370679,-0.0285378545111,0.103929193869,0.827092657589,0.559452935645,0.0468277626973,0.02715343812,0.000838032257414,0.038789210784,-0.0190271229636,0.0454917720218,0.00316845059801,0.0404970923871,2.77358031273,-0.991557359695,0.425787478685,0.300502240658,1.28855168819,-0.00932386517525
2017/07/09/10:14:46.423961,487109,1499566489,229756112,,0.809100282468,-0.0284472643153,0.104027407665,0.827208925143,0.559275586989,0.0468045088014,0.0273047599725,0.0154966315284,0.0298710035788,-0.0098188000977,0.025639164223,-0.0328805647575,0.0269168293548,2.65076375008,-1.35735535622,0.569354712963,0.505128502846,1.26897501945,0.039857648313
2017/07/09/10:14:46.433935,487110,1499566489,239750476,,0.808564351759,-0.0285852451167,0.103602560798,0.827022178901,0.559619792156,0.0461992891923,0.0269375112286,0.00917070384732,0.0174691650523,-0.00721992536006,0.0174358978083,-0.0282422311839,0.0069660324575,1.87784481049,-1.5864033699,0.583513021469,0.471250474453,1.05921041965,0.0018362775445
2017/07/09/10:14:46.444125,487111,1499566489,249742854,,0.809159877522,-0.0276227693646,0.103389668915,0.826946938368,0.559677437222,0.046940244731,0.0267682799805,-0.0125148861574,-0.000335439634997,-0.0176034034812,0.00168938457413,0.0196461327686,0.00352564886961,2.93783569336,-0.287864208221,0.447072267532,0.224794983864,1.43124043941,-0.0476183593273
2017/07/09/10:14:46.453937,487112,1499566489,259747676,,0.808745707448,-0.0283475673611,0.103586060792,0.826807965197,0.559906574434,0.0464361295954,0.0271459474061,-0.0117743444305,0.0119778347049,-0.0145254314493,0.0247600292427,0.0160028149184,0.022724420009,2.83857178688,-0.86767822504,0.532034814358,0.368847250938,1.36255371571,-0.0174067541957
2017/07/09/10:14:46.463725,487113,1499566489,269746279,,0.808894841545,-0.0274515019085,0.103488326829,0.826765967287,0.559963788115,0.0467670650433,0.0266727007027,-0.016670400505,0.0246159433997,-0.0185356395881,0.0472517708348,0.0313670529925,0.0201852303206,2.99503755569,-0.620539903641,0.594377398491,0.269966423512,1.34284043312,-0.0259043425322
2017/07/09/10:14:46.473930,487114,1499566489,279753146,,0.808743984269,-0.0272478703839,0.102988403099,0.826741538461,0.560014498484,0.0468831194805,0.026156513129,-0.0135768739748,0.029214304673,-0.0147775139726,0.0387099833379,0.0401817548425,0.0323322518638,3.01227450371,-1.2895860672,0.368058145046,0.364284515381,1.39045929909,-0.032453045249
2017/07/09/10:14:46.484066,487115,1499566489,289744556,,0.808696777485,-0.0276033094594,0.103615478916,0.827030533116,0.559584289067,0.0467820790565,0.0264075330613,-0.0265038963918,0.00879946140376,-0.0213582080749,0.0258891664691,0.0637090698591,0.0186924258096,3.32116508484,-1.15696144104,0.510090649128,0.378628313541,1.45132887363,-0.018830768764
2017/07/09/10:14:46.494213,487116,1499566489,299752838,,0.80827179545,-0.0287727114532,0.103268162647,0.827361736567,0.559115518531,0.0463879070915,0.0266562540158,-0.00947731498722,0.00916243711297,-0.000138317890715,0.020361543799,0.0203448763339,0.00654652871263,2.80199146271,-1.74214184284,0.468612641096,0.401704281569,1.31299889088,-0.0419085472822
2017/07/09/10:14:46.504087,487117,1499566489,309758586,,0.808841992533,-0.0277749825045,0.103364890754,0.827115980134,0.55944524176,0.0468021134001,0.0266409282798,-0.00211790393402,-0.000976233444298,-0.00767348553027,0.00353592021927,0.00191785744916,0.00530583013213,3.02594256401,-0.861607670784,0.420167028904,0.20565918088,1.34150993824,-0.0641626864672
2017/07/09/10:14:46.514084,487118,1499566489,319744258,,0.808940634006,-0.0275883949295,0.103449905486,0.826983070213,0.559624664894,0.0470724150272,0.0265221373018,0.00477337560428,0.0043812254578,-0.00192427604604,0.00284695512619,-0.011663543378,-0.00664170859403,3.06487417221,-0.831833302975,0.714286446571,0.282182753086,1.39067852497,-0.019398920238
2017/07/09/10:14:46.523760,487119,1499566489,329749624,,0.808715068657,-0.0275666378779,0.102852260928,0.826942563173,0.559729425272,0.0466325056312,0.0263510363444,0.000526706629494,0.0229185608767,-0.00789180380859,0.0267422817739,0.0077429268085,0.0174948228744,2.31041383743,-1.17320549488,0.633191227913,0.298678934574,1.12560999393,-0.0205549672246
2017/07/09/10:14:46.533793,487120,1499566489,339745868,,0.808678376641,-0.0270254140913,0.103305647202,0.826460152164,0.560445105117,0.0467078359554,0.0261396078064,0.00378365429234,0.00658107411235,-0.00820728705317,0.00696173616404,-0.00465587683587,0.0133058859204,2.75088787079,-0.990840315819,0.668429076672,0.322706669569,1.36010968685,-0.0187111645937
2017/07/09/10:14:46.543961,487121,1499566489,349746240,,0.808743052931,-0.0270540286651,0.102842653844,0.826767227265,0.559965457774,0.0472146600881,0.0257956177069,0.00152713954019,0.0196304182328,-0.0160909433544,0.0175309768214,0.0033900187847,0.0357997710438,3.13282442093,-1.2115881443,0.77595859766,0.387150853872,1.4959871769,-0.0214194729924
2017/07/09/10:14:46.553676,487122,1499566489,359743549,,0.80877914449,-0.0274702900568,0.10272111505,0.826754658116,0.559989612237,0.0467393882745,0.0265292113343,-0.00233072701462,-0.00773776792736,0.00275197495614,0.00755903072014,-0.00884848316556,-0.0195589254577,2.57109475136,-1.01339912415,0.74312722683,0.359280616045,1.21321344376,-0.00259347259998
2017/07/09/10:14:46.563817,487123,1499566489,369743662,,0.808152346769,-0.0271965592778,0.102480169038,0.826890644581,0.559847551402,0.0465963680821,0.0255217471086,-0.0043207926671,-0.00175732206189,-0.00160768722246,-0.00478958248191,0.00454223747078,-0.00762934349639,2.68445277214,-1.16632139683,0.849964559078,0.234860509634,1.36360275745,-0.0701086595654
2017/07/09/10:14:46.573864,487124,1499566489,379750648,,0.808942221896,-0.0267251182245,0.102937605092,0.826692594689,0.560068792606,0.047178850668,0.0260087963015,-0.00525998879047,0.00953758422264,-0.00461265964552,0.00949381315458,0.0167257552523,0.0117511925555,2.25029301643,-0.833551168442,1.02853560448,0.259412586689,1.08630847931,-0.0287988334894
2017/07/09/10:14:46.583708,487125,1499566489,389749495,,0.808517442613,-0.0267705964787,0.102671211711,0.82673443849,0.560053706687,0.0468499491819,0.0255948452223,0.00316735558764,0.0108579292828,0.00348898653495,0.0302784109177,-0.00958022616788,0.00446660952643,2.44141960144,-0.877060472965,0.740421354771,0.188473373652,1.22712910175,-0.0472925193608
2017/07/09/10:14:46.594334,487126,1499566489,399748172,,0.809160022311,-0.025960811349,0.102790539151,0.82661085496,0.560178158157,0.0475241804021,0.0256198724365,0.00319535521181,-0.00202480213379,0.00481642538129,-0.00500806268138,-0.00622644560376,-0.0046279663307,3.01842093468,-0.40989023447,0.680387973785,0.160678863525,1.36868131161,-0.0530402362347
2017/07/09/10:14:46.603889,487127,1499566489,409742847,,0.809017649003,-0.0268079777866,0.102843547146,0.826505053566,0.560348941551,0.0470533968008,0.0261617656484,-0.00529176081771,-0.0156046337535,-0.00113420510674,-0.0315668058241,0.00616310826007,-0.00218533706999,2.64533829689,-0.593662023544,0.711877167225,0.148541718721,1.24762523174,-0.0456907749176
2017/07/09/10:14:46.614041,487128,1499566489,419750784,,0.808568650404,-0.0266239469038,0.102572406685,0.826623689196,0.560214488879,0.0468557134748,0.0256426407499,-0.00331355895673,0.000784137095955,-0.00737101475925,-0.00168238278798,0.0102808841189,0.0070666571559,2.40297341347,-0.478568971157,0.655073523521,0.214040279388,1.12270796299,-0.0375921875238
2017/07/09/10:14:46.624046,487129,1499566489,429746958,,0.809188938799,-0.0274392517813,0.103445396069,0.826712687071,0.559993532729,0.0473233607352,0.0267184555385,0.00894272072481,0.0185593476846,-0.00139405348279,0.0367947979936,-0.0208589199859,0.00722327085321,1.96082437038,-1.04320502281,1.07912433147,0.318520218134,0.989008486271,0.0186139643192
2017/07/09/10:14:46.633920,487130,1499566489,439758237,,0.808930943992,-0.0265892524381,0.103006353076,0.82659442009,0.560203710091,0.0472904970943,0.0260206987029,-0.00103420735665,-0.00599371676134,-0.00263039111582,-0.00980822212926,-0.0084298563054,-0.00227592242382,2.53716874123,-0.489410042763,0.910299837589,0.17898632586,1.21275615692,-0.0566577762365
2017/07/09/10:14:46.643886,487131,1499566489,449745975,,0.808715644914,-0.0276304520446,0.103109865818,0.826872350185,0.559792332383,0.0471055229192,0.0263767097176,0.00177850134551,-0.00566099459651,0.00584178790888,0.0089581813889,-0.0115321448811,-0.015034732577,2.45167016983,-1.20452368259,0.875161886215,0.349838614464,1.21954417229,-0.00722140073776
2017/07/09/10:14:46.653883,487132,1499566489,459753606,,0.808434833865,-0.0266793251545,0.102568600304,0.826700416592,0.56009503033,0.0469774237063,0.0255558186793,-0.0113952896923,-0.00770894250677,-0.00168553807681,0.0184707325703,0.0128001699923,-0.00968639348083,2.3108651638,-0.475984722376,0.507165849209,0.152561157942,1.14387464523,-0.0354134365916
2017/07/09/10:14:46.663915,487133,1499566489,469744023,,0.808826061727,-0.0266311953674,0.102818942816,0.826686558496,0.560065020707,0.0474821030064,0.0257285148704,0.00529899714726,0.00242418984906,0.00679428732959,-0.00697808028879,-0.00632870705013,0.0100532425735,2.00174450874,-0.567864537239,0.411598771811,0.071354791522,1.05760550499,-0.0897757336497
2017/07/09/10:14:46.673995,487134,1499566489,479780615,,0.809009468162,-0.027248947375,0.103129765275,0.826780166158,0.559904697616,0.0473750061051,0.0263987733133,-0.000301095073538,-0.00417791928453,0.00284680678079,-0.0081480301938,-0.00508726914622,0.00455738575739,2.42639422417,-1.01486086845,0.763410747051,0.199704036117,1.14662563801,-0.0368176326156
2017/07/09/10:14:46.683719,487135,1499566489,489742917,,0.809076526764,-0.0270765943175,0.103566687691,0.82662458143,0.560128822546,0.0474588810336,0.0263658517661,0.00949082199385,0.00529972052718,0.0100549982129,-0.00359970017382,-0.0207410818574,-0.0031232861705,2.35537552834,-0.883607506752,0.927625894547,0.170289829373,1.09999406338,-0.0682615339756
2017/07/09/10:14:46.694176,487136,1499566489,499746862,,0.808366542027,-0.0276875150503,0.103087169977,0.826904668095,0.559771959437,0.0470014048936,0.0259786691079,-0.0061815879599,-0.00628766195687,0.00135977778318,-0.0031070424527,0.0105257014769,-0.00767103123284,2.08525919914,-1.02574145794,0.26719519496,0.175584495068,1.09401786327,-0.0483460649848
2017/07/09/10:14:46.703938,487137,1499566489,509742971,,0.808466362562,-0.0273515448895,0.102951106372,0.826881413998,0.55980553959,0.0470216111636,0.025958680865,-0.0111349063495,-0.0081789659648,-0.0117918874794,0.00479388811361,0.0185652672951,-0.0131648485565,1.64616060257,-0.563755750656,0.0907504484057,0.114877700806,0.875240385532,-0.031938187778
2017/07/09/10:14:46.713972,487138,1499566489,519751483,,0.808996538163,-0.0269644749025,0.103144365834,0.826570181391,0.56023661691,0.0471096815669,0.0264073135949,-0.0130935783126,-0.00254570069154,-0.00954028182322,0.00978945296996,0.020916736085,-0.00793766185753,2.75711488724,-0.372521221638,0.482362776995,0.122462399304,1.19182050228,-0.0578061193228
2017/07/09/10:14:46.723877,487139,1499566489,529742396,,0.808517700106,-0.0272048323452,0.102852319939,0.826770624752,0.559966449261,0.0470273546927,0.0260064926455,-0.00905218604542,0.0128422825775,-0.00960296947819,0.0260838162605,0.0189900237272,0.00190573411441,2.31239843369,-0.796503424644,0.508805274963,0.218277573586,1.06999051571,-0.0117923393846
2017/07/09/10:14:46.733896,487140,1499566489,539749133,,0.808397603318,-0.0277821914397,0.10308514992,0.826933904709,0.559718998935,0.0469622683599,0.0262584238943,-0.00779455460238,-0.00315794355904,-0.00571335253918,0.0113415843417,0.0109713642435,-0.00773326583959,2.93315839767,-1.06535494328,0.543803632259,0.24078014493,1.35405910015,-0.0559670180082
2017/07/09/10:14:46.743807,487141,1499566489,549745808,,0.808046985314,-0.0280157164499,0.102840380498,0.826990909014,0.559657874292,0.0468890914047,0.0258942707663,-0.00316683807274,0.00387030594674,-0.0128085298747,0.0095651615366,0.00645405034523,0.00336378410972,2.35567760468,-1.57975840569,0.492709308863,0.347236275673,1.18034660816,-0.0297341272235
2017/07/09/10:14:46.753979,487142,1499566489,559756826,,0.808655164588,-0.0270119834492,0.102783474146,0.82688135321,0.559779174502,0.0474826334598,0.0256885777572,-0.00391089779132,-0.00849306997458,-0.00417991281266,0.00734679779899,-0.00396746751203,-0.00432486431102,2.32217240334,-0.695139467716,0.277205049992,0.112755253911,1.1343126297,-0.0779799222946
2017/07/09/10:14:46.763899,487143,1499566489,569744221,,0.808583713191,-0.027056596598,0.102612029843,0.827052888658,0.559526708329,0.0475032820114,0.0256285041951,0.00671131935511,-0.0118247190044,0.00733175642691,0.000459028383526,-0.0212093736097,-0.0147500925715,2.17666625977,-0.664205014706,0.399524509907,0.120489932597,1.10996472836,-0.0536551699042
