time,.header.seq,.header.stamp.secs,.header.stamp.nsecs,.header.frame_id,.ch0,.ch1,.ch2,.ch3,.ch4,.ch5,.ch6,.ch7
2017/07/09/10:21:03.483649,213332,1499566863,483469009,0,469,606,350,133,120,121,78,278
2017/07/09/10:21:03.498958,213333,1499566863,498594045,0,537,531,285,138,126,127,89,279
2017/07/09/10:21:03.521272,213334,1499566863,520992040,0,569,505,252,129,121,133,95,236
2017/07/09/10:21:03.544194,213335,1499566863,543895006,0,497,641,346,148,130,119,100,262
2017/07/09/10:21:03.559143,213336,1499566863,558779001,0,463,564,346,158,145,117,102,289
2017/07/09/10:21:03.581035,213337,1499566863,580843925,0,516,567,333,136,126,106,103,293
2017/07/09/10:21:03.603513,213338,1499566863,603300094,0,556,572,333,131,115,92,96,286
2017/07/09/10:21:03.619209,213339,1499566863,618894100,0,533,668,374,139,120,73,87,292
2017/07/09/10:21:03.641423,213340,1499566863,640980005,0,517,542,291,122,111,59,77,259
2017/07/09/10:21:03.664114,213341,1499566863,663779020,0,531,582,322,119,105,54,78,228
2017/07/09/10:21:03.686236,213342,1499566863,686064958,0,455,735,348,124,109,57,72,212
2017/07/09/10:21:03.700959,213343,1499566863,700809955,0,397,701,355,132,112,56,70,215
2017/07/09/10:21:03.725305,213344,1499566863,725078105,0,384,594,316,130,120,60,68,184
2017/07/09/10:21:03.746429,213345,1499566863,746211051,0,398,587,309,126,114,58,68,179
2017/07/09/10:21:03.763287,213346,1499566863,763063907,0,422,561,268,115,110,52,59,159
2017/07/09/10:21:03.783966,213347,1499566863,783689975,0,434,377,212,105,103,47,57,162
2017/07/09/10:21:03.806355,213348,1499566863,805977106,0,429,367,175,95,101,47,57,164
2017/07/09/10:21:03.821044,213349,1499566863,820823907,0,439,365,165,80,84,49,62,170
2017/07/09/10:21:03.844046,213350,1499566863,843734025,0,437,345,164,77,87,51,59,178
2017/07/09/10:21:03.874581,213351,1499566863,874361038,0,545,380,141,65,71,48,58,175
2017/07/09/10:21:03.881343,213352,1499566863,881081104,0,566,385,181,66,71,50,61,178
2017/07/09/10:21:03.903605,213353,1499566863,903400897,0,540,388,202,68,74,50,59,178
2017/07/09/10:21:03.926063,213354,1499566863,925841093,0,532,407,203,70,67,43,57,162
2017/07/09/10:21:03.941236,213355,1499566863,940924882,0,522,422,198,72,62,41,57,148
2017/07/09/10:21:03.964011,213356,1499566863,963669061,0,410,388,194,74,68,45,55,163
2017/07/09/10:21:03.986273,213357,1499566863,986031055,0,373,317,175,76,65,44,55,168
2017/07/09/10:21:04.001256,213358,1499566864,950098,0,344,308,144,70,68,47,56,173
2017/07/09/10:21:04.023661,213359,1499566864,23418903,0,373,278,133,72,84,44,56,170
2017/07/09/10:21:04.046362,213360,1499566864,46224117,0,358,272,143,77,91,44,57,188
2017/07/09/10:21:04.061282,213361,1499566864,61122894,0,437,262,164,85,91,45,61,213
2017/07/09/10:21:04.083864,213362,1499566864,83653926,0,432,312,153,84,96,46,63,217
2017/07/09/10:21:04.106599,213363,1499566864,106256961,0,437,324,154,81,93,42,59,213
2017/07/09/10:21:04.121228,213364,1499566864,120949983,0,454,333,165,79,78,56,61,243
2017/07/09/10:21:04.152059,213365,1499566864,151863098,0,466,383,179,74,68,57,65,237
2017/07/09/10:21:04.166559,213366,1499566864,166171073,0,436,416,181,69,69,61,64,215
2017/07/09/10:21:04.181082,213367,1499566864,180891990,0,457,400,177,74,84,65,64,206
2017/07/09/10:21:04.204023,213368,1499566864,203636884,0,467,390,186,83,101,75,73,232
2017/07/09/10:21:04.226935,213369,1499566864,226452112,0,467,424,189,84,104,65,73,223
2017/07/09/10:21:04.241053,213370,1499566864,240869998,0,477,427,183,87,105,66,73,248
2017/07/09/10:21:04.263908,213371,1499566864,263684988,0,459,428,183,94,120,62,76,248
2017/07/09/10:21:04.286795,213372,1499566864,286458015,0,438,410,182,97,116,67,77,255
2017/07/09/10:21:04.301251,213373,1499566864,300951957,0,465,426,180,106,125,69,76,273
2017/07/09/10:21:04.324116,213374,1499566864,323642969,0,425,445,175,111,134,72,77,277
2017/07/09/10:21:04.346218,213375,1499566864,345952033,0,440,448,183,115,136,72,77,250
2017/07/09/10:21:04.368929,213376,1499566864,368722915,0,384,422,164,107,123,74,75,241
2017/07/09/10:21:04.383988,213377,1499566864,383738994,0,397,436,178,101,119,68,71,245
2017/07/09/10:21:04.406464,213378,1499566864,406146049,0,438,468,193,91,101,57,79,250
2017/07/09/10:21:04.421230,213379,1499566864,421113014,0,442,422,190,82,86,63,79,236
2017/07/09/10:21:04.445281,213380,1499566864,445188999,0,534,359,166,73,97,96,86,255
2017/07/09/10:21:04.466609,213381,1499566864,466329097,0,539,383,167,79,112,101,88,287
2017/07/09/10:21:04.481083,213382,1499566864,480829000,0,554,433,161,89,126,103,93,295
2017/07/09/10:21:04.504078,213383,1499566864,503850936,0,541,381,136,88,123,104,86,269
2017/07/09/10:21:04.526129,213384,1499566864,526017904,0,575,373,138,94,146,110,96,316
2017/07/09/10:21:04.540987,213385,1499566864,540860891,0,501,383,155,100,152,83,95,305
2017/07/09/10:21:04.564034,213386,1499566864,563762903,0,501,424,176,92,140,73,96,299
2017/07/09/10:21:04.586137,213387,1499566864,585850000,0,507,362,185,88,126,76,96,304
2017/07/09/10:21:04.609046,213388,1499566864,608680963,0,500,378,190,92,134,96,116,287
2017/07/09/10:21:04.623506,213389,1499566864,623399019,0,509,393,206,87,113,91,110,250
2017/07/09/10:21:04.646504,213390,1499566864,646161079,0,541,389,197,83,102,94,112,257
2017/07/09/10:21:04.669507,213391,1499566864,669080018,0,560,273,166,84,109,102,113,294
2017/07/09/10:21:04.683596,213392,1499566864,683419942,0,551,268,156,76,108,99,122,292
2017/07/09/10:21:04.706408,213393,1499566864,706067085,0,550,361,224,94,99,89,109,308
2017/07/09/10:21:04.728698,213394,1499566864,728490114,0,542,377,212,98,97,85,112,307
2017/07/09/10:21:04.743991,213395,1499566864,743652105,0,514,371,210,99,100,97,106,323
2017/07/09/10:21:04.766544,213396,1499566864,766247987,0,552,390,222,110,100,106,112,281
2017/07/09/10:21:04.788824,213397,1499566864,788652896,0,551,459,273,118,98,110,98,284
2017/07/09/10:21:04.803515,213398,1499566864,803411006,0,566,380,220,100,99,112,97,281
2017/07/09/10:21:04.826550,213399,1499566864,826158046,0,552,343,214,101,100,111,100,276
2017/07/09/10:21:04.848989,213400,1499566864,848597049,0,545,384,217,106,105,105,103,305
2017/07/09/10:21:04.871580,213401,1499566864,871309041,0,490,424,225,96,99,120,101,350
2017/07/09/10:21:04.887782,213402,1499566864,887594938,0,531,457,174,86,104,119,108,357
2017/07/09/10:21:04.908795,213403,1499566864,908581972,0,506,461,176,87,103,112,101,371
2017/07/09/10:21:04.923540,213404,1499566864,923384904,0,502,458,177,80,104,115,90,382
2017/07/09/10:21:04.946786,213405,1499566864,946329116,0,513,446,202,78,88,110,95,430
2017/07/09/10:21:04.968637,213406,1499566864,968466043,0,545,445,203,88,99,91,88,443
2017/07/09/10:21:04.983530,213407,1499566864,983385086,0,489,359,193,92,101,102,92,427
2017/07/09/10:21:05.006641,213408,1499566865,6119966,0,532,390,205,105,116,105,105,498
2017/07/09/10:21:05.036948,213409,1499566865,36669969,0,602,428,229,109,117,110,102,498
2017/07/09/10:21:05.043861,213410,1499566865,43513059,0,616,442,214,107,121,110,93,437
2017/07/09/10:21:05.066696,213411,1499566865,66437005,0,640,388,193,100,120,103,94,384
2017/07/09/10:21:05.088949,213412,1499566865,88601112,0,638,375,188,101,121,90,87,417
2017/07/09/10:21:05.111679,213413,1499566865,111182928,0,608,398,203,86,100,93,82,309
2017/07/09/10:21:05.126165,213414,1499566865,125876903,0,628,389,185,84,102,95,99,357
2017/07/09/10:21:05.148961,213415,1499566865,148682117,0,640,367,180,83,94,93,102,396
2017/07/09/10:21:05.163947,213416,1499566865,163610935,0,631,416,188,79,83,88,121,477
2017/07/09/10:21:05.186231,213417,1499566865,186028003,0,662,482,231,87,92,89,123,501
2017/07/09/10:21:05.209004,213418,1499566865,208725929,0,718,467,217,90,93,79,121,501
2017/07/09/10:21:05.223911,213419,1499566865,223648071,0,674,585,230,99,109,69,111,468
2017/07/09/10:21:05.246012,213420,1499566865,245810031,0,635,589,238,98,109,75,116,448
2017/07/09/10:21:05.269200,213421,1499566865,268858909,0,629,590,239,120,123,92,106,479
2017/07/09/10:21:05.284025,213422,1499566865,283706903,0,663,569,213,126,122,90,111,474
2017/07/09/10:21:05.306062,213423,1499566865,305874109,0,603,575,226,133,129,90,109,499
2017/07/09/10:21:05.328910,213424,1499566865,328583002,0,590,439,208,126,115,86,111,493
2017/07/09/10:21:05.343792,213425,1499566865,343461036,0,617,502,206,132,125,83,105,483
2017/07/09/10:21:05.366136,213426,1499566865,365958929,0,570,503,216,119,118,63,92,384
2017/07/09/10:21:05.388990,213427,1499566865,388578891,0,610,513,222,104,107,63,88,374
2017/07/09/10:21:05.403620,213428,1499566865,403358936,0,572,493,260,116,110,73,107,402
2017/07/09/10:21:05.427040,213429,1499566865,426557064,0,588,593,299,133,121,76,106,402
2017/07/09/10:21:05.448907,213430,1499566865,448669910,0,573,619,314,133,115,74,110,389
2017/07/09/10:21:05.463622,213431,1499566865,463414907,0,628,625,317,134,111,72,114,381
2017/07/09/10:21:05.486383,213432,1499566865,486205101,0,582,626,317,141,123,76,116,333
2017/07/09/10:21:05.508744,213433,1499566865,508480072,0,579,641,268,129,120,63,102,272
2017/07/09/10:21:05.523962,213434,1499566865,523585081,0,541,588,249,112,105,63,109,305
2017/07/09/10:21:05.546628,213435,1499566865,546251058,0,574,518,238,118,116,72,109,328
2017/07/09/10:21:05.568628,213436,1499566865,568394899,0,548,576,242,111,115,75,117,351
2017/07/09/10:21:05.591522,213437,1499566865,591258049,0,586,545,235,115,120,73,115,411
2017/07/09/10:21:05.606120,213438,1499566865,605950117,0,625,527,254,118,116,75,113,423
2017/07/09/10:21:05.629343,213439,1499566865,628689050,0,661,492,239,119,119,73,114,445
2017/07/09/10:21:05.651456,213440,1499566865,651129961,0,600,515,224,126,128,67,110,436
2017/07/09/10:21:05.666370,213441,1499566865,665930986,0,611,420,199,125,123,68,94,412
2017/07/09/10:21:05.688525,213442,1499566865,688339948,0,520,404,193,116,106,69,103,377
2017/07/09/10:21:05.711307,213443,1499566865,711096048,0,629,434,170,105,100,71,110,383
2017/07/09/10:21:05.726134,213444,1499566865,725907087,0,606,453,168,98,96,73,109,361
2017/07/09/10:21:05.748789,213445,1499566865,748533964,0,650,433,196,81,73,72,119,356
2017/07/09/10:21:05.771445,213446,1499566865,771007061,0,654,396,203,80,76,68,125,368
2017/07/09/10:21:05.786582,213447,1499566865,786410093,0,636,396,197,79,83,66,116,384
2017/07/09/10:21:05.808701,213448,1499566865,808495998,0,511,440,215,82,85,61,108,361
2017/07/09/10:21:05.831394,213449,1499566865,831192970,0,483,408,211,91,89,60,101,318
2017/07/09/10:21:05.846467,213450,1499566865,846273899,0,414,367,185,88,84,56,81,333
2017/07/09/10:21:05.869087,213451,1499566865,868789911,0,388,416,187,91,94,62,82,310
2017/07/09/10:21:05.891118,213452,1499566865,890988111,0,419,480,202,93,90,63,86,339
2017/07/09/10:21:05.906282,213453,1499566865,906033992,0,467,414,187,94,92,64,84,341
2017/07/09/10:21:05.928731,213454,1499566865,928565025,0,459,418,175,89,90,64,84,351
2017/07/09/10:21:05.951451,213455,1499566865,951205015,0,485,459,177,81,92,64,92,346
2017/07/09/10:21:05.966307,213456,1499566865,966056108,0,503,438,183,117,116,69,87,368
2017/07/09/10:21:05.988559,213457,1499566865,988428115,0,510,360,163,124,121,68,78,310
2017/07/09/10:21:06.011556,213458,1499566866,11002063,0,515,357,165,135,125,69,93,413
2017/07/09/10:21:06.026329,213459,1499566866,26170969,0,536,347,163,132,122,67,94,441
2017/07/09/10:21:06.057935,213460,1499566866,57035923,0,533,354,162,132,126,70,91,445
2017/07/09/10:21:06.071702,213461,1499566866,71219921,0,525,362,159,104,108,61,92,439
2017/07/09/10:21:06.086625,213462,1499566866,86277961,0,516,387,157,88,100,60,93,434
2017/07/09/10:21:06.108647,213463,1499566866,108335018,0,430,399,149,68,95,61,80,350
2017/07/09/10:21:06.131506,213464,1499566866,131297111,0,414,415,154,72,103,65,79,333
2017/07/09/10:21:06.146554,213465,1499566866,146095991,0,455,363,151,69,90,58,73,322
2017/07/09/10:21:06.169083,213466,1499566866,168792009,0,406,346,128,58,72,54,71,314
2017/07/09/10:21:06.191219,213467,1499566866,191032886,0,467,313,141,60,68,48,71,372
2017/07/09/10:21:06.205987,213468,1499566866,205857038,0,471,272,131,59,81,47,69,361
2017/07/09/10:21:06.228935,213469,1499566866,228602886,0,477,273,154,59,73,45,67,351
2017/07/09/10:21:06.251450,213470,1499566866,251199960,0,458,269,159,67,78,50,73,342
2017/07/09/10:21:06.266353,213471,1499566866,266145944,0,461,265,167,73,79,50,69,347
2017/07/09/10:21:06.288687,213472,1499566866,288503885,0,400,268,161,71,80,51,63,278
2017/07/09/10:21:06.311325,213473,1499566866,311049938,0,458,271,161,69,66,47,80,280
2017/07/09/10:21:06.326115,213474,1499566866,325870990,0,432,359,149,66,66,47,78,265
2017/07/09/10:21:06.348948,213475,1499566866,348671913,0,392,392,145,62,64,44,77,263
2017/07/09/10:21:06.371293,213476,1499566866,371103048,0,458,391,139,57,66,45,81,242
2017/07/09/10:21:06.386598,213477,1499566866,386346101,0,475,388,134,65,71,50,84,228
2017/07/09/10:21:06.409379,213478,1499566866,408943891,0,464,473,167,76,80,57,83,310
2017/07/09/10:21:06.431146,213479,1499566866,430860996,0,508,399,161,83,88,58,85,327
2017/07/09/10:21:06.446370,213480,1499566866,446054935,0,509,372,161,81,86,57,84,375
2017/07/09/10:21:06.469138,213481,1499566866,468602895,0,497,424,165,85,91,60,93,396
2017/07/09/10:21:06.491301,213482,1499566866,491033077,0,519,459,182,81,88,57,93,409
2017/07/09/10:21:06.513948,213483,1499566866,513526916,0,523,371,154,74,83,50,82,370
2017/07/09/10:21:06.536909,213484,1499566866,536588907,0,491,360,146,65,73,50,80,346
2017/07/09/10:21:06.551373,213485,1499566866,551131010,0,487,369,143,68,79,56,89,327
2017/07/09/10:21:06.574211,213486,1499566866,573901891,0,472,313,177,77,73,53,77,319
