time,.header.seq,.header.stamp.secs,.header.stamp.nsecs,.header.frame_id,.pose.position.x,.pose.position.y,.pose.position.z,.pose.orientation.x,.pose.orientation.y,.pose.orientation.z,.pose.orientation.w,.twist.linear.x,.twist.linear.y,.twist.linear.z,.twist.angular.x,.twist.angular.y,.twist.angular.z,.wrench.force.x,.wrench.force.y,.wrench.force.z,.wrench.torque.x,.wrench.torque.y,.wrench.torque.z
2017/07/09/10:18:49.642958,511431,1499566732,449723074,,0.781777714433,0.394808502228,0.168699210495,0.624786958408,0.778224077952,0.0547209581473,0.0318458449278,0.00450046548695,-0.0508555631308,0.00428983491419,-0.0305125585488,0.00520841004809,-0.0423022878856,6.65866041183,2.75803089142,-1.49317359924,-0.907534718513,2.25524306297,-0.208748444915
2017/07/09/10:18:49.653138,511432,1499566732,459759779,,0.781211095318,0.394286387778,0.167960902581,0.624933758619,0.778173517597,0.0541076633361,0.0312431531322,0.00755569842538,-0.0337314878436,0.00256425285939,-0.016460185462,-0.00822391171012,-0.0281761778459,6.84971809387,2.82120084763,-1.36442351341,-0.889504671097,2.34204220772,-0.204920902848
2017/07/09/10:18:49.663048,511433,1499566732,469722439,,0.781570343203,0.393546230199,0.168150370568,0.625156244864,0.777972437563,0.0541814818284,0.0316689584134,0.000790901811828,-0.0372951643173,-0.00559154062654,-0.00812927541232,0.00717369395511,-0.0490371428336,6.71848487854,2.7173242569,-1.51452994347,-0.903691232204,2.27357292175,-0.225729733706
2017/07/09/10:18:49.673266,511434,1499566732,479730863,,0.781872197407,0.393108619813,0.1683796672,0.625488518266,0.777683869799,0.0544036378292,0.0318144049574,0.0109404207548,-0.0690231486879,0.00190657345885,-0.0056421704089,0.0036125774112,-0.0836608741668,6.82982873917,2.7450530529,-1.45427882671,-0.954586625099,2.34825158119,-0.253210395575
2017/07/09/10:18:49.682940,511435,1499566732,489722013,,0.782041470803,0.392190878309,0.168009725153,0.626145841116,0.777170435085,0.0543226691692,0.0315681500489,0.026044880893,-0.0679912999074,0.0138750843834,0.0157747635213,-0.0308656831163,-0.100305578797,6.8940038681,2.8999581337,-1.40817248821,-1.02961659431,2.38279438019,-0.242427811027
2017/07/09/10:18:49.693043,511436,1499566732,499727939,,0.782217501649,0.391658455689,0.168218084747,0.626403685143,0.776952035719,0.0543351630236,0.0318064064316,0.0193056044427,-0.056606348875,-0.000746074610425,0.0118886996208,-0.0140316716226,-0.0943925763477,6.44702672958,2.84215736389,-1.51234614849,-0.976409912109,2.21915388107,-0.229635685682
2017/07/09/10:18:49.703040,511437,1499566732,509725536,,0.782422831897,0.391512520848,0.168411468635,0.626648791341,0.776734688856,0.054666435768,0.0317190201495,0.00711121100678,-0.0559483989159,-0.00516621434367,0.0108507228149,0.0108646841465,-0.100138170502,6.64424848557,2.77862763405,-1.43404197693,-0.914751768112,2.30033063889,-0.205471783876
2017/07/09/10:18:49.713133,511438,1499566732,519734111,,0.782342379119,0.390335691984,0.168278229619,0.626720583579,0.776705374643,0.0542134422844,0.0317958140975,0.0122138963174,-0.0662919357395,0.00542940364646,0.000293457668815,-0.00198457546176,-0.0903242625734,6.47857999802,2.89577770233,-1.4271440506,-1.08645939827,2.21556591988,-0.264432132244
2017/07/09/10:18:49.723066,511439,1499566732,529724091,,0.782358393906,0.390056847355,0.168282185448,0.627406919453,0.77614919095,0.0544166197516,0.0314932104604,0.0214325565461,-0.0771555279108,0.00120975027316,-0.0156354388582,-0.0203573769796,-0.0873197945412,7.70215272903,4.46424770355,-1.46991407871,-1.90786206722,2.64190411568,-0.471780717373
2017/07/09/10:18:49.733117,511440,1499566732,539721620,,0.782538944301,0.389847281636,0.168263447057,0.627519972695,0.776045900684,0.0544830787026,0.0316707757325,-0.000452115095694,-0.0768621981023,-0.00970260229974,-0.0237899138846,0.032514915282,-0.112318614554,8.22732639313,6.11085128784,-1.46936404705,-2.67343187332,2.80424284935,-0.591322302818
2017/07/09/10:18:49.743246,511441,1499566732,549721374,,0.782689555005,0.388521694676,0.168242211052,0.627607031713,0.775988695762,0.053946026555,0.0322611843016,0.0168210538446,-0.0756587211401,-0.000258463393569,-0.0270253270882,-0.0121985465727,-0.10733409783,8.40183544159,6.90027284622,-1.50116610527,-2.9950568676,2.84530162811,-0.66474288702
2017/07/09/10:18:49.752967,511442,1499566732,559724328,,0.782550662374,0.387559821151,0.167759384492,0.628665255778,0.775185281915,0.0533922215244,0.0318911517606,0.0148663141028,-0.0905701346867,0.00071475889451,-0.0297839560164,-0.00161442328911,-0.117354414695,8.41258049011,6.86560153961,-1.54555809498,-2.89180231094,2.84544229507,-0.599334359169
2017/07/09/10:18:49.763116,511443,1499566732,569726457,,0.783444454126,0.386204643594,0.168329759588,0.628815646068,0.774999898361,0.0536698093475,0.0329483287204,0.010124087006,-0.115182280936,-0.00999518756512,-0.0641223832042,0.0172807140048,-0.130487906914,8.28589248657,6.44402170181,-1.55561470985,-2.5625936985,2.8350481987,-0.509634196758
2017/07/09/10:18:49.773107,511444,1499566732,579727973,,0.783120493143,0.385289013184,0.168042701084,0.629311340081,0.774640776408,0.0530977566102,0.0328562477246,0.0304650077686,-0.0939492374425,0.00719683602207,-0.0479178272054,-0.0395268681598,-0.131135929447,8.30734539032,6.3637509346,-1.58276689053,-2.4731259346,2.88003277779,-0.493914008141
2017/07/09/10:18:49.783109,511445,1499566732,589731207,,0.783831003,0.384988072864,0.168388878166,0.629831229375,0.774156145193,0.0538087812828,0.0331587155889,0.0252560001331,-0.112719498244,0.000374677484131,-0.0616133686625,-0.0262011959599,-0.11394689634,8.83363437653,6.41683101654,-1.62099671364,-2.44460082054,3.10646009445,-0.476681470871
2017/07/09/10:18:49.793454,511446,1499566732,599728124,,0.783957664403,0.38404554981,0.168205066452,0.629916456133,0.774108786874,0.0533820705375,0.0333346504758,0.0237421959987,-0.117148478372,-0.000966166036518,-0.069065375991,-0.0164017162391,-0.134813389084,8.58751106262,6.6939496994,-1.64597773552,-2.66042160988,3.00227975845,-0.556284427643
2017/07/09/10:18:49.803375,511447,1499566732,609719798,,0.783973216457,0.383038261657,0.16848805031,0.629953855379,0.774084057078,0.0530756889688,0.0336895222774,0.0151634322928,-0.085518190809,0.00371968816373,-0.0444228173085,-0.0126374223294,-0.109096676946,8.67629718781,7.10805225372,-1.74617981911,-2.76192617416,3.02815675735,-0.547835826874
2017/07/09/10:18:49.813155,511448,1499566732,619727952,,0.78400102021,0.382282226035,0.168133412539,0.630471824188,0.773686401015,0.0526931310695,0.0337352297633,0.0201027059625,-0.088556856986,0.00182890175821,-0.0423497147251,-0.0159642239153,-0.0958601898344,8.38052845001,6.99728155136,-1.85051071644,-2.6174890995,2.96141958237,-0.500284850597
2017/07/09/10:18:49.823444,511449,1499566732,629727199,,0.784291000274,0.380728285779,0.168038523649,0.631291660421,0.773009362358,0.0524281885268,0.0343314759042,0.0280873216647,-0.104401701296,-0.00798690917637,-0.0593697665739,-0.0208904223195,-0.130618940426,7.58099746704,6.51055431366,-1.88668787479,-2.35248804092,2.67175984383,-0.450677990913
2017/07/09/10:18:49.833245,511450,1499566732,639726369,,0.785158277857,0.378818933911,0.167921060472,0.632127024255,0.772303592336,0.0523976495256,0.034886570429,0.0201420312017,-0.11001915078,-0.0131553055469,-0.0579299361271,-0.00458678569185,-0.143753226894,7.09612703323,6.05616950989,-1.85057091713,-2.02829480171,2.55553770065,-0.381579995155
2017/07/09/10:18:49.843477,511451,1499566732,649722289,,0.784622958896,0.37844974601,0.167786744828,0.632355292773,0.772166740654,0.0518083601468,0.0346583633377,0.0350375625954,-0.117730571371,0.000504398623899,-0.0842392940062,-0.0451858415638,-0.119261070935,6.95909500122,6.39628887177,-1.97152006626,-2.22947335243,2.47709703445,-0.472483187914
2017/07/09/10:18:49.853067,511452,1499566732,659725149,,0.785337615436,0.376346112066,0.168191592149,0.632796131258,0.771769650671,0.0514718255552,0.0359348541484,0.0263595216174,-0.120769840744,-0.00686536902922,-0.103855509186,-0.0273171311385,-0.108528677871,6.7938117981,6.74755096436,-1.83416152,-2.27703046799,2.4804661274,-0.457836061716
2017/07/09/10:18:49.863145,511453,1499566732,669721168,,0.785905130443,0.376182232584,0.168143428466,0.633141425754,0.771457222139,0.0517672765836,0.0361363871821,0.0313422731245,-0.110873066472,-0.00335792116937,-0.0872532936855,-0.0338592887586,-0.108654716131,7.3771686554,7.15759706497,-1.80967390537,-2.47957897186,2.73407816887,-0.520551085472
2017/07/09/10:18:49.873096,511454,1499566732,679724618,,0.785845542536,0.374581774904,0.167941734179,0.633858714651,0.770895446783,0.051195250285,0.0363646303136,0.0214860576968,-0.0928759469654,-0.00883611575039,-0.0736276743117,-0.0226585079197,-0.0959314754964,6.49995565414,6.07881116867,-1.47801780701,-2.12018704414,2.41970825195,-0.407531321049
2017/07/09/10:18:49.882956,511455,1499566732,689725683,,0.786458082439,0.372884299574,0.168046985602,0.634506926239,0.770336231739,0.0511779200072,0.0369306258884,0.0210738804937,-0.127618910654,-0.0134046852403,-0.0782650349329,-0.00801683053797,-0.149131508755,4.46554279327,2.49299883842,-0.885740399361,-0.75011909008,1.68160629272,-0.141989469528
2017/07/09/10:18:49.893116,511456,1499566732,699721326,,0.786471428081,0.371940839235,0.168070158152,0.635053252953,0.769892386501,0.0510431551458,0.0369820961164,0.0234160616843,-0.171635903469,-0.00121273834381,-0.0960070428482,-0.0165308092362,-0.191151690416,4.55610752106,2.10470700264,-0.369923055172,-1.09945738316,1.68352437019,-0.409884572029
2017/07/09/10:18:49.903399,511457,1499566732,709721316,,0.786507725284,0.369920938677,0.16750166004,0.635803590665,0.769309808001,0.0501514523916,0.0374305387948,0.0329307610323,-0.163142289955,-0.0045266991895,-0.0768602633161,-0.0364055275937,-0.218951261256,5.51594257355,2.09707450867,0.134346693754,-1.12127363682,2.1062605381,-0.317384243011
2017/07/09/10:18:49.913351,511458,1499566732,719723610,,0.786613661845,0.368876463627,0.167397770341,0.636545752126,0.768704886785,0.0500643842781,0.0373612086327,0.0218998970236,-0.17628341791,-0.0103050057272,-0.0915364431958,-0.00179926168508,-0.231957388634,6.8606762886,2.32202363014,-0.169584721327,-1.21228730679,2.54944801331,-0.290754854679
2017/07/09/10:18:49.923064,511459,1499566732,729721103,,0.786785552098,0.366531522286,0.167474023408,0.637328394321,0.768080505699,0.0491545677665,0.0380615688717,0.00937788827877,-0.184132125853,-0.0151334980057,-0.114789939961,0.0319650692635,-0.222135519865,7.44029903412,1.9677311182,-0.453244388103,-0.806411147118,2.75742411613,-0.120790585876
2017/07/09/10:18:49.932927,511460,1499566732,739722853,,0.78716768318,0.364228043579,0.16741316671,0.638309527046,0.767267338719,0.0486287149677,0.0386914292601,0.0126593319718,-0.220323927165,-0.0271536970796,-0.149720007834,0.0455389069598,-0.243644357912,6.15113592148,0.404906749725,-0.681319117546,0.20492605865,2.24999022484,0.0991868674755
2017/07/09/10:18:49.943105,511461,1499566732,749731149,,0.787007314964,0.361583117458,0.166577318456,0.639722401887,0.7661682342,0.0476503037619,0.0383527571208,0.0389807745328,-0.244286222252,0.00221394328672,-0.155939672067,-0.0209340471184,-0.271529678712,5.67264986038,-0.582482218742,-0.579702436924,0.753093183041,2.12414193153,0.130610600114
2017/07/09/10:18:49.953137,511462,1499566732,759728348,,0.787301217288,0.359862266827,0.166527209785,0.640073386153,0.765858593646,0.0473393402185,0.0390597202514,0.0365001107516,-0.246276590113,0.00230226390148,-0.132012998265,-0.0176203351776,-0.26984619468,5.92369318008,-0.624680101871,-0.576323568821,0.662556886673,2.26531553268,0.0935793891549
2017/07/09/10:18:49.963296,511463,1499566732,769722086,,0.78800179653,0.358001546499,0.166981851352,0.641045260836,0.765006688676,0.0474323700213,0.0396977343833,0.0456066474744,-0.215241229242,-0.00426035977759,-0.0837020483408,-0.0465727292704,-0.244208331712,6.2674446106,0.461274445057,-0.534774243832,-0.0304263010621,2.36802148819,-0.0863250792027
2017/07/09/10:18:49.973234,511464,1499566732,779728888,,0.788145379313,0.356645061497,0.166851281674,0.642041990199,0.764169884742,0.0474218127377,0.0397195386549,0.0283913487876,-0.166096253346,-0.01526100681,-0.0213027751241,-0.00905647876003,-0.219286294617,6.5988984108,1.46593976021,-0.402656376362,-0.564255595207,2.5084502697,-0.113783232868
2017/07/09/10:18:49.982944,511465,1499566732,789725462,,0.788782268508,0.35494754326,0.166865083626,0.642805670814,0.76350212157,0.0476269992633,0.0399630938408,0.0196404181899,-0.152937560184,-0.0236652131922,-0.0102533152516,0.0167236919569,-0.223163727225,6.80300092697,2.35025382042,-0.376322567463,-1.07347142696,2.58926606178,-0.2142277807
2017/07/09/10:18:49.993063,511466,1499566732,799718619,,0.788599009852,0.353651198541,0.166696390338,0.643570912054,0.76288894653,0.0473923327766,0.039634621404,0.0260104873366,-0.167271430517,-0.0021825524689,-0.00946638394462,-0.00350762503486,-0.238384791225,6.37514209747,2.15305948257,-0.46965944767,-0.982462048531,2.37462353706,-0.221113115549
2017/07/09/10:18:50.002962,511467,1499566732,809726611,,0.789487458806,0.350687108086,0.166754520383,0.644570177329,0.762010363955,0.0471513743608,0.0405738785386,0.026477753289,-0.18894946188,0.0105975074432,-0.0566820981515,-0.0158062028641,-0.213367747614,5.70715713501,2.01217007637,-0.386566877365,-0.766052544117,2.16811299324,-0.150944083929
2017/07/09/10:18:50.013304,511468,1499566732,819728595,,0.789366370049,0.348590787874,0.166761420413,0.645434313981,0.76129459624,0.0466874543138,0.0408088921864,0.0389516644169,-0.228290561703,0.00621498714779,-0.0950573020904,-0.041241831668,-0.257888476465,6.18214321136,2.1584687233,-0.355215847492,-0.878157258034,2.34492254257,-0.25706833601
2017/07/09/10:18:50.022965,511469,1499566732,829726435,,0.789580278944,0.347042945053,0.166802025241,0.646438313118,0.760438346625,0.0466474335146,0.0409273168099,0.0109986743284,-0.223818789067,-0.0161194059756,-0.0555185532333,0.0312413422739,-0.274794242926,6.77754974365,2.06705594063,-0.520136773586,-0.877210974693,2.54193019867,-0.251028269529
2017/07/09/10:18:50.032874,511470,1499566732,839721664,,0.789988777274,0.344846078539,0.166925298087,0.64768755443,0.759363989686,0.0468422100878,0.0409019603375,0.0241161075418,-0.206892799831,0.000415347100387,-0.0143195399771,0.00104486335585,-0.276830420362,6.95557355881,2.09088039398,-0.566023349762,-0.873448550701,2.61638784409,-0.238548830152
2017/07/09/10:18:50.042911,511471,1499566732,849723991,,0.790350831235,0.342262084001,0.167543244263,0.649014214922,0.758215372048,0.0468253131809,0.0411993745741,0.0306428265112,-0.215423287194,0.021199268495,0.00437214571939,-0.026739547138,-0.305403239106,7.13018465042,2.24558138847,-0.594745337963,-0.938335776329,2.68344497681,-0.243398845196
2017/07/09/10:18:50.052936,511472,1499566732,859727925,,0.790604975282,0.340114293186,0.167043868084,0.649777071702,0.757575301367,0.0464043006292,0.0414253633977,0.0394454244789,-0.232239261646,0.0176299207093,-0.00820929398507,-0.0386386224599,-0.318813050172,6.33968544006,2.01810646057,-0.529858708382,-0.806231319904,2.39045548439,-0.233931571245
2017/07/09/10:18:50.062937,511473,1499566732,869722561,,0.79066306342,0.337884245163,0.166897615302,0.651062673384,0.756485742303,0.046206611572,0.0413722861895,0.0365791350218,-0.244282724274,-0.00196751606226,-0.0142711355112,-0.0141472257708,-0.344212723649,6.17966365814,2.06554174423,-0.71538412571,-0.86404800415,2.32248783112,-0.265735626221
2017/07/09/10:18:50.073122,511474,1499566732,879728920,,0.791045601221,0.336174951902,0.167124872843,0.652010553686,0.755648928603,0.0464811331699,0.0414299269039,0.0270625856447,-0.226524644802,-0.000440043032951,-0.00433428975316,-0.00657085323625,-0.304093305269,5.68426799774,1.7931355238,-0.715301692486,-0.6850066185,2.18662858009,-0.194965332747
2017/07/09/10:18:50.082912,511475,1499566732,889725260,,0.79160663704,0.333503983945,0.167101903192,0.653527553058,0.754309634232,0.0465488781536,0.0418558841976,0.0327830688536,-0.218709153338,0.00693126194715,0.0140485650767,-0.0212088313691,-0.298148718229,4.74583244324,1.85201442242,-0.831901848316,-0.700321137905,1.82874071598,-0.212716579437
2017/07/09/10:18:50.093063,511476,1499566732,899728382,,0.792184471298,0.331997527157,0.167218401817,0.654366886963,0.753549052761,0.0470266035521,0.0419082436701,0.0434561884045,-0.225605889781,0.00631166855775,0.0148376913547,-0.0437712448368,-0.320651750903,4.82789516449,1.85970294476,-0.595616042614,-0.731108725071,1.93168067932,-0.206302791834
2017/07/09/10:18:50.103225,511477,1499566732,909719964,,0.792040549416,0.329346604421,0.166774997033,0.655590520499,0.752531874497,0.0463561610207,0.0418085354088,0.0341747501129,-0.227674567257,-0.00287316552669,0.00801744520458,-0.0254632117565,-0.317336639131,4.40506696701,1.5086786747,-0.617440581322,-0.549417257309,1.79431509972,-0.195855513215
2017/07/09/10:18:50.113123,511478,1499566732,919728442,,0.792475574182,0.32699918451,0.167046438095,0.656770315625,0.751472218976,0.0466484718984,0.0420259050081,0.0312640066731,-0.27283683475,-0.00140627177981,-0.0127841168831,-0.0173758837492,-0.37145276089,4.09153604507,1.04230737686,-0.518622100353,-0.347963154316,1.69953179359,-0.120504394174
2017/07/09/10:18:50.122920,511479,1499566732,929722185,,0.792935722124,0.324348188017,0.167353371646,0.658408418979,0.750004628372,0.047036545459,0.0421778926682,0.0345234002609,-0.265941231617,0.0013287145092,0.0146770666977,-0.0260299040796,-0.365553150296,4.30007648468,0.815914750099,-0.373710036278,-0.169902950525,1.82865774632,-0.0744651481509
2017/07/09/10:18:50.132823,511480,1499566732,939723104,,0.793150355724,0.321150386204,0.167118013426,0.659810017231,0.748785432427,0.046729322614,0.042278691504,0.0273347052344,-0.251684710074,0.00319604769394,0.0148354474812,-0.0209093366654,-0.367193380383,4.48809766769,0.680358290672,-0.293841391802,-0.147034883499,1.88952076435,-0.076442733407
2017/07/09/10:18:50.143107,511481,1499566732,949720636,,0.793134771901,0.319174446821,0.167005090015,0.660822777494,0.747904992501,0.0466199930613,0.0421658058599,0.0158430918857,-0.275075322942,0.000111595624557,0.0124820492384,0.0119953573939,-0.387221597782,4.91864585876,0.800591289997,-0.215119361877,-0.215089559555,2.02695322037,-0.102911025286
2017/07/09/10:18:50.153206,511482,1499566732,959731895,,0.793310961831,0.316384723184,0.166867709841,0.662552392182,0.746390750476,0.0463544778881,0.0421478065564,-0.00164423086709,-0.271644712718,-0.0142234697723,-0.00800245721578,0.0568401715921,-0.366172709261,5.38031244278,1.2462733984,-0.310245424509,-0.440764904022,2.16082286835,-0.157404527068
2017/07/09/10:18:50.163461,511483,1499566732,969722141,,0.792962701704,0.314005803747,0.166981827719,0.663463368058,0.745624219362,0.0459545623362,0.0418217759748,0.00591779771889,-0.288251851084,-0.0117805679424,-0.0235958187562,0.0380888537252,-0.385500035096,5.20574426651,1.27490377426,-0.372187823057,-0.485721707344,2.03436684608,-0.154152899981
2017/07/09/10:18:50.173140,511484,1499566732,979726354,,0.793386229679,0.310880689629,0.167152584854,0.665403138619,0.743869770911,0.0459810557354,0.0422157500731,0.0138970386473,-0.295200542021,0.00758589967666,-0.0152571569852,0.0105844229491,-0.388188205302,5.17644548416,1.00261282921,-0.306183278561,-0.590430855751,1.99768936634,-0.226893901825
2017/07/09/10:18:50.183230,511485,1499566732,989721486,,0.793296575477,0.307547623945,0.166617248557,0.666829130138,0.742640309838,0.0454209825214,0.0419668410697,0.0257272718584,-0.306414110446,0.0110165146585,-0.00818055885986,-0.0120818783108,-0.426503905232,4.66142272949,0.61818665266,-0.35172700882,-0.308093130589,1.7822085619,-0.149597600102
2017/07/09/10:18:50.193207,511486,1499566732,999726740,,0.793280675221,0.305027151957,0.166408471844,0.668027544013,0.741570012457,0.0451942834966,0.0420784244402,0.0231301171363,-0.287263549798,0.0080198421402,0.00307643771787,-0.012307668542,-0.391978998411,4.80244588852,0.866944134235,-0.382582724094,-0.502850830555,1.83381938934,-0.18716776371
2017/07/09/10:18:50.203218,511487,1499566733,9723929,,0.794053780586,0.302627118573,0.167121265296,0.66954177948,0.740141430679,0.0457736839355,0.0425351382026,0.0140128537968,-0.285160707187,-0.0110907811861,-0.00323277632286,0.0117646311144,-0.380311383519,4.46930599213,1.00208079815,-0.311180531979,-0.49565628171,1.7128674984,-0.181865572929
2017/07/09/10:18:50.213229,511488,1499566733,19725000,,0.794086522793,0.299042582374,0.166604964445,0.67123530389,0.738638774634,0.0453679348392,0.0423990319102,0.0245899031022,-0.303564633248,-0.000813478182404,0.024715646623,-0.0146404715669,-0.433809456146,4.15393972397,0.451894462109,-0.313269525766,-0.331490367651,1.61529386044,-0.158134698868
2017/07/09/10:18:50.223033,511489,1499566733,29721820,,0.794650435024,0.296254485266,0.167032504035,0.672791647145,0.737173251521,0.0456960764128,0.0428819935884,0.0213568997066,-0.312478862335,-0.00468583640265,0.00461055571329,-0.00615668605046,-0.41520604748,3.68181490898,0.470291018486,-0.159465387464,-0.342427790165,1.44926702976,-0.189140245318
2017/07/09/10:18:50.233232,511490,1499566733,39727150,,0.794645385044,0.293022415723,0.166925056118,0.674167544633,0.73592673581,0.0454386068378,0.042956888764,0.0230984981426,-0.305110724214,0.00325027249041,-0.00928828702422,-0.020464354505,-0.397958112398,2.81082820892,0.400612235069,-0.136056482792,-0.313288927078,1.12697947025,-0.180343866348
2017/07/09/10:18:50.243131,511491,1499566733,49730225,,0.794644117372,0.290496462855,0.166718060741,0.675422985839,0.734790712177,0.0455529545717,0.0425596972249,0.0203524816909,-0.311951744714,0.0129146525049,-0.0140221781957,-0.0240383973362,-0.415877332008,2.69363093376,0.280956029892,-0.100577287376,-0.351301461458,1.13029837608,-0.190635889769
2017/07/09/10:18:50.253040,511492,1499566733,59728829,,0.794271497542,0.287851950022,0.166062967624,0.676936874498,0.73345759209,0.0448905344123,0.0422050763544,0.00595477784539,-0.315619066668,-0.0116107652888,0.0017228088497,0.0218246627086,-0.445439231736,2.22339296341,0.328847616911,-0.0217921566218,-0.328569084406,0.955405533314,-0.170972183347
2017/07/09/10:18:50.263074,511493,1499566733,69720885,,0.794467118785,0.28501882924,0.166352984139,0.678499586789,0.73199379795,0.0450134426656,0.0423931653581,-0.00273662958148,-0.3100184769,-0.0207405001995,0.0154113861803,0.043025715569,-0.45549213102,2.76303768158,0.272333323956,0.236564427614,-0.344534188509,1.18122851849,-0.198058232665
2017/07/09/10:18:50.273103,511494,1499566733,79722793,,0.794990137728,0.28146845922,0.166788661655,0.680288116565,0.730277069295,0.0453573463771,0.0429673323865,0.00735500790081,-0.303532842968,-0.00333561667879,0.0505058831875,0.00879482496109,-0.453270446942,2.90204238892,0.416082143784,0.422121733427,-0.438224047422,1.20832180977,-0.203124344349
2017/07/09/10:18:50.283274,511495,1499566733,89745353,,0.794779346732,0.278538106846,0.166287530447,0.681392923517,0.729292177872,0.0447962014146,0.042777370355,0.0056233957877,-0.327127917907,0.00459138769016,0.0103658354608,0.00195095928998,-0.438310729336,2.72232651711,-0.00566636025906,0.562877953053,-0.243694603443,1.12952589989,-0.168027892709
2017/07/09/10:18:50.292798,511496,1499566733,99721567,,0.794845959726,0.275298656982,0.166330995339,0.68341973902,0.727391744447,0.0449216788995,0.042670284669,-0.00583064089535,-0.336737726725,-0.00792150092321,-0.0189532968843,0.0271512993247,-0.415819407047,2.74054169655,0.0435715019703,0.548976838589,-0.332896500826,1.09794163704,-0.218425214291
2017/07/09/10:18:50.303191,511497,1499566733,109720727,,0.794933566926,0.271801012323,0.166343415691,0.685186382988,0.725725757308,0.0447233566729,0.0429134840833,-0.0147381974058,-0.324759772739,-0.0175634058194,-0.0178708492729,0.0417333039595,-0.4303981161,2.79406070709,-0.0729578137398,0.677049696445,-0.229375839233,1.16269659996,-0.201254740357
2017/07/09/10:18:50.313599,511498,1499566733,119728994,,0.795021851715,0.269277881634,0.166497642298,0.686148694617,0.72479709262,0.0448379096374,0.0431127042206,0.0149194103213,-0.326495892516,0.0129842382218,-0.00581275919546,-0.0317796954478,-0.443499353317,2.56251239777,-0.302532345057,0.839100956917,-0.0822817385197,1.10723543167,-0.169543877244
2017/07/09/10:18:50.323167,511499,1499566733,129722714,,0.79533742291,0.265707997478,0.166368029808,0.687691551323,0.723317669397,0.0445241536025,0.0436975871456,0.0110842411605,-0.328966439531,-0.000490840123593,-0.0047704598458,-0.0150508516857,-0.444601860239,2.31193256378,-0.39396494627,1.00911343098,-0.108273938298,1.00580513477,-0.201195165515
2017/07/09/10:18:50.333132,511500,1499566733,139728410,,0.794989869897,0.262142698743,0.166471765568,0.689326150729,0.721788511569,0.0440665779621,0.0436914087063,0.00733033088633,-0.333945200529,-0.00499766080803,-0.0313504057621,-0.0134498534271,-0.433154373617,2.21086549759,0.158862441778,1.25264728069,-0.342007547617,1.03630375862,-0.25261130929
2017/07/09/10:18:50.342993,511501,1499566733,149721072,,0.79577773218,0.258997517511,0.166774020313,0.690983639357,0.720125359803,0.0446285810032,0.0443775401158,0.000236690230771,-0.337145981698,-0.0045216846467,-0.0488105046966,0.00247806641196,-0.417691445983,2.12655758858,1.61335492134,1.28424286842,-1.04728150368,0.973361432552,-0.454539775848
2017/07/09/10:18:50.353194,511502,1499566733,159727551,,0.795092521143,0.25563610368,0.166298017491,0.69254306184,0.718706070152,0.0435434642371,0.0441549424836,-0.0011091661196,-0.325245803009,-0.00403140258761,-0.0454222282309,0.00663487600017,-0.424356735996,1.47178912163,2.20223808289,1.15578043461,-1.31971490383,0.726909458637,-0.466419160366
2017/07/09/10:18:50.363113,511503,1499566733,169723442,,0.795411921158,0.253439861187,0.166551445501,0.693813219084,0.717436035612,0.0440063596056,0.04440937,-0.00453480801676,-0.324459338944,-0.0220510875436,-0.019573625047,0.0215808170865,-0.449300030865,1.52251327038,2.09663558006,1.00336873531,-1.18796229362,0.753114044666,-0.453812658787
2017/07/09/10:18:50.373224,511504,1499566733,179731425,,0.79533364658,0.24940838163,0.166385808874,0.695539011286,0.715781378627,0.0434776075542,0.0446340613378,0.00797739720843,-0.344651849662,0.0043914363001,-0.0489144690794,-0.0180136104769,-0.450483093054,0.439928740263,1.03109431267,0.976284861565,-0.616614937782,0.351033717394,-0.274573206902
2017/07/09/10:18:50.382860,511505,1499566733,189723220,,0.795336084958,0.246214180576,0.166102352738,0.69703140007,0.714320851479,0.043515911297,0.0447136883221,0.00163083606406,-0.365872522591,-0.00547683660462,-0.0485286996056,-0.0117973646012,-0.472052143239,0.104672819376,0.0642027407885,1.13518679142,-0.0669017285109,0.304012656212,-0.189928844571
2017/07/09/10:18:50.392910,511506,1499566733,199728093,,0.794875437074,0.242761055676,0.165972529456,0.698449506485,0.712965342045,0.0425805674884,0.0451176595664,0.0109216975527,-0.352674109273,0.00592325739774,-0.0515912810034,-0.0491547630414,-0.43093746703,-0.0617602355778,-0.21329921484,0.910208165646,0.0607154518366,0.300609856844,-0.190966591239
2017/07/09/10:18:50.403134,511507,1499566733,209725836,,0.795470632304,0.240015396377,0.166522497499,0.700181936985,0.711198880641,0.0435785153171,0.0451920379827,-0.00235534392579,-0.347046226301,-0.00077613622207,-0.0309273041108,-0.0201694837041,-0.45065650835,-0.201345086098,-0.0904417932034,1.35002028942,0.0581944435835,0.207502111793,-0.208824142814
2017/07/09/10:18:50.412926,511508,1499566733,219727222,,0.795092868677,0.236042227366,0.166068463921,0.70184697744,0.709590505115,0.0429215093996,0.0452755931999,-0.00515411374542,-0.355785004943,-0.00575577717456,-0.00423968471867,-0.0148002669168,-0.483569715372,-0.33871242404,-0.132517546415,1.22779643536,-0.0453560203314,0.18286639452,-0.243308320642
2017/07/09/10:18:50.422980,511509,1499566733,229723840,,0.795150052448,0.232769856924,0.165733974679,0.703577502436,0.707856722903,0.0430400311694,0.0454435212568,-0.00676289549563,-0.354554458124,-0.0193435576032,0.0133501312345,-0.00265638396441,-0.491650426448,-0.296439856291,0.229822486639,1.48456168175,-0.112616077065,0.185980394483,-0.225678876042
2017/07/09/10:18:50.433131,511510,1499566733,239724328,,0.795577430183,0.229980835825,0.165693292604,0.704701017999,0.706706139635,0.0432093740506,0.0457805354568,-0.00388142107067,-0.359211607287,-0.00882855621762,-0.0126503977532,-0.0190645425356,-0.474153840295,-1.04830205441,0.654683351517,1.2769831419,-0.24789172411,-0.143448174,-0.277207821608
2017/07/09/10:18:50.443200,511511,1499566733,249721257,,0.795474634597,0.226237968441,0.165785399133,0.706216376589,0.705174475228,0.0429895229519,0.0462524576763,0.00176718890402,-0.334397560122,-0.0138952177788,-0.00257509973436,-0.0256485868561,-0.450867526891,-1.36718380451,0.367432653904,1.42398393154,-0.108895860612,-0.236290365458,-0.224930003285
2017/07/09/10:18:50.452988,511512,1499566733,259727177,,0.795136384528,0.223097635854,0.165167906675,0.707787362614,0.70362825157,0.0426078697243,0.0461400298493,-0.00313256775091,-0.335180833174,-0.0134874495865,-0.00517508740921,-0.0252082179199,-0.450342598687,-1.78293669224,0.189800411463,1.46703624725,-0.06988504529,-0.36820346117,-0.231470301747
2017/07/09/10:18:50.463182,511513,1499566733,269722438,,0.794942313248,0.219415212703,0.164780494917,0.709663344926,0.701738983787,0.0425777706302,0.0461244940248,-0.00786490855427,-0.345787196016,-0.0142333601701,-0.0171548638732,-0.0289377160392,-0.465039928251,-2.98357248306,-0.0428692698479,1.93360722065,0.0930957645178,-0.804754436016,-0.189243406057
2017/07/09/10:18:50.473359,511514,1499566733,279727441,,0.795326078997,0.217383905976,0.165079759442,0.710549486382,0.700783592118,0.0432133105203,0.0464154523182,0.0119923440687,-0.312220034353,-0.0108915222825,0.00377443284209,-0.0637930910881,-0.422022431282,-2.64603066444,0.176630213857,1.98253154755,0.123890265822,-0.67691296339,-0.144175320864
2017/07/09/10:18:50.482928,511515,1499566733,289734326,,0.795139254326,0.213123548957,0.164798247026,0.712733832737,0.698563261271,0.0428513962774,0.046729129165,-0.00280378406743,-0.338823699783,-0.0201337632449,-0.0147906980031,-0.0311866744933,-0.442392963909,-2.02122807503,-0.128516823053,1.73449134827,0.0547707825899,-0.449705004692,-0.208286568522
2017/07/09/10:18:50.493271,511516,1499566733,299728216,,0.794847002505,0.210209945103,0.164558507368,0.714125616704,0.697158665382,0.042773132556,0.0465280343637,-0.00493804620092,-0.37788700407,-0.026776439902,-0.00260876302182,-0.0302449371046,-0.513438646051,-2.27276849747,0.358223646879,1.3794708252,-0.0653816908598,-0.609684705734,-0.217359259725
2017/07/09/10:18:50.502824,511517,1499566733,309722034,,0.795112146685,0.206896187453,0.164287139508,0.715518044099,0.695689933484,0.042822648677,0.0470708591188,-0.00508579836197,-0.330891850303,-0.0198365453416,0.027712934111,-0.0234697106733,-0.475062891423,-2.70608496666,0.440640628338,1.01687836647,-0.153878539801,-0.850754141808,-0.223818674684
2017/07/09/10:18:50.513062,511518,1499566733,319724097,,0.795178991272,0.203442756246,0.164058824507,0.717418654222,0.693717908155,0.042877493968,0.0471959637098,-0.00489542570621,-0.349019277715,-0.0214678287875,0.00919486496729,-0.0288002957398,-0.485358160327,-3.02940177917,0.352245658636,0.823226392269,-0.0954979285598,-1.01829051971,-0.199841529131
2017/07/09/10:18:50.523208,511519,1499566733,329727390,,0.795317523192,0.20036831446,0.164257082265,0.718630364155,0.692403130114,0.0430386787558,0.0479163568394,0.00680402379572,-0.328453756014,-0.0146119438062,0.0038062784827,-0.0603900757822,-0.462585218377,-4.06551647186,0.717857897282,0.834022283554,-0.180844187737,-1.36618816853,-0.235322579741
2017/07/09/10:18:50.533240,511520,1499566733,339727608,,0.795432142518,0.197704438889,0.164094528903,0.719913312965,0.691052644733,0.04328585264,0.0479311900884,0.00444248981883,-0.303385127217,-0.0300632081402,0.0127419287538,-0.0513847173981,-0.411470641358,-3.93921399117,0.062281191349,0.968689441681,0.0522367954254,-1.24427592754,-0.177621200681
2017/07/09/10:18:50.543185,511521,1499566733,349722268,,0.795334448719,0.194477042797,0.163286794658,0.72139162724,0.68950342302,0.0431247938891,0.04816016968,-0.00259894382497,-0.337117413858,-0.0476181440908,0.0104839618826,-0.0357949502646,-0.45848351068,-4.78527021408,-0.0509673655033,1.24591493607,0.231839925051,-1.47873973846,-0.095834210515
2017/07/09/10:18:50.554337,511522,1499566733,359727490,,0.795266245198,0.191094988327,0.162788481226,0.723089453748,0.687710038408,0.0431902087704,0.0482819926806,-0.0021406692551,-0.321544799548,-0.0458999982701,0.0121143799176,-0.0396746942024,-0.445589667893,-5.45531702042,0.0995470583439,1.33397269249,0.249810934067,-1.69861030579,-0.108134791255
2017/07/09/10:18:50.562919,511523,1499566733,369722689,,0.795242556938,0.188665103577,0.161800591649,0.724344506572,0.686401493862,0.0433080936409,0.0479836852289,0.00750000267449,-0.304337230273,-0.0442062851652,0.00968714132773,-0.0563662151776,-0.414888365737,-6.09576845169,0.298888295889,1.20084047318,0.0835726410151,-1.9507060051,-0.132344782352
2017/07/09/10:18:50.573150,511524,1499566733,379729302,,0.795210870298,0.186041336092,0.161600572012,0.725213056356,0.685463012127,0.0432848328613,0.048300156733,0.000626968931007,-0.325203480533,-0.047517545762,-0.00237021455168,-0.0422788028967,-0.442704232155,-6.85718345642,0.815767168999,1.22548007965,-0.00969339907169,-2.34112501144,-0.157691821456
2017/07/09/10:18:50.583143,511525,1499566733,389722230,,0.795218578882,0.18220182727,0.161047810987,0.727088360068,0.683452312836,0.0431386075344,0.0487289777487,-0.0133029190395,-0.301429040898,-0.0654233736965,0.0170646993547,-0.0044959966327,-0.404024524949,-7.04486083984,0.178513988853,1.2388201952,0.0849715620279,-2.44139266014,-0.108765617013
2017/07/09/10:18:50.592869,511526,1499566733,399724231,,0.795337661849,0.179613137886,0.160634283268,0.728553420338,0.681854627975,0.0435694687891,0.0488454850707,-0.0187800477375,-0.310816128513,-0.0686048158246,-0.00948814674433,0.00348629931884,-0.406439867885,-6.55979013443,0.339110016823,1.14225304127,0.0238327682018,-2.32552075386,-0.115410357714
2017/07/09/10:18:50.602939,511527,1499566733,409720262,,0.794989774635,0.17671027605,0.159525597685,0.729265606893,0.681121513182,0.0428245069725,0.0491041799251,-0.0201446658366,-0.318762824476,-0.0859319687438,-0.0126088441884,0.0118091159176,-0.406951945906,-6.61657857895,0.414777368307,1.07215464115,-0.111127786338,-2.35027313232,-0.177310600877
2017/07/09/10:18:50.613195,511528,1499566733,419725936,,0.794927412362,0.173753513998,0.158620664645,0.730487456418,0.67980489382,0.0426998683426,0.0492960809619,-0.0102193933346,-0.341325947095,-0.0788503216295,-0.0532663604422,-0.021874196762,-0.422906495257,-6.73634815216,0.0862078070641,0.994336485863,-0.00235755741596,-2.41226577759,-0.150218218565
2017/07/09/10:18:50.623210,511529,1499566733,429720840,,0.794485725548,0.170553867493,0.157543667697,0.731699817646,0.678529852536,0.0422846653558,0.0492404625308,-0.0145419399618,-0.344414228184,-0.0851732396072,-0.0850537716614,-0.00230535175517,-0.391580908754,-6.93398427963,0.379425406456,0.6112383008,-0.156979754567,-2.47367954254,-0.219114303589
2017/07/09/10:18:50.633148,511530,1499566733,439722872,,0.794660452205,0.16729454987,0.156976260405,0.7329091917,0.677181363864,0.041952331617,0.05009509985,-0.0246120788922,-0.327467442231,-0.0986361242661,-0.0555733384872,0.0252499223736,-0.377189957513,-7.16459178925,0.307134121656,1.04204976559,0.0331461727619,-2.5855910778,-0.0975595936179
2017/07/09/10:18:50.642901,511531,1499566733,449722100,,0.7944439226,0.163562455699,0.155908628977,0.734627050804,0.675308170707,0.0415081803986,0.0505869722767,-0.00394458937536,-0.316095368085,-0.0896162509477,-0.0674249545211,-0.018630982848,-0.35594650712,-7.610891819,0.199968084693,0.595132231712,-0.0081279873848,-2.69699692726,-0.123630188406
2017/07/09/10:18:50.652849,511532,1499566733,459729141,,0.794461519797,0.160553461321,0.155040595039,0.735631846114,0.674207430582,0.0413885633319,0.0507652869272,-0.010019075553,-0.31895667524,-0.10630410818,-0.0878119216386,0.00394376363044,-0.342041025033,-8.5333738327,0.0162736177444,0.711266100407,0.0590571165085,-3.05434942245,-0.0836947858334
2017/07/09/10:18:50.663382,511533,1499566733,469723626,,0.794267549269,0.157314259586,0.153878809285,0.736580867805,0.67319266515,0.040480057997,0.0512018132276,-0.019571671198,-0.332668125309,-0.111055481892,-0.0965914462721,0.0252623348119,-0.359240686494,-8.41291618347,0.349219918251,0.733715474606,0.121537998319,-3.01736211777,-0.0561109632254
2017/07/09/10:18:50.673501,511534,1499566733,479727483,,0.794075798447,0.154851326567,0.152588835629,0.737336356264,0.672374069663,0.0401624223718,0.0513340822948,-0.027933512463,-0.347714497413,-0.117456119296,-0.13965274255,0.0537736421481,-0.344360750584,-8.40188121796,0.223764628172,0.667835593224,0.186027467251,-3.03734564781,-0.0565201044083
2017/07/09/10:18:50.682879,511535,1499566733,489727695,,0.793168103092,0.150513059255,0.150753275057,0.739154085572,0.670478668983,0.0384995377969,0.0512579536348,-0.0223716721351,-0.35209756705,-0.120257350598,-0.156659940627,0.0583276620026,-0.337859057308,-8.65332794189,0.0734221637249,0.54222124815,0.190184891224,-3.10758471489,-0.0583331137896
2017/07/09/10:18:50.693161,511536,1499566733,499725507,,0.79388174448,0.148489544765,0.150594941255,0.739469327522,0.670038304288,0.0385022689223,0.0524534053043,-0.00881875770203,-0.309553771124,-0.11909137849,-0.140362674697,0.0422208353802,-0.288166731689,-8.09426116943,0.610849797726,0.906326115131,0.0592909753323,-3.01560997963,-0.0686054974794
2017/07/09/10:18:50.703001,511537,1499566733,509722407,,0.793280770779,0.145663525032,0.148678726163,0.740280482296,0.669213336493,0.03740705604,0.0523357425764,-0.0134832260258,-0.301458060305,-0.128978141187,-0.149023139348,0.0625926341577,-0.257141227056,-8.84019947052,0.529103040695,0.849764168262,0.0662873089314,-3.23180913925,-0.050282150507
2017/07/09/10:18:50.713087,511538,1499566733,519720175,,0.793317635551,0.142154892103,0.147690991122,0.741022338653,0.6684080906,0.0362875609993,0.0529124839238,-0.0161919885438,-0.334275823794,-0.139509610717,-0.185322366555,0.072867138793,-0.295344944573,-8.24227237701,0.207698762417,1.0247079134,0.0206198990345,-3.01428294182,-0.109656684101
2017/07/09/10:18:50.723092,511539,1499566733,529721552,,0.79286226558,0.138342129356,0.145773789799,0.742189227747,0.667154062519,0.0347896193823,0.0533881022636,-0.00210477585753,-0.30499446889,-0.137220449337,-0.168718195569,0.0550686200535,-0.255383822042,-7.95683813095,-0.259766042233,0.664566218853,0.237250059843,-2.84965229034,-0.0218427032232
2017/07/09/10:18:50.733012,511540,1499566733,539727865,,0.793373191393,0.136686638864,0.144611267994,0.742438452166,0.666855844734,0.0343735118041,0.0539155708123,-0.0139443182556,-0.335937910335,-0.148974140442,-0.222015955995,0.0924994598753,-0.256593371057,-6.53663825989,0.452946782112,0.431269854307,-0.0483490526676,-2.42377114296,-0.13688492775
2017/07/09/10:18:50.743038,511541,1499566733,549724939,,0.793053710263,0.132871423046,0.143240442042,0.743462725204,0.665736934571,0.0331331801625,0.0544031483649,-0.0151354126491,-0.321170043616,-0.146996433094,-0.229848405039,0.11103277262,-0.238836991833,-6.49510192871,0.52149283886,0.320073246956,-0.0840517282486,-2.41211891174,-0.114855647087
2017/07/09/10:18:50.753056,511542,1499566733,559720282,,0.792903644197,0.129728246475,0.141653988869,0.743994365935,0.665178140262,0.0317240078029,0.0548088724853,-0.00753548631758,-0.327090052418,-0.14400941514,-0.23723991693,0.0986820316155,-0.213140094518,-6.31819200516,0.239215061069,0.0745799764991,0.0883540511131,-2.35795879364,-0.0551519840956
2017/07/09/10:18:50.763034,511543,1499566733,569722306,,0.793160140619,0.126769684847,0.140630648655,0.744430281275,0.664658413232,0.0305184702993,0.0558692492438,-0.0142694710932,-0.345321383611,-0.142985815486,-0.282964925665,0.124124146306,-0.208579923614,-6.44037628174,0.622789919376,0.476327776909,0.00687098503113,-2.40782094002,-0.0654054880142
2017/07/09/10:18:50.773178,511544,1499566733,579727904,,0.792453338976,0.123058936385,0.138243475357,0.745045436799,0.664064614314,0.0284494244286,0.055822176338,-0.00661123207433,-0.328776130315,-0.143575715033,-0.276879442285,0.129247783495,-0.196950452416,-6.60552549362,0.163062781096,0.0485328100622,0.0291368514299,-2.48897480965,-0.0689174607396
2017/07/09/10:18:50.782801,511545,1499566733,589722121,,0.792475833839,0.120136239365,0.137018186478,0.745590593069,0.663448303366,0.0268039220805,0.0566795028949,-0.0206181987995,-0.349314517619,-0.16009865614,-0.305559220866,0.172620706525,-0.209783007034,-6.44090032578,0.267365336418,0.178575322032,0.0531824231148,-2.42285299301,-0.0649044513702
2017/07/09/10:18:50.792850,511546,1499566733,599723497,,0.792684105928,0.117009175807,0.135769139459,0.746005812427,0.662964265842,0.0256189869037,0.0574227964489,0.000778649079355,-0.332034372975,-0.14567887995,-0.319706258082,0.135538852211,-0.173535468439,-6.21916818619,0.374142855406,0.109834082425,-0.0086472928524,-2.3891248703,-0.0365914702415
2017/07/09/10:18:50.803031,511547,1499566733,609721175,,0.792870708458,0.113530916916,0.134388269693,0.745992178746,0.662924902537,0.02372998647,0.0588483694661,0.00734008022498,-0.348292654451,-0.160241972879,-0.374024385495,0.125244030088,-0.127924010275,-5.57667541504,0.422171711922,0.464082121849,0.00962209701538,-2.15752267838,-0.00623595714569
2017/07/09/10:18:50.813244,511548,1499566733,619728622,,0.793211456711,0.110062857261,0.133033745431,0.746841677327,0.661945191194,0.0225045264673,0.0595786803368,0.0234676985476,-0.345956496427,-0.147963291946,-0.381312645679,0.0957590563873,-0.125068639617,-5.12424325943,0.302702516317,-0.0169992223382,-0.000424236059189,-1.97795259953,-0.0601878613234
2017/07/09/10:18:50.822844,511549,1499566733,629721997,,0.793297983889,0.105939645024,0.131397702521,0.747114970737,0.661561758201,0.0204192272275,0.0611417676084,0.015934017554,-0.354995185324,-0.143942535844,-0.389556790644,0.111965672014,-0.138036705479,-5.197286129,0.215337023139,-0.229931563139,-0.0238485187292,-2.0337240696,-0.0388169586658
2017/07/09/10:18:50.832784,511550,1499566733,639720791,,0.793432279284,0.104265180755,0.130143940006,0.747067245735,0.66164454476,0.0191079967788,0.0612528464501,0.0290496701814,-0.35002780657,-0.137798509826,-0.389916783494,0.0876302352894,-0.121243319522,-4.29670381546,0.983367741108,-0.130232185125,-0.168047964573,-1.70002388954,-0.103913322091
2017/07/09/10:18:50.842865,511551,1499566733,649726698,,0.794194655611,0.100379752786,0.128846533539,0.74734596879,0.66120230392,0.0175518096373,0.0630670294403,0.0269167455584,-0.328695889792,-0.146353102328,-0.369273510046,0.104142554054,-0.106650332219,-4.23238515854,0.455545842648,0.189471438527,-0.110221087933,-1.76521229744,-0.0604199916124
2017/07/09/10:18:50.853563,511552,1499566733,659737367,,0.794754159838,0.0974586843765,0.127447277582,0.747733992044,0.660696896353,0.016458533134,0.0640515806145,0.0374811737921,-0.314225310002,-0.153775262387,-0.360421975783,0.0980959656886,-0.101908382278,-3.35571956635,0.166021704674,-0.288457781076,-0.125389739871,-1.44969499111,-0.0818755254149
2017/07/09/10:18:50.863027,511553,1499566733,669726698,,0.794510558521,0.0941901869078,0.125861403445,0.747876453187,0.660517336092,0.0142973525169,0.0647552716074,0.0295025474092,-0.344069866352,-0.147925973227,-0.367930589694,0.107869408344,-0.145818821824,-3.04651379585,0.510067820549,-0.148844480515,-0.18086129427,-1.37460398674,-0.123566329479
2017/07/09/10:18:50.873098,511554,1499566733,679728037,,0.795654233728,0.0915300145363,0.125095689345,0.747581244426,0.660708475835,0.0131515334867,0.0664351571793,0.0464606873539,-0.34749357706,-0.132050205195,-0.382782166746,0.0677780992466,-0.124437166881,-2.23187422752,0.685428857803,-0.282774090767,-0.137818545103,-1.14660823345,-0.0871021002531
2017/07/09/10:18:50.883223,511555,1499566733,689721705,,0.795889993136,0.0882528454223,0.123239709563,0.74824647105,0.659918088479,0.0117482025144,0.0670620220174,0.0548617913914,-0.324186216849,-0.131059268289,-0.388452154523,0.0516895695001,-0.0965289286698,-1.70510458946,0.66813737154,-0.971969246864,-0.217556640506,-0.909765481949,-0.158980682492
2017/07/09/10:18:50.893026,511556,1499566733,699726070,,0.796587356874,0.0853746460104,0.12257098152,0.748534821387,0.659453221115,0.0105450756202,0.0685993565103,0.0653555017853,-0.312248235477,-0.130584703224,-0.357227457057,0.0310375548405,-0.115119089822,-1.81627213955,0.285078048706,-0.314853906631,-0.142008289695,-0.92562019825,-0.119431868196
2017/07/09/10:18:50.903526,511557,1499566733,709724612,,0.797035252056,0.0814942245875,0.120870486392,0.749067987614,0.658743256438,0.00900253039883,0.0698099310684,0.058862550926,-0.327018948031,-0.135843344406,-0.370195796206,0.0433592952789,-0.120613464442,-1.87005770206,-0.0480713546276,-0.371771365404,-0.0472655445337,-0.921315073967,-0.103103213012
2017/07/09/10:18:50.913264,511558,1499566733,719727582,,0.798613408937,0.0789669887408,0.120220622402,0.748885888617,0.658764765068,0.00836865202739,0.0716161699506,0.062976379141,-0.320641240282,-0.133591158765,-0.354853919645,0.0375728580245,-0.112531914679,-0.961705803871,0.429383844137,-0.0644184872508,-0.0597149580717,-0.670374155045,-0.0897915586829
2017/07/09/10:18:50.922952,511559,1499566733,729720704,,0.798715244789,0.0767893442131,0.118660220011,0.74900171312,0.658616495929,0.00697966197586,0.0719168224575,0.0870056508727,-0.308880572931,-0.115986681702,-0.350768916399,-0.00958104255781,-0.0997988502826,-1.30434012413,0.714482069016,-0.260272443295,-0.157016515732,-0.776672005653,-0.119830451906
2017/07/09/10:18:50.933187,511560,1499566733,739721114,,0.799436713645,0.0733626448068,0.117260118481,0.749686437727,0.657719502472,0.00613912615206,0.073058964446,0.0887061104868,-0.288909326176,-0.112083387673,-0.319148893393,-0.0127457249691,-0.0939035982545,-0.922213077545,0.490988969803,-0.841640710831,-0.160179376602,-0.685366630554,-0.112468495965
2017/07/09/10:18:50.943197,511561,1499566733,749724021,,0.800385131895,0.0704935179556,0.116211670411,0.749991714573,0.65725611761,0.00524570675664,0.0741573091243,0.0705697571048,-0.284120161805,-0.118290924875,-0.305701326916,0.0237354474588,-0.11560827054,-0.548332691193,0.237137854099,-1.03787827492,-0.145794257522,-0.548236846924,-0.134275734425
2017/07/09/10:18:50.952874,511562,1499566733,759719794,,0.801089288686,0.0684168503851,0.11504211915,0.750122273941,0.657017364582,0.00424269245432,0.0750117079919,0.0798165449313,-0.287640387801,-0.124613526398,-0.278404910043,-0.00145907112339,-0.146219360718,-0.164321124554,0.197337955236,-1.21234452724,-0.0708591341972,-0.418937444687,-0.118020862341
2017/07/09/10:18:50.963188,511563,1499566733,769724844,,0.802170896688,0.0667451553392,0.114140886785,0.750422209744,0.656609801923,0.00407741064771,0.0755873657697,0.0837423690601,-0.268516306036,-0.126538149927,-0.250220219393,-0.00175478696994,-0.132529036088,-0.052029274404,0.584372639656,-0.90589350462,-0.144122779369,-0.384128332138,-0.135742843151
2017/07/09/10:18:50.973244,511564,1499566733,779720301,,0.802591774718,0.062491834199,0.112569084177,0.7510941947,0.655692420233,0.00259014717528,0.0769301753153,0.0942389898035,-0.275105040914,-0.108438217477,-0.257726597813,-0.0407691704384,-0.151151883611,-0.785178422928,-0.114289909601,-0.87705039978,-0.172358438373,-0.636706888676,-0.138697102666
2017/07/09/10:18:50.983268,511565,1499566733,789723991,,0.803320854802,0.0605247468101,0.111406918788,0.751548370432,0.655117881606,0.00205893981605,0.0774039331491,0.088305104047,-0.276495611949,-0.118482004418,-0.223400781894,-0.0348827994851,-0.165605695631,-0.588118314743,0.370510667562,-1.05183267593,-0.222638055682,-0.534576296806,-0.13591465354
2017/07/09/10:18:50.993258,511566,1499566733,799726869,,0.80410155659,0.0580983034439,0.110301651978,0.752105971362,0.654398290052,0.0016329689276,0.0780821313152,0.0919745709363,-0.259847098654,-0.109213903294,-0.187497734667,-0.0538172581753,-0.196013014689,-0.833702981472,0.831903934479,-0.650341629982,-0.366316020489,-0.626341640949,-0.141554400325
2017/07/09/10:18:51.003401,511567,1499566733,809748626,,0.805004845454,0.0563915650134,0.109743926156,0.752392428765,0.653992331413,0.00136436959637,0.0787261207358,0.0847310116397,-0.238739022135,-0.122685574626,-0.151967491248,-0.0310667440573,-0.182494749807,0.232287228107,0.640759110451,-0.272047609091,-0.293368667364,-0.219458073378,-0.179531633854
2017/07/09/10:18:51.013071,511568,1499566733,819750130,,0.806011564997,0.0538801534734,0.10799039494,0.752960381628,0.653262276055,0.00119599327799,0.0793576208268,0.0809150123137,-0.25266346747,-0.116143312473,-0.162047830166,-0.0311414249156,-0.184271512698,1.09132277966,0.547053217888,-0.749132990837,-0.346159875393,0.0692794620991,-0.245027571917
2017/07/09/10:18:51.023517,511569,1499566733,829725551,,0.806837005237,0.0511613017115,0.107360208695,0.753853481215,0.65213386568,0.000806919302254,0.0801604576696,0.0888291623751,-0.221237246309,-0.10989924072,-0.130695288502,-0.0389689353051,-0.171796102204,1.45020079613,0.216164246202,-0.84008449316,-0.275759637356,0.151723399758,-0.245536357164
2017/07/09/10:18:51.033086,511570,1499566733,839727291,,0.807311969431,0.0489474778058,0.106304875325,0.754713597569,0.65111764101,0.000337286771355,0.0803311237848,0.0831965241127,-0.242453361001,-0.115281226633,-0.102973261408,-0.0371475779691,-0.238889965736,1.41429769993,-0.087014824152,-1.08484435081,-0.257626920938,0.126608595252,-0.244031518698
2017/07/09/10:18:51.042865,511571,1499566733,849724009,,0.808381655658,0.0470777356083,0.105189879202,0.755158466874,0.650557294364,0.00052223791981,0.0806884373742,0.0783110532198,-0.236970352219,-0.114391280293,-0.0892636380351,-0.0353161841882,-0.250941237152,1.96360957623,0.539956927299,-1.35150039196,-0.435365200043,0.260860800743,-0.296136885881
2017/07/09/10:18:51.053176,511572,1499566733,859726890,,0.809704033168,0.0454269462979,0.104321632995,0.756058341527,0.649459007285,0.00122600495429,0.0811004252512,0.0864692458464,-0.218423968496,-0.105115734007,-0.0486280639784,-0.0656725480233,-0.252873295389,2.30937862396,0.649315595627,-0.845095813274,-0.448179662228,0.36710357666,-0.283956974745
2017/07/09/10:18:51.063324,511573,1499566733,869721036,,0.809923886158,0.0423348695316,0.103210961512,0.75681395292,0.648508346734,0.000432192508262,0.0816662604183,0.0959828924578,-0.205333785589,-0.106221003083,-0.0305468440022,-0.0846041129549,-0.249412102269,1.90193271637,0.0156470537186,-1.20209598541,-0.404213875532,0.211795270443,-0.277753353119
2017/07/09/10:18:51.073344,511574,1499566733,879740124,,0.811303369699,0.040925183664,0.102361703786,0.757513478203,0.647644956218,0.00124614608162,0.0820230952073,0.0973768683792,-0.198672803148,-0.0925667811212,-0.0233913497842,-0.0912381756674,-0.231796752851,2.69926786423,0.117303431034,-0.938249945641,-0.358586728573,0.524948775768,-0.315177202225
2017/07/09/10:18:51.083174,511575,1499566733,889722033,,0.811871450525,0.0393215407439,0.101069198675,0.758351464888,0.646682232866,0.0013002133858,0.0818746288115,0.0759588498932,-0.207758048585,-0.111367849614,0.00517196161409,-0.062650086611,-0.27739658635,3.03035449982,0.374064952135,-1.56053507328,-0.445625424385,0.621876776218,-0.358842849731
2017/07/09/10:18:51.093176,511576,1499566733,899727363,,0.812330579642,0.0379419383432,0.0998560165791,0.759593370236,0.645288626594,0.00148160034504,0.081352966402,0.0861435344648,-0.205601354829,-0.0965082189241,0.00813621338159,-0.0938157748296,-0.274934981432,3.26118922234,0.271432459354,-1.88291764259,-0.376821160316,0.756894350052,-0.375024408102
2017/07/09/10:18:51.103227,511577,1499566733,909728195,,0.81323892057,0.0356537306102,0.0990861864018,0.760461972166,0.644188373347,0.00195309508403,0.0819457988787,0.0785230416776,-0.187250998524,-0.0998587279209,0.0706401485539,-0.0772383505128,-0.314131543212,3.63140583038,-0.282694071531,-1.57823550701,-0.237723171711,0.89417219162,-0.338596135378
2017/07/09/10:18:51.113105,511578,1499566733,919719736,,0.813514892327,0.0344440655543,0.0977266003248,0.761279442463,0.643328449204,0.00220412701521,0.081100300567,0.069605739423,-0.180180484346,-0.108858862003,0.0879973718126,-0.0616629746478,-0.310967855948,3.70464754105,0.557063996792,-2.32213139534,-0.49211281538,0.878710508347,-0.37587928772
2017/07/09/10:18:51.123319,511579,1499566733,929722821,,0.814678767221,0.0320972639444,0.0975334179761,0.76254812676,0.641735199401,0.00296771892528,0.0817770191956,0.078156438709,-0.178000488812,-0.100143854401,0.0986291350047,-0.100015195002,-0.316617095265,5.01994943619,0.348289906979,-1.93906366825,-0.516806423664,1.36701047421,-0.473907589912
2017/07/09/10:18:51.133178,511580,1499566733,939728852,,0.815068840385,0.0300041899977,0.096193558095,0.763366365016,0.640752177415,0.00296689714114,0.0818513128915,0.0790135957823,-0.180937309836,-0.10763344214,0.0803138457032,-0.106493497752,-0.312395285967,4.61630678177,-0.566039323807,-1.83044457436,-0.300983130932,1.30063796043,-0.425991415977
2017/07/09/10:18:51.142943,511581,1499566733,949725602,,0.815774938646,0.0285228387392,0.0953420758939,0.764510762206,0.639411033852,0.00382898536259,0.0816220750195,0.0564156910811,-0.195072260382,-0.105185125584,0.0754403287915,-0.0776418255554,-0.31236450181,4.04867362976,-0.412873268127,-1.02146947384,-0.227136343718,1.09255695343,-0.377764284611
2017/07/09/10:18:51.153227,511582,1499566733,959728456,,0.816729672752,0.0276913566753,0.0945648722689,0.765262662163,0.638499501463,0.00458173960042,0.0816728363156,0.0555538364924,-0.172334496648,-0.109316762019,0.0910313741974,-0.0733075403375,-0.295574996422,4.12820148468,-0.505787074566,-0.411817133427,-0.110836625099,1.1572176218,-0.372713923454
2017/07/09/10:18:51.163267,511583,1499566733,969721378,,0.816802327461,0.0250667439419,0.0933460714953,0.766477225646,0.637069477926,0.00463683713044,0.0814471767584,0.0583599746719,-0.171594940973,-0.0992420546538,0.0861352182766,-0.0834530066563,-0.277527734879,4.45431852341,-0.677294850349,-0.585994780064,-0.106573745608,1.28512096405,-0.385931074619
2017/07/09/10:18:51.173250,511584,1499566733,979719807,,0.817162752083,0.0241262779296,0.091805563015,0.766950428885,0.636554894013,0.00495263754123,0.0809961599175,0.0300320710534,-0.177628408174,-0.118743942832,0.0872711527892,-0.0235896123165,-0.29858509397,4.57395839691,-0.752691984177,-1.29200994968,-0.127011701465,1.35920238495,-0.417051047087
2017/07/09/10:18:51.183172,511585,1499566733,989720684,,0.817314572526,0.0230317866123,0.0909211074562,0.76759076979,0.635819293898,0.00486998307317,0.0807125696821,0.0212617083439,-0.165050084242,-0.133246010063,0.0782548680725,0.00737671797807,-0.261969153823,6.16241502762,0.959611773491,-0.931699633598,-0.50018543005,2.03974556923,-0.574098408222
2017/07/09/10:18:51.193091,511586,1499566733,999722817,,0.817536090439,0.0200161010276,0.0898636071099,0.768785402124,0.634311084938,0.00467276373219,0.0812195683595,0.0187798576621,-0.180533765304,-0.124810990008,0.0668254863962,-0.0103613850977,-0.294215104217,6.00542402267,1.11557793617,-0.959710419178,-0.57615840435,1.96956932545,-0.578216910362
2017/07/09/10:18:51.203235,511587,1499566734,9722194,,0.817448288368,0.0192422894873,0.0881025175218,0.769785509111,0.633269283066,0.00549140578122,0.0798130913531,0.0156219290105,-0.200836732031,-0.122595069681,0.0637226616628,-0.0181820730734,-0.297876380224,5.29518127441,0.579446434975,-0.847253143787,-0.363488554955,1.68977117538,-0.522086262703
2017/07/09/10:18:51.212990,511588,1499566734,19729317,,0.817739851875,0.016371358486,0.0871628703912,0.770733257208,0.632045469747,0.00549348138577,0.0803653660967,0.0190363658462,-0.186561831136,-0.11473512432,0.077483633009,-0.0348482571328,-0.276092002701,5.326171875,0.32533967495,-0.999972224236,-0.361920148134,1.73808884621,-0.573258280754
2017/07/09/10:18:51.222992,511589,1499566734,29723419,,0.817259351452,0.0152151645215,0.0858152788523,0.771414199082,0.631308701666,0.0050588130733,0.079648383953,0.0142615043049,-0.165800904269,-0.124738754586,0.0701530687455,-0.0168235297552,-0.24963775868,5.29855489731,0.130660057068,-0.892593026161,-0.296293258667,1.7912119627,-0.582268953323
2017/07/09/10:18:51.233163,511590,1499566734,39721082,,0.817715128393,0.0139111487604,0.0848877939449,0.772113311031,0.630462698478,0.00574566721595,0.0795286619063,-0.0165541676252,-0.183937122415,-0.132846973754,0.0786693107569,0.033686152542,-0.295371393828,5.56580591202,0.281844973564,-1.01605713367,-0.451169848442,1.95169579983,-0.678144931793
2017/07/09/10:18:51.242948,511591,1499566734,49725314,,0.817311468816,0.0119677187686,0.0832134525278,0.772859596956,0.629581270399,0.00536025251538,0.0792889339554,0.0193917464665,-0.182051608347,-0.107594173939,0.0523120093658,-0.057173846312,-0.271754786588,6.42413043976,0.021813929081,-0.876208126545,-0.284507781267,2.36265444756,-0.681987047195
2017/07/09/10:18:51.253139,511592,1499566734,59727339,,0.81786090068,0.0100622089908,0.0826836019717,0.773566029263,0.628679413824,0.00582065844746,0.0795230340174,0.00331223875387,-0.189934868724,-0.11490331996,0.0485987373944,-0.0273797447851,-0.259212785165,6.20767116547,0.0560957193375,-0.844899654388,-0.269795954227,2.33094906807,-0.694323241711
2017/07/09/10:18:51.262950,511593,1499566734,69722159,,0.817054811414,0.00772574021526,0.0810977860744,0.77446029548,0.627640706572,0.00535810006274,0.0790549488766,-0.00987948155139,-0.17472492541,-0.113660374707,0.0796058964932,0.00453626469739,-0.260507198382,5.06979227066,0.242364853621,-0.83699208498,-0.245237112045,1.92394793034,-0.612417221069
2017/07/09/10:18:51.273195,511594,1499566734,79728727,,0.817294679609,0.00600913823374,0.0804598714536,0.775396828224,0.626495126231,0.00617727617521,0.0789015642978,-0.0228482705643,-0.1958463054,-0.12438261258,0.0569090356301,0.0182453304707,-0.242074599538,4.5664305687,-0.0656462311745,-0.976859152317,-0.0278861224651,1.69347417355,-0.516476154327
2017/07/09/10:18:51.282783,511595,1499566734,89722011,,0.816651356634,0.00391243697316,0.0790301148198,0.776112953127,0.625641811194,0.0054702770451,0.0786834426297,-0.0292770177321,-0.199301300919,-0.110980199281,0.0681502314296,0.0176999198848,-0.229305820583,2.93936514854,-1.04322838783,-0.825577437878,0.512119054794,1.06193256378,-0.332078307867
2017/07/09/10:18:51.293150,511596,1499566734,99727918,,0.816775807859,0.00273878882524,0.078597775873,0.776265554326,0.625488858055,0.00609554995481,0.0783474434037,-0.0395930577597,-0.198721193713,-0.102194560475,0.0412289190031,0.0403430505161,-0.19500902108,2.25000500679,-1.69414639473,-0.377285003662,0.991506695747,0.815533876419,-0.167844593525
2017/07/09/10:18:51.303008,511597,1499566734,109722761,,0.816420575315,0.00115856642033,0.0774842926437,0.776604772322,0.625099184446,0.00608550357027,0.0780961193554,-0.0362828675226,-0.186618431464,-0.108340201045,0.0521421465429,0.0303729130231,-0.134063460961,2.27222037315,-1.71652233601,-0.257610559464,0.945297002792,0.855181455612,-0.196076840162
2017/07/09/10:18:51.313072,511598,1499566734,119724704,,0.815446023404,-0.0010124490543,0.0758598433876,0.776838566526,0.624903483493,0.00553737626774,0.0773745135043,-0.0419245665835,-0.165461536678,-0.117416476248,0.0861125419828,0.053118340931,-0.0927542620507,2.86164069176,-1.04044175148,-0.259925484657,0.517902255058,1.12775039673,-0.298459678888
2017/07/09/10:18:51.323215,511599,1499566734,129753842,,0.814494779629,-0.00227912925851,0.0743131315532,0.777148266374,0.624654720231,0.00515724904444,0.0762919087945,-0.0470565350443,-0.157707796543,-0.130007437387,0.104852427134,0.0727599555425,-0.0605384078271,3.81602573395,-0.504595577717,-0.383195757866,0.133208334446,1.55526697636,-0.448756277561
2017/07/09/10:18:51.333179,511600,1499566734,139727213,,0.814369822647,-0.00344818389192,0.0733095094899,0.776978774063,0.624924463405,0.0053418357347,0.0757948842953,-0.068052723009,-0.176903135159,-0.143021568087,0.0832132747386,0.110963780069,-0.0430859476393,4.63905525208,-0.0817131102085,-0.821973979473,-0.12544053793,1.86272668839,-0.49068954587
2017/07/09/10:18:51.343461,511601,1499566734,149724150,,0.813531931074,-0.00493816406591,0.071857354097,0.777091795757,0.624898515534,0.00519545843668,0.0748544819074,-0.079447575787,-0.170686004633,-0.144185089007,0.0944900210886,0.133590520231,-0.0237363213047,4.72516870499,-0.134065061808,-0.885621011257,-0.0568978413939,1.92057311535,-0.455507874489
2017/07/09/10:18:51.353152,511602,1499566734,159726840,,0.812057537728,-0.00631487676481,0.0699446052253,0.776664290853,0.62556382784,0.00430336549201,0.073783180041,-0.0838958936632,-0.170939863997,-0.146773410631,0.0696874111878,0.142926524211,0.0255237199519,4.67197799683,-0.0844823122025,-0.737933516502,-0.0781015455723,1.92845618725,-0.441644847393
2017/07/09/10:18:51.363326,511603,1499566734,169726506,,0.811418567033,-0.00886881872985,0.0690965444236,0.776632334065,0.625599776677,0.00382930615318,0.0738408661954,-0.102689186143,-0.207009431492,-0.144847646954,0.0303292129264,0.168621949857,0.0393129486195,4.59639120102,-0.477466285229,-0.839442849159,0.153733327985,1.86203765869,-0.371001064777
2017/07/09/10:18:51.373199,511604,1499566734,179729401,,0.810409055318,-0.0110458331415,0.0675674701341,0.776704451774,0.625623551873,0.003419567733,0.0728949414746,-0.10903417169,-0.172477269942,-0.156184373516,0.0549870493226,0.19111791228,0.091554824797,4.40673494339,-0.674692511559,-0.670984327793,0.18968860805,1.79894220829,-0.372433900833
2017/07/09/10:18:51.383162,511605,1499566734,189734779,,0.809444626129,-0.0128032546798,0.0661246385856,0.776417130118,0.626018362427,0.00310492224582,0.0725796763637,-0.0898674102229,-0.190974655123,-0.133294921231,0.0246547978529,0.142529403527,0.0686728691185,4.35908031464,-0.659098207951,-0.650720655918,0.228527963161,1.80903720856,-0.305183470249
2017/07/09/10:18:51.393074,511606,1499566734,199720109,,0.808345583643,-0.0136744862334,0.0644715665819,0.776220526535,0.626450164775,0.00286822568131,0.0709482806028,-0.103378685505,-0.18252274098,-0.14142230394,0.0636576555644,0.154970850741,0.0745874622698,4.19758033752,-0.805133998394,-0.252205312252,0.292294681072,1.79304075241,-0.286710262299
2017/07/09/10:18:51.403270,511607,1499566734,209720716,,0.807781696381,-0.0159399888208,0.063669465253,0.776303865658,0.626361716469,0.00305872973335,0.0708092683143,-0.110710471301,-0.179419249194,-0.149259950734,0.0919209459146,0.161587837768,0.054659343494,3.22825622559,-0.503192067146,-0.0732889473438,0.226966574788,1.43676960468,-0.221684634686
2017/07/09/10:18:51.413156,511608,1499566734,219728059,,0.806227926232,-0.0178663525259,0.061846695319,0.775909825421,0.62694633411,0.00199596097283,0.0699875210454,-0.119478029836,-0.166894399442,-0.152302231806,0.109201027732,0.18166916406,0.0797520053961,3.14872026443,-0.217113539577,0.0223552957177,-0.00409695506096,1.47327971458,-0.319271206856
2017/07/09/10:18:51.422911,511609,1499566734,229720918,,0.805327601409,-0.0182624388364,0.0601182411846,0.775430146111,0.627691428053,0.00219653068248,0.0686056477603,-0.122004185197,-0.163405802873,-0.163414489678,0.088987181404,0.182897256162,0.104157493686,3.42277860641,-0.533635079861,0.108716860414,0.174720436335,1.63882470131,-0.281052857637
2017/07/09/10:18:51.432885,511610,1499566734,239728353,,0.803870615468,-0.0202689992013,0.0586048037787,0.775321661518,0.627904954309,0.00137859790148,0.0678954269689,-0.104527054871,-0.157959766679,-0.157035873419,0.0996286699493,0.139555521991,0.102025179357,4.5675239563,-0.899497449398,0.142514050007,0.368110954762,2.08261585236,-0.286482214928
2017/07/09/10:18:51.443319,511611,1499566734,249721609,,0.802650947522,-0.0227699874639,0.0571278431887,0.775101420178,0.628220200641,0.00101608896817,0.0674991519112,-0.118759206426,-0.171829735967,-0.152013564496,0.0691982817986,0.162653181513,0.126826651741,4.46415376663,-0.904591917992,0.195057839155,0.329609692097,2.03096604347,-0.309543281794
2017/07/09/10:18:51.453093,511612,1499566734,259724750,,0.80152625585,-0.0228490177782,0.0552881591423,0.774529943284,0.629101616956,0.000787925240598,0.0658323755778,-0.116257031191,-0.148335255841,-0.162187272306,0.0993465541886,0.165118472482,0.120333667076,5.00784635544,-1.2598849535,0.0815726518631,0.470968067646,2.20349144936,-0.309119910002
2017/07/09/10:18:51.463199,511613,1499566734,269723482,,0.800629518886,-0.024147635002,0.053946407182,0.774103509448,0.629700117818,0.000620261381818,0.0651239860266,-0.112245720911,-0.158405485597,-0.151417377352,0.0697145349256,0.159664266078,0.129528859275,4.66762781143,-1.13382303715,0.111149638891,0.418724924326,2.0173535347,-0.282551556826
2017/07/09/10:18:51.473075,511614,1499566734,279758364,,0.799952609278,-0.0261889559015,0.0527489647492,0.774190703121,0.629609164517,0.000917294464937,0.064963172092,-0.0918156128778,-0.155957389577,-0.142682186811,0.0776416681085,0.106544386209,0.105767705783,4.53047323227,-1.20715236664,-0.00372578389943,0.383007109165,1.92770242691,-0.292057037354
2017/07/09/10:18:51.483093,511615,1499566734,289720239,,0.79921866721,-0.0279179524022,0.0518273668876,0.774751257376,0.628957893554,0.00100045153973,0.0645868131062,-0.0941338936574,-0.171686192972,-0.144073819421,0.0898377406637,0.0824325422845,-0.0342449562095,5.11889314651,-1.15039432049,0.0180439278483,0.394015192986,2.16197490692,-0.29945063591
2017/07/09/10:18:51.493132,511616,1499566734,299725916,,0.79922320266,-0.0286403038545,0.0501804664435,0.774771318097,0.628967458819,0.00178035157981,0.0642352765148,-0.0695972929174,-0.155285970605,-0.136134863677,0.116368707938,0.0123375063769,-0.11159729165,5.37493371964,-1.29290986061,0.0973111689091,0.424462229013,2.30530333519,-0.317929238081
2017/07/09/10:18:51.503091,511617,1499566734,309722367,,0.798150198581,-0.0304227830748,0.0486706472859,0.775784327158,0.627792120835,0.00198686914857,0.0634963235528,-0.0569667493874,-0.12285144486,-0.143152921875,0.158315566184,-0.00668648850911,-0.114506424207,5.3050942421,-1.37879681587,0.157427877188,0.458071172237,2.33019042015,-0.310650497675
2017/07/09/10:18:51.513053,511618,1499566734,319727418,,0.797537330272,-0.0317336325798,0.0475555348133,0.775507818216,0.628200662223,0.00228455220888,0.0628198431177,-0.0575793366336,-0.130161541638,-0.136294197584,0.161125744299,-0.0168124848314,-0.077976746958,5.04426050186,-1.09239840508,0.210120245814,0.31702619791,2.22981977463,-0.335994243622
2017/07/09/10:18:51.523270,511619,1499566734,329755274,,0.797390961888,-0.0329526784643,0.0461551184653,0.775190517455,0.628635940083,0.00343503328035,0.0623274981909,-0.0606581482202,-0.132296941401,-0.152692089872,0.185362134687,-0.00532163590334,0.00295288049291,5.10391950607,-1.11441218853,0.117672428489,0.227988600731,2.24863171577,-0.348355531693
2017/07/09/10:18:51.533147,511620,1499566734,339725759,,0.796185328589,-0.0340113768246,0.0442096510547,0.775320520685,0.628600277639,0.00369036569109,0.0610422997332,-0.0355588751037,-0.100144270822,-0.141878018675,0.212701634425,-0.0530827871662,0.114061277685,4.56698989868,-0.974778175354,0.318787693977,0.198483616114,2.02394843102,-0.320496410131
2017/07/09/10:18:51.543110,511621,1499566734,349724770,,0.795743700963,-0.0344827908879,0.042766174455,0.775089205799,0.628967611776,0.0045368594863,0.0601322151213,-0.0458335930222,-0.105943398808,-0.148137424499,0.23573515387,-0.0509060405289,0.0462209917752,4.6222076416,-1.29219269753,0.382998615503,0.295344561338,2.03148770332,-0.236365437508
2017/07/09/10:18:51.552840,511622,1499566734,359723154,,0.796249123835,-0.0359206172701,0.0424258526025,0.77597354261,0.627798650928,0.00569497111001,0.0608398090542,-0.0416772152716,-0.109109762427,-0.12830481208,0.206921463506,-0.0684509460921,-0.0398488203492,4.46213293076,-1.214376688,0.415188670158,0.0563511773944,2.00178480148,-0.256953209639
2017/07/09/10:18:51.562920,511623,1499566734,369720952,,0.79563455659,-0.0371057356298,0.0404731709083,0.776566608396,0.627107594162,0.00603700207397,0.0603649126085,-0.0290855925516,-0.136324323578,-0.12404287477,0.149317102536,-0.109109143882,-0.198141410139,4.81755304337,-1.36480093002,0.406847298145,0.0562123060226,2.10293316841,-0.282444357872
2017/07/09/10:18:51.573108,511624,1499566734,379727161,,0.795534957602,-0.0382026990126,0.0397115626338,0.776779067662,0.626832168244,0.00680526847873,0.0604102741043,-0.055416239285,-0.148566175868,-0.145318243825,0.0955481436731,-0.047964605903,-0.2080544116,5.58624982834,-1.63162982464,0.196288838983,0.129824340343,2.40590643883,-0.321181625128
2017/07/09/10:18:51.583012,511625,1499566734,389722336,,0.794794355229,-0.0406589068284,0.0381985444631,0.777052904252,0.626481958878,0.00694275911532,0.0605056798194,-0.0473856868138,-0.148989140654,-0.127077336806,0.0593735646507,-0.0491599637109,-0.120465822371,5.39716148376,-1.79956042767,0.142599523067,0.204071938992,2.29317784309,-0.276821672916
2017/07/09/10:18:51.593149,511626,1499566734,399725756,,0.794333017997,-0.0419045545375,0.0371727688677,0.776795921112,0.626809869716,0.00702342460804,0.0603999642182,-0.0439878006065,-0.162774042267,-0.129438176578,0.0312568073765,-0.0543756905716,-0.0016289947895,3.87215828896,-3.37268137932,-0.262228250504,0.491610825062,1.72835063934,-0.17680221796
2017/07/09/10:18:51.602910,511627,1499566734,409727880,,0.794040735702,-0.0431410404207,0.0359047084652,0.77652333433,0.627143342894,0.00727923589156,0.0604131726421,-0.0273902001902,-0.14783728764,-0.115961619252,0.027494205562,-0.0713389190369,0.0420235613557,4.41888093948,-2.95706057549,-0.679208338261,0.484586954117,1.9510076046,-0.213607370853
2017/07/09/10:18:51.613272,511628,1499566734,419726546,,0.79383991116,-0.0436479658208,0.0345548177867,0.776387092511,0.627339131292,0.00790726044004,0.060051412681,-0.0358216649841,-0.141181187332,-0.127255958016,0.0279813454006,-0.0471160749735,0.049804907167,5.15003538132,-1.90602350235,-0.27675062418,0.154598399997,2.18350958824,-0.284683257341
2017/07/09/10:18:51.623125,511629,1499566734,429720465,,0.793528838018,-0.0460970502073,0.0333931097123,0.776126499692,0.627601962684,0.00813575108223,0.0606402709859,-0.0363800508117,-0.128375437322,-0.125224816179,0.0220994746231,-0.0265841438543,0.120336860603,4.49607944489,-2.01529455185,-0.18019105494,0.19256362319,1.93454766273,-0.218568056822
2017/07/09/10:18:51.633287,511630,1499566734,439723496,,0.79253697541,-0.0471556225363,0.0320090636622,0.775524507997,0.628409733439,0.00781274916797,0.0600158759476,-0.0466624412086,-0.158420505283,-0.116191709036,-0.0101612985338,-0.0125322443639,0.167616744214,3.88059806824,-1.35278868675,0.223487123847,0.172079265118,1.74068331718,-0.202070355415
2017/07/09/10:18:51.643107,511631,1499566734,449724932,,0.792651532228,-0.0486019287179,0.0309927388314,0.774978291952,0.629043359898,0.00845515408093,0.0603457433556,-0.0618554524431,-0.157858206906,-0.127928203557,-0.00138085305465,0.0193423386961,0.174635343219,4.47833061218,-1.43077588081,0.132443159819,0.201524853706,1.924020648,-0.195217698812
2017/07/09/10:18:51.653249,511632,1499566734,459727942,,0.792106525722,-0.0504896275253,0.0302951735846,0.775030814194,0.628954921606,0.00847439060456,0.0605898369468,-0.0359895961174,-0.129640790944,-0.119574462332,0.0310455072337,-0.0216331448206,0.156197777993,3.96513056755,-1.97812712193,0.473543643951,0.22382260859,1.85014426708,-0.244480848312
2017/07/09/10:18:51.663186,511633,1499566734,469725585,,0.791394914119,-0.0509307853094,0.0285619118193,0.775227711158,0.628789908679,0.00867910995751,0.0597488045633,-0.0463502301322,-0.146522789545,-0.128156793063,0.0236625433188,-0.0208043082402,0.0376708326047,4.53424596786,-1.51986372471,0.149630531669,0.170651614666,2.11726570129,-0.249817013741
2017/07/09/10:18:51.673085,511634,1499566734,479731676,,0.791102805021,-0.052151669934,0.0275305192825,0.775282771666,0.628694993787,0.0085270876756,0.0600542881071,-0.0433590950399,-0.12458664844,-0.122110198222,0.0374760769504,-0.0252240188818,-0.0306654101168,5.05871391296,-1.53650546074,0.231264069676,0.201144903898,2.27416706085,-0.27170881629
2017/07/09/10:18:51.683070,511635,1499566734,489720045,,0.790747605402,-0.0536544656972,0.0266946395571,0.775782779273,0.628064208942,0.00877383485782,0.0601618537885,-0.0453996792273,-0.125648486526,-0.107176879429,0.0334056095193,-0.0248474601505,-0.101472051248,3.64303851128,-1.31436133385,0.359921664,0.0670560523868,1.72813236713,-0.237678617239
2017/07/09/10:18:51.692959,511636,1499566734,499729000,,0.790875900456,-0.0537253283259,0.0253331858203,0.775411131429,0.62852026495,0.00927996230606,0.0601143585385,-0.032467648158,-0.112624725352,-0.102878855794,0.0394039104689,-0.0459101155714,-0.109091612514,4.36575508118,-0.436922550201,0.197491437197,-0.104686081409,1.88613069057,-0.265563666821
2017/07/09/10:18:51.702857,511637,1499566734,509721334,,0.789973762663,-0.0545754066793,0.0238298866597,0.775624747009,0.628320667024,0.00913954005832,0.059463098017,-0.031516665501,-0.111433925667,-0.108351367524,0.0293130849964,-0.0449979202949,-0.063619932222,4.01721954346,-1.15843951702,-0.333207666874,0.0461821109056,1.82489097118,-0.244473710656
2017/07/09/10:18:51.713039,511638,1499566734,519734483,,0.788935611791,-0.0565762624606,0.0229741425926,0.7758714392,0.628032452246,0.00875764777297,0.059346881686,-0.0576474854439,-0.121047815944,-0.120566690971,0.0308521668079,0.00866622295563,-0.0338133012294,5.15186882019,-1.56764793396,-0.191797822714,-0.0206981003284,2.27971863747,-0.314996242523
2017/07/09/10:18:51.723088,511639,1499566734,529727079,,0.789289151772,-0.0568704318733,0.0223378001686,0.776016419075,0.627843900957,0.00969599081573,0.0593004310162,-0.0557487408315,-0.111263256545,-0.118746112624,0.0304785534647,0.0216203574826,0.0147029442759,5.3356294632,-0.561755597591,-0.0684808939695,-0.352023869753,2.22055101395,-0.37439134717
2017/07/09/10:18:51.733045,511640,1499566734,539724738,,0.78765557442,-0.0585612391088,0.0203616584662,0.776111389454,0.62780323904,0.00878459927889,0.0586262315581,-0.0584714727159,-0.105251782711,-0.117630873797,0.0589017055166,0.0171950660328,-0.0126202398911,5.16285610199,-0.741766691208,-0.806664168835,-0.389068990946,2.28202772141,-0.381510406733
2017/07/09/10:18:51.742887,511641,1499566734,549719854,,0.787038339607,-0.0595698849219,0.0194578026412,0.776623534294,0.627183724113,0.00868922101871,0.0584889701262,-0.0803533441934,-0.125623517633,-0.119935123542,0.0550985734196,0.0474084572794,-0.0923803035984,5.31541538239,-1.328363657,-0.424509495497,-0.0956578999758,2.33722639084,-0.333398103714
2017/07/09/10:18:51.752954,511642,1499566734,559720006,,0.787392878909,-0.0600923356271,0.0193068833209,0.777120544067,0.626543503579,0.00964286107781,0.0585996018835,-0.0715020697727,-0.0982033538478,-0.119695802501,0.0690896256557,0.0485356833566,-0.148137837482,5.84334039688,-1.57190966606,0.301029294729,0.0384757295251,2.42030525208,-0.327648311853
2017/07/09/10:18:51.762977,511643,1499566734,569724737,,0.78614073559,-0.0620908452076,0.0180166933748,0.7776846416,0.625869443209,0.00861380313733,0.0584794038305,-0.0718111958731,-0.110590047329,-0.0994579343868,0.0460731104725,0.0480576979715,-0.177374414813,5.44087123871,-1.94275975227,-0.175364866853,0.237398892641,2.28837704659,-0.290056765079
2017/07/09/10:18:51.773198,511644,1499566734,579726875,,0.785462272379,-0.0620962416898,0.0168989573693,0.778196949752,0.625326118168,0.00909308565849,0.0573939816259,-0.0679439723817,-0.0710266190449,-0.103071884206,0.0529772058664,0.0732563981992,-0.117239845629,4.94607162476,-2.30237674713,-0.335622370243,0.320137739182,2.1920363903,-0.276639670134
2017/07/09/10:18:51.783183,511645,1499566734,589720704,,0.784696356891,-0.0632390128521,0.0156755872844,0.778542091534,0.624934072966,0.00889242844438,0.0570135148191,-0.0584149265728,-0.0707583761412,-0.105331563496,0.0680907476226,0.0479491361014,-0.133904574825,4.99304771423,-2.35815286636,-0.578444421291,0.367425113916,2.11870980263,-0.246576786041
2017/07/09/10:18:51.793058,511646,1499566734,599742640,,0.784058755092,-0.0634520440676,0.0146949272787,0.77846883004,0.6250752442,0.00855174972731,0.0565162571339,-0.0684786184311,-0.0599357577249,-0.113318308507,0.0830824693639,0.0782471466646,-0.103385717593,5.34234857559,-2.05085968971,-0.616932213306,0.333062320948,2.3319978714,-0.269748806953
2017/07/09/10:18:51.803023,511647,1499566734,609721900,,0.782908009461,-0.0634112336098,0.0134681190681,0.778963256115,0.624582888763,0.00826807419195,0.0551733598443,-0.0828521299625,-0.0541925960683,-0.108573870665,0.0848197411102,0.119321150506,-0.0742012731303,5.24570131302,-1.54998016357,-0.112049229443,0.177727252245,2.32655954361,-0.275783598423
2017/07/09/10:18:51.813278,511648,1499566734,619728026,,0.78195325581,-0.0644347179471,0.0125058237591,0.779023632376,0.624540992759,0.00762707887698,0.0548867582468,-0.0839315710862,-0.0469026217692,-0.108702399296,0.0783549348875,0.125603448292,-0.0603165752337,4.91385936737,-1.88714683056,0.220019549131,0.34681135416,2.20961856842,-0.249231085181
2017/07/09/10:18:51.823293,511649,1499566734,629719413,,0.782084662944,-0.0643133577287,0.0119301493532,0.778742478326,0.624908841092,0.00815690459564,0.0546127977973,-0.0726480505344,-0.039698073184,-0.102689538271,0.063856678885,0.11720267571,-0.0128508310387,4.64011764526,-1.3390237093,0.407625287771,0.179843023419,2.02817964554,-0.246762394905
2017/07/09/10:18:51.833114,511650,1499566734,639731086,,0.780811604658,-0.0649940048483,0.0107809255348,0.778853406956,0.624863451106,0.00747127081173,0.0536397059863,-0.0757896825134,-0.037219745409,-0.100209868365,0.0765318261391,0.121205105852,0.0230292016351,6.52060604095,-0.920985579491,0.67153018713,-0.0734373182058,2.742374897,-0.37953543663
2017/07/09/10:18:51.843588,511651,1499566734,649728242,,0.780569789313,-0.0661176000571,0.0102419378941,0.779090374514,0.624555634943,0.00749200087219,0.0537802670511,-0.0780231488042,-0.0438884837765,-0.0856023796353,0.0611076190867,0.127503383252,0.0252613839936,5.06608009338,-1.83537793159,0.91382920742,0.222258374095,2.23595929146,-0.292531728745
2017/07/09/10:18:51.853090,511652,1499566734,659725138,,0.779859603588,-0.0658087511255,0.00897321603001,0.778878696369,0.624897347922,0.00732698865097,0.0528923070063,-0.0873445873284,-0.0704389637192,-0.0911542491366,0.0517299930288,0.126313164724,-0.0208783177908,6.44214820862,-1.20783257484,0.639758110046,0.113771386445,2.68083238602,-0.3433598876
2017/07/09/10:18:51.863247,511653,1499566734,669722397,,0.779079265373,-0.0661247782834,0.00840550337203,0.779152349867,0.624616435702,0.00695963045532,0.0522253529602,-0.0660490143503,-0.0332705029845,-0.0939481240353,0.0725468674642,0.095464317933,-0.0471633185783,6.55343151093,-1.10352289677,0.386729985476,0.141455113888,2.70968651772,-0.312029123306
2017/07/09/10:18:51.873163,511654,1499566734,679738378,,0.778666416538,-0.066220944243,0.00744940182255,0.779253258093,0.624514883021,0.00663808416479,0.0519755372816,-0.0537180981527,-0.0275022569426,-0.0810908255651,0.0692793222899,0.0742917063956,-0.0544606618518,5.8785405159,-0.901362478733,0.262873321772,0.00463941693306,2.51592040062,-0.313327550888
2017/07/09/10:18:51.883051,511655,1499566734,689721330,,0.777809579357,-0.0670728754703,0.00623980794583,0.779650550207,0.624082924349,0.00675031442779,0.0511855092032,-0.0594782056759,-0.0359205844939,-0.0914800546507,0.048515985684,0.0893692030549,-0.047740403809,4.81375360489,-1.50729477406,0.180228158832,0.396732211113,2.1005897522,-0.236701369286
2017/07/09/10:18:51.893126,511656,1499566734,699722339,,0.776833251905,-0.0673623707536,0.00568530005136,0.779940756843,0.623770204862,0.00588525709352,0.0506804803691,-0.0548506854806,-0.0483407908416,-0.0839965122527,0.0497700742625,0.0568604903826,-0.103873853892,3.84630942345,-2.9451007843,0.355190515518,1.33712601662,1.67406058311,0.00246400386095
2017/07/09/10:18:51.903231,511657,1499566734,709721738,,0.77720088294,-0.0676317402253,0.00553871621776,0.780318466417,0.623270260796,0.00672162898155,0.0509125984346,-0.0515582514303,-0.0353374670928,-0.0738438672788,0.0539087766388,0.0592497961837,-0.0822713203155,3.09953713417,-3.54400873184,0.481844305992,1.66223931313,1.32579338551,0.080158546567
2017/07/09/10:18:51.913190,511658,1499566734,719725297,,0.776492278302,-0.0677226711132,0.00445235533251,0.78027876202,0.623388292361,0.00658047366168,0.0500878014575,-0.0594421317716,-0.0343242767839,-0.0698760822876,0.0700069596637,0.075313581174,-0.0680564212765,3.45619869232,-3.39389610291,0.643724799156,1.49314403534,1.48806464672,0.0133174136281
2017/07/09/10:18:51.923023,511659,1499566734,729723241,,0.775466203928,-0.0673416054809,0.00338395394557,0.780386645216,0.623348164581,0.00601858074137,0.0489645419343,-0.0562873216771,-0.0112891417349,-0.0805222824186,0.0865473478529,0.084608040665,-0.0612593244621,3.93667721748,-2.60513496399,0.737022519112,0.913937330246,1.73054933548,-0.148215249181
2017/07/09/10:18:51.933081,511660,1499566734,739725779,,0.775296547618,-0.0677864115214,0.00324810904,0.780593792288,0.623096715333,0.00616028313734,0.0488453241772,-0.0494523005637,-0.00994975519463,-0.0692782579601,0.0514303973311,0.0891334467235,-0.0112873980251,4.95743560791,-2.14090466499,0.722040057182,0.596546888351,2.15865111351,-0.224618643522
2017/07/09/10:18:51.943331,511661,1499566734,749726600,,0.774277766966,-0.0682089095868,0.00212071310013,0.780808608445,0.622897031476,0.00562841876711,0.0480158938104,-0.0455787855334,-0.0185355825948,-0.0597332076984,0.0616812343757,0.0651814403553,-0.0367958765983,5.72080087662,-2.17737436295,0.526018917561,0.540958344936,2.45104980469,-0.24770000577
2017/07/09/10:18:51.953027,511662,1499566734,759728773,,0.774918548769,-0.0687039538124,0.00233726644936,0.780768404918,0.622891768839,0.00605528576915,0.0486813692171,-0.0555192657614,-0.0274803400476,-0.057261138982,0.0412993455946,0.0914644521152,-0.0557876834807,6.50161933899,-2.46118378639,0.110074922442,0.60468262434,2.71762776375,-0.278757840395
2017/07/09/10:18:51.963141,511663,1499566734,769720662,,0.773865475345,-0.0681654570596,0.00121455595543,0.781093575373,0.622593321013,0.00576175132736,0.0472988938826,-0.0695902336946,-0.0421694537017,-0.0785518639033,0.0451197761842,0.108591489629,-0.0877291682203,6.81384754181,-2.72460913658,-0.171644881368,0.786096453667,2.78180265427,-0.240565508604
2017/07/09/10:18:51.973071,511664,1499566734,779728626,,0.773355251479,-0.0688380104053,0.00087007596358,0.781339735125,0.622294015371,0.00538110879409,0.0472167387308,-0.0509104217344,-0.00466742869968,-0.0668346886999,0.0549521873139,0.0990882447036,-0.0303463650649,6.62193059921,-2.86818766594,-0.16818074882,0.937484204769,2.67220950127,-0.239768087864
2017/07/09/10:18:51.983261,511665,1499566734,789723059,,0.772635285555,-0.0688637483172,-0.000116109033161,0.781596099845,0.622026163892,0.00530487042116,0.0465064134401,-0.0459647393073,-0.0196070619679,-0.0557502370191,0.0515132376341,0.0714080026663,-0.0687850169257,6.31542921066,-2.58705472946,-0.073650971055,0.74709135294,2.56166267395,-0.232001960278
2017/07/09/10:18:51.993193,511666,1499566734,799727582,,0.772195299072,-0.0696428684588,-0.000465798874075,0.781913825656,0.621636961207,0.00492371236433,0.0464113646081,-0.0532207842355,-0.0316370446277,-0.0491331634511,0.0505318801894,0.0723283504663,-0.0812704153759,5.90212774277,-2.17250537872,0.153801560402,0.57266253233,2.42188620567,-0.249664962292
2017/07/09/10:18:52.003040,511667,1499566734,809725412,,0.771788465791,-0.0696422635518,-0.00116746017879,0.781829240352,0.621769319984,0.00466982830155,0.0460884406315,-0.0626585947588,-0.0345563879667,-0.0540714901194,0.0496138211191,0.0927006891093,-0.0797302996349,5.89059925079,-1.9940880537,0.262603372335,0.440995752811,2.45369696617,-0.270746171474
2017/07/09/10:18:52.013211,511668,1499566734,819725242,,0.772003625401,-0.069684744848,-0.000958504119677,0.782029172736,0.621516362281,0.00519412365024,0.0460522039292,-0.0347218233134,-0.0315943349958,-0.0395654916825,0.035295305864,0.0369835367172,-0.0706966672879,6.44729375839,-2.24395251274,0.12477761507,0.519936919212,2.65684938431,-0.272701472044
2017/07/09/10:18:52.023328,511669,1499566734,829723847,,0.771581468925,-0.0706105422661,-0.00153502397783,0.782156747885,0.621341392519,0.00470165537238,0.0462989213382,-0.0358005249351,-0.0166365977884,-0.045807874716,0.0382869974323,0.0508473006984,-0.0427553412601,6.47922229767,-2.35136723518,-0.0718863755465,0.615425169468,2.6582326889,-0.271592259407
2017/07/09/10:18:52.033079,511670,1499566734,839729043,,0.771025060928,-0.0706400662185,-0.00235277268644,0.782399875789,0.621089920159,0.0047842184417,0.0455505949153,-0.0408990703693,-0.0434989977248,-0.0489959265668,0.0136086297106,0.0472619005833,-0.05314965685,6.79494905472,-2.5993437767,-0.207068234682,0.730043649673,2.78391814232,-0.255731672049
2017/07/09/10:18:52.043092,511671,1499566734,849725800,,0.770591364762,-0.0701154680907,-0.00256166118053,0.782253090681,0.621315825892,0.00442569562039,0.0450239917628,-0.0310466705966,-0.0154432806506,-0.0479962473574,0.0310839156748,0.0432629034701,-0.0373010685157,6.31575489044,-2.4482691288,-0.256849676371,0.730297267437,2.60377717018,-0.24925366044
2017/07/09/10:18:52.052946,511672,1499566734,859721703,,0.770148948907,-0.0701678275221,-0.00318732709824,0.782490441871,0.621051892996,0.00427736054062,0.0445528761489,-0.0281351188758,-0.00881594769585,-0.0462369876722,0.0209792226447,0.0486837424043,-0.0250328943638,5.88283729553,-2.28115272522,-0.245093613863,0.629393517971,2.48251485825,-0.257230043411
2017/07/09/10:18:52.062985,511673,1499566734,869723249,,0.770292154997,-0.0712212095821,-0.00293511028042,0.782871700363,0.620527024181,0.00459973711811,0.0451326428351,-0.0230580625464,-0.0210549716801,-0.0341520363033,0.018153130135,0.0217711641628,-0.0341962411156,5.39095687866,-1.97719907761,-0.0249925088137,0.546780347824,2.32473683357,-0.245320811868
2017/07/09/10:18:52.073432,511674,1499566734,879725710,,0.770164583951,-0.0706505091478,-0.00330874461718,0.782603968947,0.620899324861,0.00473753110054,0.0446386824891,-0.0234708517032,-0.0375582440502,-0.0276541955187,-0.0015234437696,0.00949525402097,-0.0396341466964,4.97184991837,-1.84983038902,0.0578533113003,0.513991713524,2.18638181686,-0.246660724282
2017/07/09/10:18:52.082909,511675,1499566734,889721139,,0.769814239347,-0.0716946889812,-0.00358982485989,0.783128459034,0.620224903787,0.00473471049342,0.044815933436,-0.0321365089674,-0.0163216135244,-0.034272816444,0.0325132848252,0.0369129274804,-0.0327329730913,5.52899932861,-1.97406077385,0.172519385815,0.581507146358,2.4100253582,-0.228639483452
2017/07/09/10:18:52.093184,511676,1499566734,899737033,,0.768644752844,-0.0715072297551,-0.0047228233945,0.783111562219,0.62032578174,0.00386453032898,0.0437866535883,-0.0327952300486,-0.0233002606896,-0.029461730718,0.0320012299023,0.0358567707824,-0.0570718941735,5.29317855835,-1.50392365456,0.281713485718,0.257809877396,2.36117219925,-0.331376850605
2017/07/09/10:18:52.103183,511677,1499566734,909728955,,0.769213114046,-0.0710171782522,-0.00437327431858,0.782912235362,0.620563440913,0.00448351354316,0.0439243170619,-0.0233435957376,0.0132853562226,-0.0360447453517,0.0285595380892,0.0444133811424,0.0247696390323,4.69192504883,-1.51458501816,0.554496526718,0.363388627768,2.10548782349,-0.239927202463
2017/07/09/10:18:52.113058,511678,1499566734,919725089,,0.768562867081,-0.0716298226219,-0.00482993315589,0.782993902797,0.620462167759,0.00399176201585,0.0439466995108,-0.0396280006219,-0.0374951864316,-0.0212806688174,0.00344961455384,0.0407575150699,-0.0420243743612,4.25948667526,-1.33728945255,0.755217313766,0.26795655489,1.95069336891,-0.261731684208
2017/07/09/10:18:52.122988,511679,1499566734,929723168,,0.768307573033,-0.072052678784,-0.00492653211555,0.783161973475,0.620258992411,0.00390609097045,0.0438274809871,-0.0411454434853,-0.0494727505962,-0.0263358992175,-0.00369160131854,0.0315574597968,-0.0583130933427,3.93960309029,-1.37468731403,0.802753984928,0.347377300262,1.81396973133,-0.231376856565
2017/07/09/10:18:52.132899,511680,1499566734,939727687,,0.768235854702,-0.0722617345413,-0.0050903832244,0.783282279783,0.62010591736,0.00415684100556,0.043820567146,-0.0112097535903,-0.0165602630959,-0.0178452211144,0.018960474617,-0.0118011270743,-0.0401408713756,3.7969622612,-1.32976353168,0.672012269497,0.337918817997,1.74310660362,-0.203834414482
2017/07/09/10:18:52.143235,511681,1499566734,949720532,,0.76818589936,-0.072019774622,-0.00540011036693,0.78343492082,0.619925210619,0.00431093905396,0.0436334033018,-0.0154534929247,0.00488993517513,-0.0186764938368,0.0167287449628,0.0145220436618,-0.00917900771676,3.50605845451,-1.10108470917,0.602376401424,0.206459969282,1.61645829678,-0.234860390425
2017/07/09/10:18:52.152986,511682,1499566734,959741305,,0.768610051398,-0.0722587417774,-0.00486811380575,0.78310317645,0.62028454701,0.00435578998206,0.0444693475136,-0.0157917476207,0.00161333003204,-0.0230307170466,0.015405443568,0.00592443121149,0.00577396777082,3.97128605843,-1.39564669132,0.330169051886,0.38652291894,1.76694464684,-0.214157551527
2017/07/09/10:18:52.163018,511683,1499566734,969721393,,0.768120750963,-0.0722777901488,-0.00536162098173,0.783424987296,0.619911439077,0.00418852680227,0.0440176467545,-0.0197013837471,-0.0199020818094,-0.0116933903115,-0.0108189412941,0.00286176064934,-0.0297904690005,3.36321496964,-1.21706950665,0.301828086376,0.330393254757,1.51064825058,-0.191292494535
2017/07/09/10:18:52.173206,511684,1499566734,979725503,,0.767457957031,-0.072609901327,-0.00579066824751,0.783574007863,0.619738776495,0.00374918701034,0.043835678462,-0.0266777075403,-0.0297464131409,-0.0217624911142,-0.0339472743741,0.0161580213531,-0.0164574624986,3.48082518578,-1.140011549,0.210319966078,0.239890187979,1.54642319679,-0.226836055517
2017/07/09/10:18:52.183393,511685,1499566734,989727721,,0.767004597622,-0.0726593648666,-0.00612481060268,0.78364225983,0.619660506495,0.003732109558,0.0437234108451,-0.0318098713684,0.00651689077019,-0.0396944259015,0.016316807889,0.03364281784,0.0191785667362,3.28403830528,-1.09672176838,0.0835435912013,0.250478982925,1.43525183201,-0.209189653397
2017/07/09/10:18:52.193106,511686,1499566734,999728541,,0.767381963244,-0.0725979303482,-0.0060971358925,0.783215254294,0.620170620559,0.00381046162737,0.0441332892378,-0.0171115388465,0.00125729116129,-0.0252024319979,0.0159542828496,-0.00411803863765,-0.0099176698565,3.41827464104,-1.04822742939,0.146568074822,0.293090760708,1.49623429775,-0.206370681524
2017/07/09/10:18:52.203084,511687,1499566735,9737223,,0.767004435556,-0.0728145396087,-0.00653352919972,0.783296974481,0.620084974203,0.00374895106026,0.0438910002468,-0.00233923187792,-0.00286731380532,-0.0122027698498,-0.0254679945858,-0.0188699267386,0.0329813261567,3.81779718399,-1.19427037239,0.088671438396,0.342925429344,1.65589618683,-0.193470686674
2017/07/09/10:18:52.213098,511688,1499566735,19720629,,0.767454969602,-0.0724606520949,-0.0063828667202,0.783213394774,0.620167265606,0.00431031747399,0.0441674323533,-0.0158362688549,0.0036831051314,-0.0310902294779,0.00759484703917,0.00373107114123,0.0293513557385,3.81943082809,-1.29728901386,0.0469347909093,0.436300158501,1.66916155815,-0.185328707099
2017/07/09/10:18:52.223684,511689,1499566735,29731683,,0.767294539585,-0.0726235881479,-0.00654620218584,0.78299791561,0.62043732023,0.00416489523262,0.0442091558744,-0.02133892626,-0.00480431221478,-0.0404759419547,0.0163450690682,0.00811244718363,0.00341674415042,3.85772538185,-1.16221618652,0.11141911149,0.310768038034,1.73175525665,-0.226183861494
2017/07/09/10:18:52.233305,511690,1499566735,39725017,,0.766547908955,-0.0725296860603,-0.00737965481267,0.783103906617,0.620345613091,0.00397139665927,0.0436327831891,-0.0129359368971,-0.00134331974368,-0.0221155025897,0.0171508411584,-0.017556789433,-0.0143842400721,3.41171574593,-1.1739398241,0.081334605813,0.323489755392,1.50034105778,-0.187817007303
2017/07/09/10:18:52.243045,511691,1499566735,49723623,,0.766982838779,-0.0719488015027,-0.00758079207267,0.783179975056,0.620241697787,0.00470416127601,0.04367188872,0.00574613910245,0.00450614773656,-0.00849286923907,0.0063724184729,-0.0410148367539,0.00566786031591,3.103089571,-0.871346592903,0.0975223481655,0.197774112225,1.37598919868,-0.200845718384
2017/07/09/10:18:52.252973,511692,1499566735,59728655,,0.766495663605,-0.0732649308747,-0.007461717487,0.783683081175,0.619578225035,0.00434491445311,0.044099581182,-0.00609971802491,0.0203533751385,-0.0319032587162,0.0109356397847,-0.00880562978795,0.0223640263923,3.70954442024,-1.24219214916,-0.00735555123538,0.330594956875,1.63715410233,-0.199792802334
2017/07/09/10:18:52.263015,511693,1499566735,69723497,,0.766320555227,-0.0730517656589,-0.00793957552392,0.783673693908,0.61960655222,0.00449584103955,0.043852586417,-0.0138742286939,0.00362713611028,-0.0289568286152,0.0089532886285,-0.00199851817124,-0.00613360982158,3.38187360764,-1.05165982246,0.106783568859,0.30108115077,1.49471902847,-0.199929475784
2017/07/09/10:18:52.273217,511694,1499566735,79753386,,0.766025817233,-0.0726491994936,-0.00807481884929,0.783408542713,0.619958499406,0.00416618381865,0.0436481057037,-0.0292139823584,-0.00243785846953,-0.0356032871626,0.0111842275053,0.0244581238675,0.0102729963873,3.69878005981,-1.20253872871,0.0537140667439,0.391773581505,1.59077239037,-0.154538661242
2017/07/09/10:18:52.283205,511695,1499566735,89725951,,0.766220326824,-0.0728643663126,-0.00805763295371,0.783445992393,0.619893976523,0.00451805780506,0.0438568355833,-0.0102559788103,-0.0208116138452,-0.0154820065423,-0.0325316816423,-0.0201912656316,0.0138769908018,3.53700351715,-1.07504165173,-0.054042454809,0.286798655987,1.5588581562,-0.214513421059
2017/07/09/10:18:52.293050,511696,1499566735,99742430,,0.765940087634,-0.072568500357,-0.00885692185841,0.783070699041,0.620374485096,0.00428007141021,0.043788806028,-0.0221182917105,-0.0103046422972,-0.0266827905281,-0.0178691248125,0.0167906699429,0.00557109843782,3.36470556259,-0.822441935539,-0.0628619864583,0.139297306538,1.51007699966,-0.230937287211
2017/07/09/10:18:52.303021,511697,1499566735,109728896,,0.765990042663,-0.0731714071393,-0.0086504787376,0.783088563003,0.620317083663,0.00434142194753,0.0442738101437,-0.0148218384829,0.0229678805424,-0.0389121308101,-0.000626829891691,0.0196180230234,0.0728625005036,3.57458138466,-0.985223174095,-0.151350036263,0.256522148848,1.57798087597,-0.194435626268
2017/07/09/10:18:52.313004,511698,1499566735,119728381,,0.76586666256,-0.0729311956521,-0.00848389627285,0.783421252369,0.619908411188,0.00441617851741,0.0441044265696,-0.0206782707224,0.00323661355814,-0.0302139913104,-0.00271918108464,0.0139337143207,0.0444709036678,1.9922580719,-0.740121483803,0.811631679535,0.162950307131,0.943810582161,-0.169650182128
2017/07/09/10:18:52.322875,511699,1499566735,129722839,,0.765526020885,-0.0723447711764,-0.00939302689316,0.783068477748,0.62038233345,0.00435072333413,0.0437103043697,-0.00898745421888,0.00643137761293,-0.024771565453,0.00898922500582,-0.0188180859619,-0.00263158106845,2.11322951317,-0.596858263016,0.38516753912,0.157842874527,1.05162847042,-0.163127034903
2017/07/09/10:18:52.333165,511700,1499566735,139728221,,0.76566626141,-0.0717296283976,-0.00972249020802,0.782604170297,0.620965323173,0.00445657991382,0.0437369288637,-0.00800236303889,0.0222326619549,-0.0384122732108,0.0219756644973,-0.00953705806616,0.0234782137542,2.26303267479,-0.542219042778,0.226916193962,0.310128211975,1.09755241871,-0.143812090158
2017/07/09/10:18:52.343339,511701,1499566735,149722834,,0.765123561283,-0.0721066540428,-0.0103206527836,0.782828936353,0.62069757482,0.00427592581991,0.0435326714036,-0.0221283510089,-0.000707114694941,-0.0293039621747,-0.0201543620303,0.0246713105023,0.0280938225563,1.9902806282,-0.571841716766,0.20122794807,0.135474294424,0.953374564648,-0.151691764593
2017/07/09/10:18:52.353181,511702,1499566735,159723720,,0.765155397015,-0.071677157213,-0.0103992627588,0.782779093705,0.62076226959,0.00447326611966,0.0434866071517,-0.020322639802,0.0102741510054,-0.0400326857261,0.006427098274,0.0144365621792,0.00608696169407,2.50919890404,-0.617296099663,0.323931932449,0.201978698373,1.12966132164,-0.16339789331
2017/07/09/10:18:52.362880,511703,1499566735,169719991,,0.764315610466,-0.0718868474049,-0.0109612255718,0.782659964844,0.620940209449,0.00393621902597,0.0431409538605,-0.0178480694919,0.000733311671085,-0.0195468751588,0.0139264388781,-0.00520900264362,-0.00129579225671,1.57288515568,-0.500426471233,0.238232955337,0.119458578527,0.794153809547,-0.147805586457
2017/07/09/10:18:52.373166,511704,1499566735,179725101,,0.764462457,-0.0724585854573,-0.0110504914859,0.783073941533,0.620383872899,0.00430924007818,0.0435945270459,-0.00599175018815,0.0193902814803,-0.022830812434,0.0258044618031,-0.0201857435705,0.0192401158755,2.00612711906,-0.873064398766,0.162215158343,0.209848374128,0.948704302311,-0.140923410654
2017/07/09/10:18:52.383208,511705,1499566735,189722207,,0.764387416398,-0.0718280125665,-0.011547798246,0.782584928008,0.621001640746,0.00405109193527,0.0436048311632,-0.0109896464597,0.0206342724283,-0.0338844209648,-0.00217540726823,-0.000108602401471,0.0687633526406,2.11745071411,-0.553927063942,0.159262001514,0.17089292407,1.08234989643,-0.171596050262
2017/07/09/10:18:52.393168,511706,1499566735,199720377,,0.763867730994,-0.0723369225826,-0.0118256010269,0.78249843034,0.621108277889,0.00392285563165,0.0436500269917,-0.0381579383601,-0.0044152886949,-0.0428200846397,-0.0324559235574,0.0445964309964,0.0339432990029,2.45527744293,-0.858663260937,0.198025792837,0.248481333256,1.16938233376,-0.165066003799
2017/07/09/10:18:52.403130,511707,1499566735,209720578,,0.764281643306,-0.0725683407527,-0.0116035486609,0.782212059297,0.621416361616,0.00397681289474,0.0443867633947,-0.00821711551154,-0.00148672156896,-0.030598794773,-0.0197515605771,-0.0247261627233,0.0252459411307,2.72210764885,-1.20136582851,0.184270054102,0.355631202459,1.2410633564,-0.160796642303
2017/07/09/10:18:52.412717,511708,1499566735,219726351,,0.764497146583,-0.0713631062229,-0.0121717143934,0.782041644687,0.621656413918,0.00448205331519,0.0439781787822,-0.00407034207244,0.00208424546638,-0.021796024964,-0.0100824723827,-0.0312971203162,0.0247644546808,1.90529549122,-0.0723100751638,-0.24370983243,0.0587323829532,0.870737195015,-0.143349170685
2017/07/09/10:18:52.422883,511709,1499566735,229722579,,0.763942590408,-0.0718991326802,-0.0127774143725,0.782016266773,0.6216769536,0.00399047202368,0.0441859706068,-0.0076639605233,0.0177251370991,-0.0262858480252,-0.0155984034848,-0.00733382738275,0.0669247610062,1.48491370678,-0.596179366112,-0.424040794373,0.0822105109692,0.857842087746,-0.165124595165
2017/07/09/10:18:52.433040,511710,1499566735,239720321,,0.7642823423,-0.0710003702759,-0.0126462625208,0.781795787668,0.621959943633,0.00484415083171,0.0440194173421,-0.0256132717955,0.00449718162897,-0.0371973895454,-0.0200572475514,0.0168185967004,0.0326532731908,2.28988289833,-0.17034484446,-0.165948480368,0.0645590052009,1.06365287304,-0.172186642885
2017/07/09/10:18:52.443171,511711,1499566735,249721297,,0.764134499092,-0.071654361409,-0.01276577435,0.781856091155,0.621845638578,0.00467010988056,0.0445785214973,-0.011923983363,-0.0103396157574,-0.0291025259369,-0.0336053101909,-0.0293686553382,0.0408192229918,2.28802156448,-0.81042522192,-0.306818723679,0.316885381937,1.0721282959,-0.135041341186
2017/07/09/10:18:52.453197,511712,1499566735,259725162,,0.76350728189,-0.0718405336213,-0.0135585783927,0.78149301433,0.62230794627,0.00403832342697,0.0445553645107,-0.0211187210199,-6.77397740669e-06,-0.0371850591933,-0.0212791424219,-0.00286279021451,0.0428119293297,2.19532322884,-1.02950644493,-0.694585800171,0.269311457872,1.03303229809,-0.159347236156
2017/07/09/10:18:52.463056,511713,1499566735,269719921,,0.763858756231,-0.0716071482562,-0.0136863588775,0.781474351737,0.622299543491,0.00441244770527,0.0449627184833,2.31163211903e-05,0.00857130608093,-0.0371583111843,-0.0295409208199,-0.0348285853148,0.0577682657662,2.53798079491,-1.00117385387,-0.604276716709,0.314597189426,1.0933214426,-0.137609526515
2017/07/09/10:18:52.473055,511714,1499566735,279727310,,0.764031100548,-0.0717669811416,-0.0137524926262,0.781416315942,0.622357332661,0.00493463604145,0.0451169705359,0.013278735567,0.00108715390022,-0.0264391706883,-0.0246543038137,-0.075483056569,0.0372892054971,2.71454715729,-0.707590818405,-0.872279047966,0.298305094242,1.16761493683,-0.133007884026
2017/07/09/10:18:52.483000,511715,1499566735,289739785,,0.764606037215,-0.0712843135709,-0.0140037571532,0.780982197943,0.622864937509,0.00553773193855,0.045556664087,0.0156843235107,0.0150124220221,-0.0270920461613,0.0132902899143,-0.0809538826091,0.0324710252414,2.56156229973,-0.425996541977,-0.6731518507,0.302512466908,1.0902094841,-0.108077287674
2017/07/09/10:18:52.493065,511716,1499566735,299727849,,0.763814662823,-0.0717997295976,-0.0147233538396,0.781306374498,0.622475130848,0.00501458316696,0.0453862820611,0.0250826051717,0.00053318930332,-0.0192948098007,-0.0111861352447,-0.104278079375,0.0268535983277,1.69096934795,-1.12376463413,-0.990512669086,0.369395911694,0.907962799072,-0.130083575845
2017/07/09/10:18:52.503170,511717,1499566735,309734531,,0.764588290845,-0.071013754681,-0.0145512723932,0.781159252426,0.622621138981,0.00574953568747,0.0458266568974,0.00769461263079,-0.00610351129916,-0.0310508814929,0.00523223421517,-0.0783637696509,-0.0213703815719,3.12148046494,-0.95435833931,-0.500721037388,0.299979895353,1.38299870491,-0.175062566996
2017/07/09/10:18:52.513083,511718,1499566735,319728956,,0.764208869217,-0.0710821114128,-0.0151806442933,0.78111599064,0.622684486855,0.00563939832903,0.0457169135278,0.0155157148613,0.0281380301847,-0.036113871389,0.00235636552119,-0.0674277168642,0.0370077159929,2.39413547516,-1.04689002037,-0.518158018589,0.337837994099,1.08503890038,-0.13888977468
2017/07/09/10:18:52.522812,511719,1499566735,329721474,,0.764799352204,-0.0714481966707,-0.0151510070978,0.781284995452,0.622406866732,0.00643948033882,0.0464971097921,0.01246867652,0.0101081210618,-0.025990066125,0.000948704877706,-0.0682145852293,0.0106046003839,2.21381211281,-1.02871704102,-0.785767793655,0.312673449516,1.00961184502,-0.142284423113
2017/07/09/10:18:52.533208,511720,1499566735,339728103,,0.764719564812,-0.0711114388336,-0.0155783661438,0.781039639063,0.6227274501,0.00660589993901,0.0463029933181,0.0116911961653,0.000906311396984,-0.0250444908415,-0.000805494966975,-0.0756751464612,0.00851711876465,2.52659010887,-0.867566108704,-0.78044629097,0.293640434742,1.13350737095,-0.121575601399
2017/07/09/10:18:52.543277,511721,1499566735,349728722,,0.764667782268,-0.0705930098423,-0.0161483722866,0.780974899498,0.622806401245,0.00679850847651,0.0463052179061,0.00440149818868,0.0169991302166,-0.0389997724476,0.0147362594727,-0.0540458175338,0.0313674939603,2.72126460075,-0.895864903927,-1.06428253651,0.357903748751,1.21484923363,-0.143348842859
2017/07/09/10:18:52.553168,511722,1499566735,359724543,,0.764786303405,-0.0704731794266,-0.0165535669505,0.780628133476,0.623228494316,0.00683579894875,0.0464675472931,0.0195817022561,0.00217959902734,-0.0246935717038,-0.0278594007527,-0.0820152909192,0.0473986982596,2.71114873886,-0.918106734753,-0.73668473959,0.331376761198,1.16231513023,-0.122999303043
2017/07/09/10:18:52.562774,511723,1499566735,369721019,,0.765060626665,-0.0713823383004,-0.0164385960036,0.780788167218,0.62295895678,0.00705599120137,0.0473517590895,0.014121731225,0.0172194470782,-0.0287596743737,0.00689336158875,-0.0635420711642,0.0294409734659,2.42552947998,-1.23901820183,-0.786950945854,0.379113078117,1.05427110195,-0.1200652197
2017/07/09/10:18:52.573009,511724,1499566735,379721663,,0.765737678017,-0.0703949080884,-0.0164045858806,0.780422834889,0.623389307175,0.00767385348003,0.0476138893199,0.0167829670178,0.00958547230496,-0.0328766274951,-0.00842132279202,-0.0815003784751,0.0325899256447,2.64731550217,-0.715190172195,-0.439580559731,0.288297623396,1.12394821644,-0.154199719429
2017/07/09/10:18:52.582881,511725,1499566735,389722796,,0.765276410436,-0.0705423741867,-0.0170267522324,0.780570260981,0.623213025418,0.00759982601422,0.0475166840736,0.0146821229212,0.00420715783278,-0.0242701951195,-0.0161478815517,-0.0818176247424,0.0432305927658,2.49098753929,-0.715046584606,-0.639484703541,0.301497668028,1.14139723778,-0.123075462878
2017/07/09/10:18:52.593265,511726,1499566735,399727059,,0.765627206162,-0.0709245991579,-0.0172145300202,0.780520878591,0.623216738768,0.00797460822337,0.048212656286,1.43004568346e-05,-0.00931188551135,-0.0394249209113,-0.0214499008448,-0.0596088196597,0.0107195312066,-2.35864758492,1.69926583767,2.44990754128,-0.809675574303,-0.533909440041,-0.169280916452
2017/07/09/10:18:52.603297,511727,1499566735,409722130,,0.766404931117,-0.069893292442,-0.0172336972248,0.7802256602,0.623563071268,0.00857847012054,0.0484089368533,0.0143886016465,0.0139209656845,-0.0266170724993,0.00768895555274,-0.0798437300933,0.0214965048494,-1.47378408909,1.40227282047,2.2580332756,-0.635032057762,-0.206691414118,-0.149126559496
2017/07/09/10:18:52.612860,511728,1499566735,419720753,,0.766179362358,-0.0704216933678,-0.0177363216824,0.780118650006,0.623669649113,0.00873902919715,0.0487307916654,0.0319210133631,0.015330754867,-0.0275737289009,-0.0112531026452,-0.105191539433,0.0389546894705,-0.0705495253205,0.56696665287,1.1553208828,-0.229423522949,0.25230166316,-0.128278627992
2017/07/09/10:18:52.622876,511729,1499566735,429720324,,0.765281641229,-0.0709674094028,-0.0187969571708,0.780402899545,0.623343790024,0.00856968075514,0.04837762284,0.00856141453873,0.00358927366311,-0.034482095625,-0.0002735210413,-0.0668835961284,0.0272286724807,1.33761096001,-0.62824600935,0.346753716469,0.210622996092,0.752903401852,-0.108748041093
2017/07/09/10:18:52.633082,511730,1499566735,439729398,,0.765992468018,-0.0704903545523,-0.0184709281461,0.78037598146,0.623342559243,0.00916775965658,0.0487168716016,0.00991270449468,0.00395844287858,-0.0356913693787,0.0179952615392,-0.0665361398159,0.015088613382,2.40870499611,-1.33623290062,0.78002512455,0.53480142355,1.1675786972,-0.10772536695
2017/07/09/10:18:52.643319,511731,1499566735,449728912,,0.766698562251,-0.0706043672718,-0.0182493545948,0.780017859378,0.623730723267,0.00959706721843,0.0493965606673,0.00623219335437,0.00826408626782,-0.0247600214579,0.00657509115584,-0.0443518732492,0.0254279026915,1.01523137093,-0.615940570831,0.912403047085,0.154361799359,0.643004953861,-0.14355880022
2017/07/09/10:18:52.653167,511732,1499566735,459728719,,0.766814003334,-0.0712525342386,-0.0185235058463,0.780248317188,0.623415412518,0.00971426350913,0.0497133789374,0.0306725708821,0.0042579286163,0.00718704231268,0.000136587269147,-0.0852461294827,0.0112197394068,0.96294260025,-0.684055387974,0.828304290771,0.196112453938,0.651270031929,-0.124050654471
2017/07/09/10:18:52.662933,511733,1499566735,469722357,,0.767237363319,-0.0708283206121,-0.0183884587523,0.780298123396,0.623342670979,0.0103046815218,0.0497249102629,0.0270157398259,-0.00502411242324,-0.0049563290784,0.00702880977471,-0.0700486344499,-0.0305078801748,0.338032871485,-0.556997895241,1.1563603878,0.202463924885,0.442614346743,-0.0965544730425
2017/07/09/10:18:52.673039,511734,1499566735,479726971,,0.766647956323,-0.0705922164883,-0.0190144141979,0.780309223249,0.623376199151,0.0099127288672,0.049207400372,0.027281005023,0.00384679650466,-0.0105316056037,0.010326184558,-0.0596175968763,-0.00262562946473,-1.72730827332,0.391169607639,1.35260105133,-0.269246190786,-0.287742257118,-0.134150519967
2017/07/09/10:18:52.683235,511735,1499566735,489731321,,0.767363115516,-0.0704356307723,-0.0189077526936,0.78036728295,0.623244538192,0.0109128692816,0.0497399095117,0.00195556766748,-0.00118738826866,-0.0271021913005,0.0161952584149,-0.02470684605,-0.0196770499437,-2.92429375648,0.66973978281,1.32679903507,-0.328684270382,-0.783659100533,-0.0952448099852
2017/07/09/10:18:52.693140,511736,1499566735,499727290,,0.767492777416,-0.0716057136643,-0.0186441562593,0.780535042227,0.62297280921,0.0106243548355,0.0505672811731,0.027989678887,-0.0204070709975,-0.00117088252839,-0.021057618801,-0.100454739292,-0.00969980436813,-1.32077789307,0.127187922597,1.27245533466,-0.0603252500296,-0.184086441994,-0.0668811202049
2017/07/09/10:18:52.702912,511737,1499566735,509720833,,0.767417269795,-0.0707161511054,-0.0191596156353,0.780395000972,0.623175105633,0.0109195907064,0.0501716325857,0.0339785040113,-0.0162915987412,0.00026260101683,-0.020835615935,-0.108038053837,-0.00910154988079,-1.14265966415,-0.0759355574846,1.3552339077,-0.0273665711284,-0.0737959444523,-0.105420663953
2017/07/09/10:18:52.713063,511738,1499566735,519732489,,0.768237252971,-0.0717870898845,-0.0184804908772,0.780380653603,0.623087988271,0.0113796112451,0.0513604789957,0.0166578329663,-0.0244073446868,-0.00990713888535,-0.0347257813168,-0.0807341675407,0.00797065769713,-1.20370662212,0.0445067435503,1.43962597847,0.0137515738606,-0.120703592896,-0.0574822723866
2017/07/09/10:18:52.723084,511739,1499566735,529730538,,0.768130992909,-0.0711106788333,-0.018961703218,0.780205320344,0.623334166357,0.0113143145104,0.0510505773332,0.0228001197283,-0.000562355283297,-0.00493424177007,-0.0137939422623,-0.070556823739,0.0162406543154,-0.983303964138,-0.129422411323,1.31354904175,0.19177532196,-0.10249107331,0.00118955224752
2017/07/09/10:18:52.732966,511740,1499566735,539727336,,0.767589196786,-0.0713581144994,-0.0197106287504,0.780364451534,0.623146222574,0.0112409341774,0.0509288667917,0.0186140313076,0.000398260371796,-0.00728641763735,-0.00194509027497,-0.0635173434992,-0.00509225492318,-1.53450572491,0.163944914937,1.42546737194,0.111950010061,-0.28091019392,-0.0186488330364
2017/07/09/10:18:52.742835,511741,1499566735,549723666,,0.767869886037,-0.0709419063523,-0.0197837020553,0.780078107823,0.623496829887,0.011663200952,0.0509295450508,0.0188332597867,-0.00912723924915,-0.00865685852305,-0.0043931765806,-0.071598290591,-0.0025750542631,-1.689234972,0.0646983981133,1.54530870914,0.105285912752,-0.31586137414,-0.0169235989451
2017/07/09/10:18:52.753145,511742,1499566735,559728759,,0.768619770407,-0.0715679886699,-0.0193215458364,0.780416844123,0.622982022786,0.0122694374624,0.0518884341452,0.0186406998355,-0.0178620955822,-0.00937591463731,-0.0116334459045,-0.08081981131,-0.0127047596269,-1.20756316185,0.142411455512,1.51373755932,0.0220157057047,-0.151643767953,-0.0432742089033
2017/07/09/10:18:52.763342,511743,1499566735,569726116,,0.769032441982,-0.0713722767398,-0.0192932987599,0.78015809338,0.623275896846,0.0124981219998,0.0521948531103,0.0262395192035,-0.00474010916046,-0.00601175189682,-0.0104392116029,-0.08426099779,0.0074182960646,-0.493071734905,-0.19887252152,1.77682363987,0.229827731848,0.321249842644,-0.0468064695597
2017/07/09/10:18:52.772979,511744,1499566735,579722118,,0.769335675303,-0.0715769330368,-0.0192828314246,0.780448120286,0.622894190242,0.0129865952314,0.0522963445074,0.0245648112641,0.00110026654221,-0.00144743281648,0.00300687561469,-0.0696511820943,-0.00766583213424,-0.532556951046,-0.155808344483,1.95899152756,0.164315789938,0.402365624905,-0.0788870453835
2017/07/09/10:18:52.782922,511745,1499566735,589720646,,0.76915661388,-0.0715345659732,-0.0191249135621,0.780482660039,0.622865721557,0.012993667684,0.0521178941151,0.00564074972584,-0.0140412024984,0.00451953465823,0.0160273207295,-0.0341375611236,-0.0403129505681,-1.13889932632,0.375066101551,2.09709382057,-0.0859652385116,0.25355476141,-0.121209219098
2017/07/09/10:18:52.793257,511746,1499566735,599727059,,0.768527484462,-0.0715341399624,-0.0193603559754,0.780556571622,0.622839353079,0.0125315280479,0.0514348088239,-0.0189460634011,-0.000436531823357,-0.00907680761171,0.0308072120481,0.0401313450117,-0.0222168787353,-1.84377300739,0.626684010029,2.03449177742,-0.13377597928,-0.116258189082,-0.0666216909885
2017/07/09/10:18:52.803269,511747,1499566735,609724914,,0.768066828989,-0.0713398715437,-0.0195256244384,0.780787768524,0.622594407526,0.012239550046,0.05095937259,-0.0261607029821,0.00973134316701,-0.00480515899915,0.0379374944734,0.0733085825962,-0.0236680862283,-2.41426944733,1.03983616829,2.08656954765,-0.318431437016,-0.393208563328,-0.0732369348407
2017/07/09/10:18:52.813315,511748,1499566735,619733429,,0.767145180891,-0.0709514419291,-0.0198546061797,0.781010510577,0.622403273619,0.0116352053324,0.0500136916617,-0.0561406944707,0.0035516454286,-0.00922614726727,0.0526603926148,0.119637711258,-0.059632508616,-2.45672059059,0.781385064125,1.77262234688,-0.322714835405,-0.504289329052,-0.0669219568372
2017/07/09/10:18:52.822862,511749,1499566735,629723494,,0.767099034232,-0.0709521226756,-0.0196296332116,0.781033155567,0.622394282081,0.0115843962148,0.0497832231024,-0.0629004074052,0.0176130140536,-0.007608165016,0.0482550118172,0.142217688713,-0.0244411541326,-1.12522101402,0.342854321003,1.47187113762,-0.121209807694,-0.103875726461,-0.0783675611019
2017/07/09/10:18:52.833107,511750,1499566735,639727899,,0.766358363433,-0.0710962187703,-0.0196182455765,0.780762517952,0.622774555195,0.0108597944971,0.0494348948263,-0.0662169232064,0.0177974313298,-0.000998196501775,0.0415963929277,0.156657300988,0.0109111697852,-0.131089523435,-0.204258859158,1.41110551357,0.112094409764,0.256611406803,-0.0783351957798
2017/07/09/10:18:52.842849,511751,1499566735,649725835,,0.765504365898,-0.0702818249638,-0.0195934969422,0.780910259314,0.622697054198,0.0103219805426,0.048176781849,-0.0810383930681,0.0261826568235,-0.0114039709975,0.0469206996103,0.201732547643,0.0258977813581,0.593547463417,-0.49754691124,1.3306709528,0.253675162792,0.524809539318,-0.0827256515622
2017/07/09/10:18:52.852916,511752,1499566735,659728519,,0.764332857808,-0.0703917438327,-0.0197199822669,0.780975328552,0.622703721065,0.00922476610492,0.0472495042892,-0.104670745694,-0.00318645587105,-0.00630723360802,0.0341563898367,0.240659714687,-0.0328676859282,0.460005074739,-0.458545714617,1.27691471577,0.220463067293,0.466063767672,-0.0919007211924
2017/07/09/10:18:52.862886,511753,1499566735,669721623,,0.763028701269,-0.0695417766285,-0.0199744273405,0.780846572687,0.623001483332,0.0082471078747,0.0456044614242,-0.127620634571,0.0120565040405,-0.00938070683014,0.0706382305042,0.31246869647,-0.052838843606,0.380457401276,-0.323348194361,1.11017072201,0.0989240705967,0.456589341164,-0.0958528444171
2017/07/09/10:18:52.873188,511754,1499566735,679728326,,0.761685712031,-0.0690957700375,-0.0201900001126,0.781442206161,0.622386933169,0.00744187815685,0.0438999123089,-0.129176245496,0.0386797196813,-0.00684524325329,0.111128593627,0.324020231332,-0.0409398130884,-0.174172341824,0.0671397000551,1.1569737196,-0.0772526860237,0.226279333234,-0.122609160841
2017/07/09/10:18:52.883018,511755,1499566735,689720908,,0.76039598864,-0.0692363827183,-0.0199314467987,0.781466635003,0.622441502564,0.0065071761809,0.0428267547337,-0.114966662384,0.0544691900802,0.00493539487073,0.12884067541,0.311878877977,-0.0431565728093,-1.59255731106,0.412421494722,0.507203102112,-0.335998147726,-0.765422940254,-0.0531609505415
2017/07/09/10:18:52.893647,511756,1499566735,699723498,,0.759700047161,-0.0684955980924,-0.0201012759179,0.781497214279,0.622486802537,0.00590695556621,0.0416820419106,-0.116025860141,0.0456322023368,0.00127285501217,0.106728030878,0.298559264082,-0.00429305241918,-1.23420882225,0.533096253872,-0.0158921033144,-0.523611664772,-0.886586010456,-0.0875761285424
2017/07/09/10:18:52.903258,511757,1499566735,709725491,,0.758900105152,-0.0694799772165,-0.020454944178,0.781533769991,0.622435755356,0.00546825180657,0.0418185968126,-0.0873330140446,0.0241756679984,-0.0114494718282,0.0518418754603,0.207650794045,0.00678982155017,1.15670287609,-0.855058372021,-0.092444986105,0.181766360998,-0.0139410337433,-0.0353276953101
