time,.header.seq,.header.stamp.secs,.header.stamp.nsecs,.header.frame_id,.ch0,.ch1,.ch2,.ch3,.ch4,.ch5,.ch6,.ch7
2017/07/09/10:14:43.397878,194374,1499566483,397481918,0,344,398,254,89,63,53,62,138
2017/07/09/10:14:43.420763,194375,1499566483,420387029,0,357,422,220,75,67,58,59,144
2017/07/09/10:14:43.435707,194376,1499566483,435331106,0,386,419,193,64,68,57,58,152
2017/07/09/10:14:43.457917,194377,1499566483,457704067,0,375,378,190,67,63,59,62,213
2017/07/09/10:14:43.480210,194378,1499566483,479913949,0,366,326,172,74,67,54,47,194
2017/07/09/10:14:43.495153,194379,1499566483,494903087,0,391,387,218,83,73,58,51,204
2017/07/09/10:14:43.533813,194380,1499566483,533365964,0,407,420,238,87,70,47,46,213
2017/07/09/10:14:43.540588,194381,1499566483,540198087,0,388,411,242,87,76,49,52,218
2017/07/09/10:14:43.555427,194382,1499566483,555174112,0,383,434,249,85,80,48,50,189
2017/07/09/10:14:43.586427,194383,1499566483,586286067,0,409,479,272,86,84,45,52,191
2017/07/09/10:14:43.600088,194384,1499566483,599909067,0,388,468,242,84,87,44,49,202
2017/07/09/10:14:43.615247,194385,1499566483,615084886,0,419,429,213,83,95,44,51,201
2017/07/09/10:14:43.647209,194386,1499566483,647048950,0,402,442,219,95,102,41,46,206
2017/07/09/10:14:43.661037,194387,1499566483,660620927,0,418,413,228,97,109,44,42,178
2017/07/09/10:14:43.675484,194388,1499566483,675204038,0,417,397,206,95,110,48,42,182
2017/07/09/10:14:43.699463,194389,1499566483,699333906,0,446,410,208,89,104,47,41,173
2017/07/09/10:14:43.720797,194390,1499566483,720361948,0,442,372,196,80,94,48,45,165
2017/07/09/10:14:43.735706,194391,1499566483,735404014,0,413,385,190,64,76,53,46,150
2017/07/09/10:14:43.757899,194392,1499566483,757689952,0,422,386,170,67,81,50,47,150
2017/07/09/10:14:43.780277,194393,1499566483,780103921,0,447,397,175,67,75,49,56,177
2017/07/09/10:14:43.810999,194394,1499566483,810781955,0,433,366,167,68,76,53,56,179
2017/07/09/10:14:43.817557,194395,1499566483,817362070,0,434,412,164,68,81,57,50,178
2017/07/09/10:14:43.840388,194396,1499566483,840090036,0,445,387,168,75,83,54,50,178
2017/07/09/10:14:43.864589,194397,1499566483,864228010,0,495,397,172,68,69,56,52,188
2017/07/09/10:14:43.879179,194398,1499566483,878957986,0,481,362,157,66,70,53,41,159
2017/07/09/10:14:43.900187,194399,1499566483,900021076,0,496,410,159,63,76,50,44,177
2017/07/09/10:14:43.915801,194400,1499566483,915256977,0,483,374,158,64,75,49,48,189
2017/07/09/10:14:43.939479,194401,1499566483,939172983,0,477,365,140,65,80,51,51,185
2017/07/09/10:14:43.976718,194402,1499566483,976430892,0,398,350,139,66,82,48,50,184
2017/07/09/10:14:43.978144,194403,1499566483,978039026,0,379,338,179,77,88,52,51,212
2017/07/09/10:14:43.997663,194404,1499566483,997423887,0,309,233,174,80,84,51,51,203
2017/07/09/10:14:44.020231,194405,1499566484,20054101,0,271,234,163,80,83,50,61,221
2017/07/09/10:14:44.035217,194406,1499566484,35043001,0,322,226,157,73,75,47,65,238
2017/07/09/10:14:44.058001,194407,1499566484,57638883,0,361,238,158,72,74,53,67,232
2017/07/09/10:14:44.089949,194408,1499566484,89709043,0,392,237,115,63,66,48,65,212
2017/07/09/10:14:44.102654,194409,1499566484,102480888,0,422,301,136,65,76,52,67,207
2017/07/09/10:14:44.118958,194410,1499566484,118246078,0,416,304,144,63,74,52,69,192
2017/07/09/10:14:44.141760,194411,1499566484,141566038,0,469,415,165,74,75,52,62,185
2017/07/09/10:14:44.163941,194412,1499566484,163429975,0,460,444,171,74,84,53,68,195
2017/07/09/10:14:44.178142,194413,1499566484,177943944,0,516,463,173,71,84,52,68,204
2017/07/09/10:14:44.200295,194414,1499566484,200020074,0,499,431,157,67,81,45,67,203
2017/07/09/10:14:44.223420,194415,1499566484,223047971,0,506,410,164,88,96,47,60,208
2017/07/09/10:14:44.238071,194416,1499566484,237745046,0,431,337,154,78,96,57,65,205
2017/07/09/10:14:44.260415,194417,1499566484,260127067,0,431,299,135,78,99,55,65,205
2017/07/09/10:14:44.282882,194418,1499566484,282720088,0,339,277,139,80,100,59,80,222
2017/07/09/10:14:44.319367,194419,1499566484,319133996,0,408,262,131,81,98,79,80,240
2017/07/09/10:14:44.320612,194420,1499566484,320461034,0,493,283,141,64,83,79,80,227
2017/07/09/10:14:44.351909,194421,1499566484,351058959,0,508,296,147,67,87,73,87,244
2017/07/09/10:14:44.358248,194422,1499566484,357994079,0,530,277,153,63,70,74,85,247
2017/07/09/10:14:44.382378,194423,1499566484,382247924,0,559,270,148,59,65,71,75,228
2017/07/09/10:14:44.419088,194424,1499566484,418916940,0,529,288,153,72,72,52,90,349
2017/07/09/10:14:44.420564,194425,1499566484,420449972,0,484,282,135,69,72,48,89,360
2017/07/09/10:14:44.442072,194426,1499566484,441903114,0,505,257,124,71,66,76,83,355
2017/07/09/10:14:44.480027,194427,1499566484,479146003,0,500,286,123,73,81,78,90,373
2017/07/09/10:14:44.481018,194428,1499566484,480830907,0,508,307,115,75,86,82,104,390
2017/07/09/10:14:44.500398,194429,1499566484,500195026,0,517,318,112,62,79,88,95,284
2017/07/09/10:14:44.530946,194430,1499566484,530791044,0,561,342,135,66,104,101,130,310
2017/07/09/10:14:44.538210,194431,1499566484,537803888,0,568,319,143,76,109,97,137,345
2017/07/09/10:14:44.560608,194432,1499566484,560055971,0,554,300,138,83,105,108,142,344
2017/07/09/10:14:44.591101,194433,1499566484,590890884,0,533,404,219,105,103,118,138,356
2017/07/09/10:14:44.598138,194434,1499566484,597750902,0,600,491,268,128,113,118,139,385
2017/07/09/10:14:44.620272,194435,1499566484,619930982,0,529,479,265,140,101,111,112,377
2017/07/09/10:14:44.659380,194436,1499566484,659043073,0,477,471,269,145,125,100,108,380
2017/07/09/10:14:44.660650,194437,1499566484,660453081,0,480,479,283,147,126,86,94,380
2017/07/09/10:14:44.689112,194438,1499566484,688730955,0,452,408,232,137,144,94,112,387
2017/07/09/10:14:44.702967,194439,1499566484,702696084,0,384,290,182,127,142,106,123,418
2017/07/09/10:14:44.717651,194440,1499566484,717477083,0,384,316,208,131,137,112,122,414
2017/07/09/10:14:44.740629,194441,1499566484,740374088,0,422,399,265,151,115,113,127,396
2017/07/09/10:14:44.762967,194442,1499566484,762689113,0,439,393,270,160,122,123,129,440
2017/07/09/10:14:44.777769,194443,1499566484,777578115,0,506,390,277,157,111,136,115,440
2017/07/09/10:14:44.800361,194444,1499566484,800199985,0,546,397,279,155,106,124,112,388
2017/07/09/10:14:44.823008,194445,1499566484,822581052,0,559,568,269,147,110,125,118,450
2017/07/09/10:14:44.837758,194446,1499566484,837486982,0,696,535,210,123,114,126,112,466
2017/07/09/10:14:44.870110,194447,1499566484,869924068,0,699,554,203,107,98,117,120,469
2017/07/09/10:14:44.882905,194448,1499566484,882581949,0,699,558,189,115,116,96,122,499
2017/07/09/10:14:44.898113,194449,1499566484,897751092,0,684,546,185,110,115,99,114,514
2017/07/09/10:14:44.921890,194450,1499566484,921551942,0,701,354,165,128,137,103,131,493
2017/07/09/10:14:44.942951,194451,1499566484,942658901,0,577,373,160,145,149,117,138,526
2017/07/09/10:14:44.957933,194452,1499566484,957757949,0,581,430,210,145,152,115,135,531
2017/07/09/10:14:44.980367,194453,1499566484,980159997,0,540,430,231,177,155,105,130,499
2017/07/09/10:14:45.003451,194454,1499566485,2866029,0,548,462,257,190,170,105,134,507
2017/07/09/10:14:45.033542,194455,1499566485,33267974,0,540,469,260,188,155,117,132,572
2017/07/09/10:14:45.040481,194456,1499566485,40157079,0,608,505,286,177,143,105,129,588
2017/07/09/10:14:45.062887,194457,1499566485,62575101,0,594,473,249,182,150,103,139,594
2017/07/09/10:14:45.086858,194458,1499566485,86675882,0,657,471,240,148,126,102,145,613
2017/07/09/10:14:45.100501,194459,1499566485,100228071,0,657,450,205,130,109,104,142,636
2017/07/09/10:14:45.122843,194460,1499566485,122478008,0,711,443,210,111,101,102,156,602
2017/07/09/10:14:45.145787,194461,1499566485,145514011,0,667,441,226,112,105,115,170,561
2017/07/09/10:14:45.160408,194462,1499566485,160280942,0,720,416,227,108,96,120,173,523
2017/07/09/10:14:45.183307,194463,1499566485,182872056,0,675,412,230,115,101,120,176,523
2017/07/09/10:14:45.205385,194464,1499566485,205151081,0,626,415,233,114,94,121,173,490
2017/07/09/10:14:45.220260,194465,1499566485,219968080,0,550,480,239,122,96,101,142,451
2017/07/09/10:14:45.255495,194466,1499566485,254596948,0,589,462,240,128,110,83,141,507
2017/07/09/10:14:45.273495,194467,1499566485,273192882,0,533,476,234,135,123,106,168,558
2017/07/09/10:14:45.280578,194468,1499566485,280342102,0,572,469,230,162,154,137,173,610
2017/07/09/10:14:45.311674,194469,1499566485,311204910,0,597,559,262,172,158,134,174,641
2017/07/09/10:14:45.325370,194470,1499566485,325097084,0,676,671,328,185,165,143,196,658
2017/07/09/10:14:45.340213,194471,1499566485,339924097,0,696,702,318,171,152,146,211,679
2017/07/09/10:14:45.364386,194472,1499566485,364171028,0,746,742,331,166,144,139,204,730
2017/07/09/10:14:45.385504,194473,1499566485,385304927,0,765,784,343,143,114,122,228,709
2017/07/09/10:14:45.400755,194474,1499566485,400448083,0,783,725,332,142,120,121,237,701
2017/07/09/10:14:45.422882,194475,1499566485,422609090,0,843,727,285,121,135,121,267,804
2017/07/09/10:14:45.445287,194476,1499566485,445110082,0,796,704,294,139,139,134,277,764
2017/07/09/10:14:45.476501,194477,1499566485,476022005,0,813,649,285,135,135,138,302,726
2017/07/09/10:14:45.482880,194478,1499566485,482753038,0,815,633,285,142,154,134,298,778
2017/07/09/10:14:45.505259,194479,1499566485,505073070,0,859,678,287,163,156,147,324,770
2017/07/09/10:14:45.522496,194480,1499566485,522217988,0,758,554,258,159,139,142,289,663
2017/07/09/10:14:45.544262,194481,1499566485,544085979,0,789,640,284,153,134,129,278,681
2017/07/09/10:14:45.566007,194482,1499566485,565774917,0,720,654,282,155,148,117,231,640
2017/07/09/10:14:45.589411,194483,1499566485,589170932,0,666,619,267,149,140,127,224,578
2017/07/09/10:14:45.603003,194484,1499566485,602798938,0,645,616,262,125,132,125,203,727
2017/07/09/10:14:45.625429,194485,1499566485,625119924,0,728,595,267,124,137,134,246,819
2017/07/09/10:14:45.641597,194486,1499566485,641450881,0,713,467,201,114,134,132,235,825
2017/07/09/10:14:45.662742,194487,1499566485,662555932,0,783,534,232,112,128,136,252,885
2017/07/09/10:14:45.693560,194488,1499566485,693240880,0,894,608,256,98,108,144,288,929
2017/07/09/10:14:45.700321,194489,1499566485,700170040,0,845,556,246,91,117,141,272,845
2017/07/09/10:14:45.723108,194490,1499566485,722665071,0,762,556,240,102,121,147,241,797
2017/07/09/10:14:45.753789,194491,1499566485,753400087,0,793,595,238,108,121,154,253,792
2017/07/09/10:14:45.768088,194492,1499566485,767796039,0,703,525,196,108,121,155,247,788
2017/07/09/10:14:45.782809,194493,1499566485,782531023,0,535,455,162,122,134,134,190,713
2017/07/09/10:14:45.805207,194494,1499566485,805052042,0,662,479,170,143,140,147,243,729
2017/07/09/10:14:45.820594,194495,1499566485,820317029,0,779,498,209,140,127,127,238,735
2017/07/09/10:14:45.842703,194496,1499566485,842417001,0,787,498,231,142,129,121,231,753
2017/07/09/10:14:45.865398,194497,1499566485,865245103,0,888,536,252,148,124,116,235,755
2017/07/09/10:14:45.880359,194498,1499566485,880219936,0,915,525,257,140,113,114,231,755
2017/07/09/10:14:45.902767,194499,1499566485,902554988,0,861,586,265,118,105,96,223,751
2017/07/09/10:14:45.925493,194500,1499566485,925117015,0,768,561,253,115,108,100,235,686
2017/07/09/10:14:45.940440,194501,1499566485,940160036,0,706,545,247,119,106,98,233,619
2017/07/09/10:14:45.962951,194502,1499566485,962734937,0,643,519,233,114,109,95,219,505
2017/07/09/10:14:45.985786,194503,1499566485,985579013,0,652,554,236,111,121,121,233,513
2017/07/09/10:14:46.007641,194504,1499566486,7460117,0,600,490,232,112,108,113,193,477
2017/07/09/10:14:46.031890,194505,1499566486,31712055,0,568,485,216,115,106,110,176,519
2017/07/09/10:14:46.046732,194506,1499566486,46581029,0,620,537,223,109,112,111,156,510
2017/07/09/10:14:46.076818,194507,1499566486,76106071,0,578,526,241,109,108,109,173,552
2017/07/09/10:14:46.083444,194508,1499566486,82914113,0,618,480,233,106,94,80,167,599
2017/07/09/10:14:46.105588,194509,1499566486,105223894,0,668,512,238,108,88,77,158,619
2017/07/09/10:14:46.137417,194510,1499566486,137111902,0,709,551,242,106,85,76,168,616
2017/07/09/10:14:46.144085,194511,1499566486,143959045,0,646,453,213,102,78,80,180,646
2017/07/09/10:14:46.165378,194512,1499566486,165031909,0,640,564,258,103,71,84,183,630
2017/07/09/10:14:46.196040,194513,1499566486,195915937,0,551,574,258,102,70,86,190,583
2017/07/09/10:14:46.202933,194514,1499566486,202721118,0,595,530,244,100,70,107,196,531
2017/07/09/10:14:46.225754,194515,1499566486,225275993,0,572,489,242,95,75,116,212,620
2017/07/09/10:14:46.247838,194516,1499566486,247612953,0,576,549,272,102,79,117,215,640
2017/07/09/10:14:46.262725,194517,1499566486,262541055,0,594,469,217,90,73,114,197,656
2017/07/09/10:14:46.285300,194518,1499566486,285128116,0,586,460,208,97,70,114,186,689
2017/07/09/10:14:46.308196,194519,1499566486,307823896,0,494,509,242,92,69,96,185,708
2017/07/09/10:14:46.323207,194520,1499566486,322916030,0,463,554,243,97,76,85,150,609
2017/07/09/10:14:46.345414,194521,1499566486,345258951,0,448,493,212,100,77,77,133,631
2017/07/09/10:14:46.367734,194522,1499566486,367491960,0,469,464,204,102,85,72,134,661
2017/07/09/10:14:46.382812,194523,1499566486,382493019,0,469,476,202,99,97,68,128,605
2017/07/09/10:14:46.405280,194524,1499566486,405085086,0,463,417,161,101,98,68,123,613
2017/07/09/10:14:46.427989,194525,1499566486,427720069,0,550,347,168,104,99,92,173,642
2017/07/09/10:14:46.442929,194526,1499566486,442661046,0,554,408,169,101,106,90,174,595
2017/07/09/10:14:46.474968,194527,1499566486,474704027,0,487,406,166,102,101,92,173,598
2017/07/09/10:14:46.487955,194528,1499566486,487742900,0,547,387,172,96,90,102,184,635
2017/07/09/10:14:46.503305,194529,1499566486,503070116,0,545,423,175,97,95,99,181,601
2017/07/09/10:14:46.525307,194530,1499566486,524993896,0,496,481,182,101,88,87,152,580
2017/07/09/10:14:46.548476,194531,1499566486,548010110,0,576,437,173,98,80,84,144,548
2017/07/09/10:14:46.562626,194532,1499566486,562496900,0,578,416,164,98,81,81,148,526
2017/07/09/10:14:46.601470,194533,1499566486,601152896,0,580,475,201,103,91,77,166,609
2017/07/09/10:14:46.607947,194534,1499566486,607711076,0,622,443,204,101,89,75,168,621
2017/07/09/10:14:46.630475,194535,1499566486,630290031,0,587,356,180,91,81,72,151,591
2017/07/09/10:14:46.645571,194536,1499566486,645299911,0,497,330,179,84,81,76,159,601
2017/07/09/10:14:46.667804,194537,1499566486,667478084,0,559,376,192,83,80,77,160,613
2017/07/09/10:14:46.698906,194538,1499566486,698594093,0,517,312,168,88,69,70,129,513
2017/07/09/10:14:46.713600,194539,1499566486,713439941,0,442,291,151,85,66,74,122,484
2017/07/09/10:14:46.727714,194540,1499566486,727503061,0,436,291,151,84,80,69,123,481
2017/07/09/10:14:46.742742,194541,1499566486,742613077,0,431,307,151,87,76,71,131,514
2017/07/09/10:14:46.765300,194542,1499566486,765027999,0,463,258,162,86,75,71,133,538
2017/07/09/10:14:46.787860,194543,1499566486,787600040,0,458,229,151,83,73,68,125,505
2017/07/09/10:14:46.803308,194544,1499566486,802916049,0,500,237,144,78,70,64,120,509
