time,.header.seq,.header.stamp.secs,.header.stamp.nsecs,.header.frame_id,.pose.position.x,.pose.position.y,.pose.position.z,.pose.orientation.x,.pose.orientation.y,.pose.orientation.z,.pose.orientation.w,.twist.linear.x,.twist.linear.y,.twist.linear.z,.twist.angular.x,.twist.angular.y,.twist.angular.z,.wrench.force.x,.wrench.force.y,.wrench.force.z,.wrench.torque.x,.wrench.torque.y,.wrench.torque.z
2017/07/09/10:20:09.082510,519375,1499566811,889250624,,0.781276692783,0.397966731516,0.165951486372,0.622920351806,0.779771239553,0.0543927397613,0.0311203973945,-0.0099953737942,0.0166057417404,0.00134282991567,-0.00706627117806,0.0101959837248,0.034742011469,7.52234601974,2.41507792473,-2.37029004097,-0.92837780714,2.73203659058,-0.110988199711
2017/07/09/10:20:09.092351,519376,1499566811,899256616,,0.781082434524,0.397358670615,0.165483463291,0.623128194486,0.779644546201,0.054080494452,0.0306746627634,-0.000679299099669,-0.00622357988349,-0.00202196665578,0.00368487583892,0.0111596649367,-0.0177056817558,7.43263196945,2.52406811714,-2.38913345337,-0.953110039234,2.67921280861,-0.139549762011
2017/07/09/10:20:09.102499,519377,1499566811,909252729,,0.781681447389,0.396930872928,0.165732617813,0.623704964699,0.779145309127,0.0543654771151,0.0311303577493,-0.00666446158378,0.0021599689585,-0.00540076612334,-0.00977704208853,0.0190621429585,0.0177497487229,7.53864765167,2.62362933159,-2.3969976902,-1.03848290443,2.71610498428,-0.150412783027
2017/07/09/10:20:09.112534,519378,1499566811,919254995,,0.780821696863,0.39698277428,0.16521149873,0.62323787748,0.779580350765,0.0536288533068,0.0308702262424,0.0129191402578,-0.00662739033695,0.00306983378685,0.00942729057232,-0.025376554702,-0.0166224576501,7.33940219879,2.2861096859,-2.23651361465,-0.844466269016,2.67345237732,-0.0877885818481
2017/07/09/10:20:09.122504,519379,1499566811,929250241,,0.78125484307,0.396495694646,0.16538432353,0.623552091574,0.779298920328,0.0539266866104,0.0311110003281,0.00531836864222,-0.013613042793,-0.0140860229972,-0.01257678925,0.000141151915092,-0.0147804647452,7.18685531616,2.39118409157,-2.14442586899,-0.877307832241,2.63215470314,-0.0972297042608
2017/07/09/10:20:09.133744,519380,1499566811,939280907,,0.780975034283,0.396815733654,0.1651423133,0.623443659888,0.77943029689,0.0534409000728,0.0308299437976,-0.00905876656547,-0.0366030916431,-0.0180813072631,-0.029699985618,0.0371024184593,-0.0429996663455,7.26884746552,2.51867651939,-2.16601681709,-0.916946828365,2.62180995941,-0.0823943167925
2017/07/09/10:20:09.142786,519381,1499566811,949260697,,0.781589128253,0.396386328477,0.165543174483,0.623653517984,0.779204956147,0.054105832678,0.0311204867011,-0.0016981215084,-0.00954413740577,-0.00335901193391,-0.0162648813761,0.0146932222615,-0.00530116522425,7.40751552582,2.57663917542,-2.03115582466,-0.853220164776,2.70672869682,-0.0766148418188
2017/07/09/10:20:09.152325,519382,1499566811,959272706,,0.781533438993,0.395568782065,0.165203099966,0.62411803688,0.778870857252,0.0534605499425,0.0312863127498,0.00966460716303,-0.0316397622204,-0.0070569032108,-0.0228606236365,0.00291690513661,-0.0446328220517,6.22407770157,2.18722248077,-2.05617046356,-0.62577688694,2.21943116188,-0.0283684208989
2017/07/09/10:20:09.162604,519383,1499566811,969266133,,0.781474732556,0.395884473197,0.165599516688,0.623528668237,0.779341783675,0.0533881268649,0.031433930934,-0.0222616191099,-0.0221546081065,-0.0235505327751,-0.0335633546603,0.0619582805066,-0.00245798050517,6.2389292717,2.48673272133,-1.96856844425,-0.669353663921,2.23579335213,-0.0264577791095
2017/07/09/10:20:09.172260,519384,1499566811,979271226,,0.781185464101,0.395717797553,0.16514579468,0.623891780969,0.779071469003,0.053412763091,0.0308831436816,0.0024283031544,-0.029127370416,-0.00691670256457,-0.0492937957206,0.00314100895355,-0.00573027575268,6.65776920319,2.44909453392,-1.89837658405,-0.610207796097,2.38777494431,-0.0265256911516
2017/07/09/10:20:09.182225,519385,1499566811,989263784,,0.78126244894,0.395073291309,0.16492161916,0.624245885235,0.778813223417,0.052924047089,0.0310818763673,0.0102161463437,-0.0767139644791,-0.0147556556891,-0.0613417660339,0.0110497776796,-0.0667454872001,6.42510080338,2.46234083176,-1.71961414814,-0.561681687832,2.32065272331,0.00481714308262
2017/07/09/10:20:09.192568,519386,1499566811,999269471,,0.781474285766,0.394427797047,0.165091365506,0.624279398526,0.778780075489,0.0527432684297,0.0315432121464,-0.0113877722568,-0.0631295165907,-0.0303865105492,-0.0430628776079,0.0595281004689,-0.0794988836449,6.28564548492,2.38688874245,-1.64088881016,-0.58520758152,2.2458088398,-0.0223105847836
2017/07/09/10:20:09.202472,519387,1499566812,9270207,,0.781953086487,0.393824160407,0.165376357541,0.624897735477,0.778238953386,0.0532630465451,0.0317804893244,0.00538546000538,-0.0576892960536,-0.0134471283071,-0.0474617948852,0.0127566799737,-0.0421581220731,6.22764492035,2.29158186913,-1.56061220169,-0.508641421795,2.25975489616,0.0208795070648
2017/07/09/10:20:09.212166,519388,1499566812,19285113,,0.781255633909,0.393114277782,0.164095066311,0.624947821374,0.778309680614,0.0519700821865,0.0311989131199,0.0182378841772,-0.0534039183169,-0.00022571563765,-0.00442183271535,-0.0141836570031,-0.0863394503234,6.31745004654,2.48638105392,-1.52588427067,-0.537602424622,2.31526517868,0.0299296826124
2017/07/09/10:20:09.222111,519389,1499566812,29262950,,0.781739116063,0.392951959239,0.164187913594,0.625404109065,0.777894724376,0.0525418667319,0.0314459916659,0.0160631740273,-0.0654522974791,-0.0164034649884,-0.00969201301835,0.00674961049914,-0.115041692604,6.25540208817,2.34765410423,-1.70952224731,-0.543396174908,2.25905132294,0.0210986062884
2017/07/09/10:20:09.232484,519390,1499566812,39268667,,0.782106335828,0.391588010781,0.16449598517,0.625810856222,0.777560637215,0.0524278152378,0.0318049033537,0.0163743461916,-0.0793940328999,-0.0156128080086,-0.0253342698484,0.0121585580012,-0.129777784276,6.44543075562,2.38934230804,-1.83680772781,-0.542389154434,2.30871534348,0.0150404646993
2017/07/09/10:20:09.242202,519391,1499566812,49265321,,0.781679949557,0.391146349136,0.163500723498,0.626205370382,0.777312194713,0.0519132512231,0.0309451192093,0.00905566343961,-0.0726408782631,-0.013438021509,-0.029929170938,0.0127588786161,-0.0789632293267,6.31934213638,2.37346053123,-1.94562768936,-0.511093616486,2.26316785812,0.0397894531488
2017/07/09/10:20:09.252289,519392,1499566812,59271105,,0.781770984297,0.390402000311,0.16382767445,0.626694257359,0.776922257627,0.051851885371,0.0309434222546,0.00978485292025,-0.0750846144399,-0.0107700907977,0.00653967088395,0.0231856088459,-0.116974568226,6.7676782608,2.59197759628,-1.9935106039,-0.615097641945,2.42744398117,0.0218065083027
2017/07/09/10:20:09.262512,519393,1499566812,69267147,,0.782319574115,0.388915588782,0.163656481155,0.627393569069,0.776335268653,0.0517810807017,0.0316161322407,0.00829132502816,-0.102974278935,-0.0221056536696,-0.0126419291201,0.0403778124135,-0.143463870775,6.85793161392,2.63725805283,-1.92255878448,-0.626659929752,2.46910190582,0.0136211887002
2017/07/09/10:20:09.272181,519394,1499566812,79262749,,0.781860827083,0.387785292396,0.16334217867,0.627980695299,0.775933858091,0.0509215611749,0.0312071916048,0.0148683106796,-0.118458292884,-0.0116553433663,-0.0321404553023,0.0165564843414,-0.156640422774,5.49835634232,2.1820499897,-1.66658604145,-0.497331440449,1.9172437191,0.00109179317951
2017/07/09/10:20:09.282371,519395,1499566812,89264372,,0.782485938146,0.387200802164,0.163681449993,0.628173661736,0.775715517231,0.0516693813062,0.0315208195166,0.0112756087512,-0.104926016692,-0.016925645205,-0.0199480784817,0.0314572455741,-0.133294212222,5.37466526031,2.21883010864,-1.45024418831,-0.598084330559,1.88959670067,-0.014450930059
2017/07/09/10:20:09.292397,519396,1499566812,99269843,,0.782247748279,0.385319837836,0.162780653917,0.6292517019,0.774907181114,0.050853947955,0.0312255070602,0.000772627224353,-0.105116003113,-0.027114318878,-0.00984921110251,0.0523133611308,-0.133253658192,3.65101623535,1.90057861805,-0.918733119965,-0.655437648296,1.19834375381,-0.0943063423038
2017/07/09/10:20:09.302309,519397,1499566812,109269926,,0.782298662708,0.383736913674,0.163256527551,0.629700744926,0.774552159619,0.0504091358458,0.0316992569783,0.0246893679546,-0.137860969289,-0.00758751800272,-0.0247500957651,-0.00864913510788,-0.205370676742,3.67551922798,1.74821650982,-0.676801085472,-0.690610468388,1.20793247223,-0.141164332628
2017/07/09/10:20:09.312768,519398,1499566812,119271075,,0.783002947735,0.382516150496,0.163134985374,0.630824503348,0.773614975826,0.0507040199523,0.031771331625,0.0220942134869,-0.14947557691,-0.00619506148973,-0.0407380220881,0.00311841609685,-0.208497116844,4.67604398727,2.14001321793,-0.788982748985,-0.920965909958,1.54978227615,-0.221070557833
2017/07/09/10:20:09.322411,519399,1499566812,129268183,,0.782983215726,0.381443948141,0.162911916104,0.631336980251,0.773217481709,0.0503574761496,0.0318193014236,0.0230321512067,-0.153709797662,-0.00968830781323,-0.0627451989511,0.00669558182099,-0.188807661501,5.5321726799,2.2043261528,-1.09731709957,-0.860434055328,1.86113619804,-0.125269412994
2017/07/09/10:20:09.332373,519400,1499566812,139268990,,0.783472132594,0.378664279976,0.162733608996,0.632532820305,0.772255620412,0.0495671439231,0.0326586316697,0.0187692234527,-0.19263256201,-0.0144391621862,-0.0778281973622,0.0286925200262,-0.259107584738,5.61369752884,2.33957457542,-1.23331546783,-0.840044379234,1.89375448227,-0.133159294724
2017/07/09/10:20:09.342650,519401,1499566812,149263995,,0.783467582575,0.377955707537,0.162829566351,0.632694824316,0.772123248975,0.0496018109526,0.0325976690256,0.0110078964493,-0.187345351204,-0.019103474301,-0.0999623629365,0.0421389749437,-0.221049360991,5.07511568069,1.93683421612,-1.3023327589,-0.617232382298,1.65185880661,-0.0891506224871
2017/07/09/10:20:09.352552,519402,1499566812,159262145,,0.783523518528,0.375048157802,0.162449120717,0.63415675333,0.770974358892,0.0489435067764,0.0323772031092,0.0226084219966,-0.173882483595,-0.00259493054658,-0.0837943085331,0.00522845564411,-0.208042485313,4.77590894699,1.70263087749,-1.28661262989,-0.435096502304,1.5657171011,-0.0650967508554
2017/07/09/10:20:09.362579,519403,1499566812,169284478,,0.784169402717,0.373301947155,0.163023050877,0.635087299178,0.770172182279,0.0490048960177,0.0331278166051,0.034740026661,-0.188050508433,0.00266256445685,-0.0709868019145,-0.022947428527,-0.215764210977,5.65798807144,2.01442074776,-1.35928189754,-0.578074038029,1.90674686432,-0.0901627764106
2017/07/09/10:20:09.372458,519404,1499566812,179266921,,0.784521256715,0.371783083632,0.162499929928,0.63606805434,0.76936614594,0.0488949861236,0.0332030730742,0.0416850667812,-0.183587999942,0.0123498237724,-0.045465547073,-0.0428283143951,-0.237030185375,5.86445665359,2.10094499588,-1.42131841183,-0.707554221153,1.95624768734,-0.111112654209
2017/07/09/10:20:09.382394,519405,1499566812,189269309,,0.785023786189,0.369190378824,0.163081029897,0.636765657132,0.768773254331,0.0485401452909,0.0340739727155,0.0366680525211,-0.217917572609,-0.00107335079013,-0.0486726713194,-0.00611171777622,-0.326435029496,6.2737121582,1.95981192589,-1.62843632698,-0.684420406818,2.12036943436,-0.13475625217
2017/07/09/10:20:09.392394,519406,1499566812,199264012,,0.785103369529,0.367171620694,0.162827540674,0.638028255843,0.767748415201,0.0481904689346,0.0340586906156,0.0333625805375,-0.240427744243,-0.00113711665637,-0.0875914088189,-0.00806804168099,-0.310220360703,6.72719240189,2.10809779167,-1.71373474598,-0.785293877125,2.26887774467,-0.169438838959
2017/07/09/10:20:09.402206,519407,1499566812,209278580,,0.785246152391,0.364665417613,0.162938162093,0.639416025733,0.766616450572,0.0476736569904,0.0342576440614,0.0397833941816,-0.237627697183,0.00298514770196,-0.0740121644725,-0.0191701785943,-0.30230567639,6.70504331589,1.87976551056,-2.00170969963,-0.63250631094,2.22900414467,-0.14087831974
2017/07/09/10:20:09.412436,519408,1499566812,219269871,,0.786276324726,0.362204419387,0.163178412403,0.640925403625,0.765303975647,0.047872440531,0.03510956116,0.0258368976945,-0.232991846672,-0.00279432038902,-0.0701587610867,0.00541134200032,-0.314619996854,6.72846269608,2.01749849319,-2.04245233536,-0.677102804184,2.21532654762,-0.128054484725
2017/07/09/10:20:09.422506,519409,1499566812,229273790,,0.786381190853,0.360165199965,0.162961725062,0.641679574447,0.764690893456,0.0473947857315,0.0353397154469,0.045243234403,-0.260254402782,0.00946849666697,-0.0664148004741,-0.0243420251579,-0.364780287976,6.95453071594,2.19579529762,-2.19685602188,-0.743242204189,2.29118919373,-0.131626784801
2017/07/09/10:20:09.432302,519410,1499566812,239261703,,0.786443333123,0.357139963217,0.162695629862,0.643189759695,0.763457641504,0.0467574552309,0.035399195379,0.0358974663687,-0.253190838301,0.00986351731178,-0.0725862908507,-0.0150581006126,-0.343739691579,6.96855354309,2.05302238464,-2.30076432228,-0.701510608196,2.28873443604,-0.126402184367
2017/07/09/10:20:09.442263,519411,1499566812,249268046,,0.786839818587,0.35546610094,0.163192198936,0.644193661792,0.762582367995,0.0469449235321,0.0357607646021,0.0253327019206,-0.243368631346,-0.00294892666902,-0.0661138436644,0.00978250042858,-0.316057071596,7.09768867493,1.2588429451,-2.43446612358,-0.171920657158,2.33857154846,0.033092841506
2017/07/09/10:20:09.452384,519412,1499566812,259263804,,0.787177795933,0.353083082737,0.163334134757,0.645729015266,0.761283111721,0.0469879146613,0.0356959175182,0.0310004077031,-0.25915515073,0.00130972303025,-0.0310038469376,0.00323150906012,-0.351690410608,6.64849710464,0.205313205719,-2.4365427494,0.244033485651,2.1587831974,0.0884427726269
2017/07/09/10:20:09.462437,519413,1499566812,269268567,,0.787291993861,0.350487550231,0.163119666927,0.646862830969,0.760339716229,0.0466927305601,0.0356620631649,0.0259490402291,-0.259800361421,0.00914195846595,-0.0220812769366,0.00608138767929,-0.378249226294,6.5572977066,0.118029631674,-2.43307495117,0.232125774026,2.10411930084,0.0853999629617
2017/07/09/10:20:09.472439,519414,1499566812,279270479,,0.78762847005,0.347739661096,0.163093274906,0.64829037919,0.759125024091,0.0465400265381,0.0358163088462,0.0328237196449,-0.257090651185,0.00363638334678,-0.00179467191464,-0.00453070665649,-0.368256955126,6.51399803162,0.264475494623,-2.2816324234,0.100109122694,2.06422829628,0.0103205256164
2017/07/09/10:20:09.482385,519415,1499566812,289265868,,0.787794142018,0.346085890676,0.16299910517,0.649308961966,0.758250849898,0.046606320959,0.0357962482008,0.0380185740514,-0.249166140591,0.00658036448674,0.0015993499422,-0.0180244452979,-0.352110084994,6.03850841522,0.852357745171,-2.15916013718,-0.207824647427,1.85959398746,-0.0354275554419
2017/07/09/10:20:09.492341,519416,1499566812,299268547,,0.788324920647,0.343439957468,0.16366259345,0.650902418844,0.756863400828,0.0465861886182,0.0362430774235,0.0159670443264,-0.246264103903,0.000264447013357,-0.0170632096553,0.0274402541084,-0.373309540546,6.0825381279,1.36298120022,-2.15266776085,-0.41649132967,1.8271099329,-0.0638074278831
2017/07/09/10:20:09.502359,519417,1499566812,309262714,,0.788227715552,0.340775442207,0.163256037344,0.652303817575,0.755698588959,0.0460184385364,0.036078740804,0.0166774014185,-0.247922165457,0.0085994927428,-0.0178249090694,0.0265801042394,-0.382080979688,5.88003396988,1.67283511162,-2.41540718079,-0.593957722187,1.69166409969,-0.125035971403
2017/07/09/10:20:09.512417,519418,1499566812,319269352,,0.788811983591,0.33746461109,0.163483476151,0.654321213003,0.753942649422,0.0459120713148,0.0364185846074,0.0264395336165,-0.278900351989,0.002555858465,-0.00993873417172,0.0141321234871,-0.434390256321,5.8751707077,1.69965946674,-2.52706575394,-0.562929153442,1.67387139797,-0.0995418503881
2017/07/09/10:20:09.522276,519419,1499566812,329286556,,0.788952090333,0.334538374242,0.163440190992,0.65607844172,0.752431519135,0.0457094769741,0.0363115826713,0.0268305651391,-0.303352586422,-0.00192143846164,-0.0448584833109,0.011342709874,-0.449582964635,5.93912172318,1.49315094948,-2.53147506714,-0.478160172701,1.71893656254,-0.114816308022
2017/07/09/10:20:09.532553,519420,1499566812,339261916,,0.788892259381,0.332196068857,0.163722589822,0.657173709349,0.751481587815,0.0454921255053,0.0364500402156,0.0177822974288,-0.292722242364,0.00610355620959,-0.0217658404242,0.0250052112789,-0.439864039298,5.33533763885,0.890141546726,-2.55865478516,-0.162940859795,1.46798253059,-0.0181852504611
2017/07/09/10:20:09.542288,519421,1499566812,349270142,,0.789280279782,0.32919837145,0.163568967822,0.658874203334,0.749995152706,0.0452867252732,0.0366219553442,0.0186870419178,-0.281602504276,0.00534019291564,-0.0118231045289,0.0193854456513,-0.404507511922,6.02127838135,1.06667935848,-2.46570801735,-0.186127305031,1.79028689861,-0.0217372048646
2017/07/09/10:20:09.552312,519422,1499566812,359276459,,0.789263913317,0.326335855416,0.163578273065,0.660354791128,0.748718583516,0.0449994046834,0.0364291931011,0.00973168798712,-0.284558100946,-0.000681404861503,0.0117678423917,0.0362351113679,-0.431816606012,6.03071451187,0.882775068283,-2.53621792793,-0.115817159414,1.76777565479,0.0107296220958
2017/07/09/10:20:09.562554,519423,1499566812,369261989,,0.789076144994,0.323655273494,0.163206969322,0.662002804886,0.747302890517,0.0447314621751,0.0359134019398,0.00415842281972,-0.299059748418,0.000491675186209,0.0241025297669,0.0586678170079,-0.455251566293,5.84011411667,0.866499841213,-2.53797054291,-0.17226549983,1.66343438625,-0.0421048440039
2017/07/09/10:20:09.572366,519424,1499566812,379262409,,0.788469556952,0.321107562649,0.162791548345,0.663073688209,0.746429696563,0.04373734558,0.0355392275446,-0.00236788411024,-0.288376964176,0.00127417099504,-0.00400935911713,0.0599697919473,-0.410433296595,6.01722288132,0.921030580997,-2.54779529572,-0.135832309723,1.74662148952,-0.00826495885849
2017/07/09/10:20:09.582637,519425,1499566812,389269604,,0.789253514719,0.317734340727,0.16348503288,0.665133507347,0.744552010948,0.0440569530915,0.0360375537622,0.00740631151342,-0.316936006478,0.0142166006998,-0.0298535383138,0.0396110203567,-0.42845202728,6.01595211029,1.07130730152,-2.54631543159,-0.314419060946,1.75359106064,-0.062801271677
2017/07/09/10:20:09.592313,519426,1499566812,399269920,,0.789162629404,0.315175825291,0.16345939404,0.666575012797,0.743290524709,0.0436972549205,0.035881723817,-0.00031450352394,-0.319796704122,0.00963192464972,-0.0250945315482,0.0510861678536,-0.42408656543,5.19926786423,0.792235970497,-2.38278198242,-0.113285288215,1.49790465832,-0.0192886386067
2017/07/09/10:20:09.602186,519427,1499566812,409270236,,0.789336585443,0.311120363219,0.16345590633,0.668246356782,0.741801479741,0.043329806166,0.0360541148742,0.00930464259858,-0.340313825899,0.0205870459455,-0.0365887869616,0.0325881074933,-0.464366401481,5.15205430984,0.673325538635,-2.29577183723,-0.0638332292438,1.54285204411,-0.00549060991034
2017/07/09/10:20:09.612399,519428,1499566812,419269589,,0.789291299912,0.307219514821,0.164136871145,0.669908523626,0.740315651028,0.0428302944495,0.0363438123008,-0.00265420455175,-0.347751029668,0.0152479392966,-0.0361683910643,0.0595858389305,-0.448961158434,4.47591924667,-0.220273569226,-2.02493906021,0.0869644135237,1.3130095005,-0.0299518890679
2017/07/09/10:20:09.622134,519429,1499566812,429264243,,0.788948457406,0.30485196319,0.164357274359,0.671375543305,0.739026743624,0.0423730032343,0.0360399869144,-0.0179775745648,-0.346627893285,0.00475465473664,-0.0451488311007,0.0899485362841,-0.431313906823,4.79575157166,0.204761207104,-2.03436255455,0.00593226589262,1.45720684528,-0.0266349781305
2017/07/09/10:20:09.632458,519430,1499566812,439269254,,0.78860400099,0.301200125695,0.164039480865,0.673166166139,0.737456005346,0.0418357836579,0.0354361418661,-0.0232382955092,-0.34918021805,0.0119106318999,-0.0375692445812,0.08895365942,-0.4694502177,4.56457853317,0.144142568111,-1.93356394768,-0.0704979002476,1.38558459282,-0.0499739050865
2017/07/09/10:20:09.642229,519431,1499566812,449268076,,0.788812742139,0.297475119545,0.164787815359,0.674928946196,0.735826002857,0.0416410359668,0.036014375312,-0.0159787802468,-0.361436522409,0.0202299594972,-0.0313061365321,0.0746653371159,-0.48989056061,4.34349250793,0.170272171497,-1.71945488453,-0.122524350882,1.30585741997,-0.0601037442684
2017/07/09/10:20:09.652412,519432,1499566812,459270200,,0.78911201371,0.294476918187,0.165410483422,0.676514550664,0.734359620554,0.041864399573,0.0359358106669,-0.0275839061165,-0.375024572629,0.0237730299791,-0.0468846927555,0.101716265171,-0.488983268929,3.62624907494,0.156034395099,-1.92953979969,-0.0485647544265,0.973271846771,-0.0453299582005
2017/07/09/10:20:09.662579,519433,1499566812,469262411,,0.788526510062,0.290059145795,0.165403984823,0.678756063244,0.732359010835,0.0405722439911,0.0359774773422,-0.0201834652193,-0.369200603202,0.0253103784833,-0.0276091561699,0.0846256991485,-0.498684849337,3.88126516342,0.0311982408166,-2.0065844059,-0.108839355409,1.11348366737,-0.0877473801374
2017/07/09/10:20:09.672316,519434,1499566812,479296735,,0.788338603494,0.287333410506,0.165448452176,0.679991221533,0.731236610053,0.040481026932,0.0355843394642,-0.018563307395,-0.35663653481,0.027909093922,-0.0257928438544,0.0725896861402,-0.472702448939,3.65119075775,0.0914859622717,-2.00893378258,-0.1547601372,1.05630946159,-0.0925708860159
2017/07/09/10:20:09.682207,519435,1499566812,489262378,,0.788256748065,0.283730443299,0.166035854889,0.681660333301,0.729694818836,0.0400318691074,0.035806575147,-0.018436758373,-0.337437631922,0.037567577794,-0.0195934507094,0.0601052421737,-0.447623556153,3.15296554565,-0.149571508169,-2.12222743034,0.0158604346216,0.901902616024,-0.0351392552257
2017/07/09/10:20:09.692409,519436,1499566812,499264774,,0.787577804299,0.280185138823,0.165832530419,0.683529460173,0.728014189037,0.0393145198921,0.0351736572064,-0.0330084605565,-0.371928949317,0.0249985006069,-0.028695743301,0.0939033978257,-0.504172632911,2.87159752846,-0.260502994061,-2.17424559593,0.0258329771459,0.847374677658,-0.049706146121
2017/07/09/10:20:09.702396,519437,1499566812,509303722,,0.787450811504,0.27702692402,0.166081219316,0.68513276951,0.726533123352,0.0389220301167,0.0350397543963,-0.0288201121725,-0.403279220672,0.0235392380252,-0.0437576257334,0.0866504174018,-0.536652271632,2.85297679901,-0.120755426586,-2.22877788544,-0.00209471955895,0.866837918758,-0.0705778002739
2017/07/09/10:20:09.712449,519438,1499566812,519266643,,0.786903342192,0.271853306139,0.165758891208,0.687744052237,0.724130083093,0.0379078336327,0.0347381277749,-0.0280040105685,-0.400453361183,0.0308437657946,-0.0398890676367,0.0785021024716,-0.535810388551,2.12218999863,-0.671255469322,-2.50561714172,0.169372439384,0.624573767185,-0.024489203468
2017/07/09/10:20:09.722261,519439,1499566812,529262786,,0.786375589231,0.267566780987,0.166486399843,0.689639606558,0.722355051113,0.0372288123151,0.0348483676935,-0.0274850983412,-0.428791399336,0.0312559842968,-0.0262089377148,0.0762481847577,-0.575545502947,0.922021210194,-0.50220477581,-2.42161154747,0.101594440639,0.209980130196,-0.0646315068007
2017/07/09/10:20:09.732464,519440,1499566812,539264409,,0.786679184174,0.264790163358,0.167320764843,0.690794942565,0.721218975242,0.0374123804839,0.0352966126433,-0.0368870929928,-0.397151307652,0.0308875019919,-0.0454581042813,0.083625679829,-0.50606766282,1.02121257782,-0.00170776247978,-1.81840133667,-0.177912175655,0.290493369102,-0.174361228943
2017/07/09/10:20:09.742436,519441,1499566812,549289873,,0.78645964442,0.261047535423,0.167477261657,0.692722734331,0.719386043616,0.0370573549693,0.0352942776537,-0.0321097876979,-0.377148820622,0.0284337318605,-0.0500641869324,0.0621837077922,-0.481585202873,1.41032910347,1.38776922226,-1.61296188831,-0.946712732315,0.458669394255,-0.353289961815
2017/07/09/10:20:09.752458,519442,1499566812,559267151,,0.786185825493,0.257549599871,0.167459043171,0.694211575925,0.717974842938,0.0365605715584,0.0352950048526,-0.023097043205,-0.382072449344,0.041154165512,-0.0499140451244,0.0398374870343,-0.490502378836,0.671578526497,1.86277580261,-1.7585862875,-1.14701700211,0.197670638561,-0.399091511965
2017/07/09/10:20:09.762362,519443,1499566812,569265963,,0.786073724986,0.253595129285,0.16802971152,0.696134212483,0.716113101622,0.0362706963751,0.035547439852,-0.0305231233646,-0.409469891208,0.0344824988777,-0.0698751625392,0.0536366397739,-0.497583204655,0.996763646603,1.60678505898,-1.99608695507,-0.935157239437,0.285315901041,-0.334974765778
2017/07/09/10:20:09.772560,519444,1499566812,579274212,,0.785775110939,0.249494565238,0.168485361639,0.697880598971,0.714423621771,0.0358097336141,0.0357662021265,-0.00233232195308,-0.422536933379,0.0540398454915,-0.0750788877323,-0.0232297638089,-0.546614454479,-0.369067728519,0.973988652229,-2.34903073311,-0.499897181988,-0.206794843078,-0.233600094914
2017/07/09/10:20:09.782307,519445,1499566812,589264586,,0.786303936342,0.245001053817,0.169357935109,0.699573428417,0.712712908759,0.0357472350421,0.0368708981164,-0.0201318310269,-0.411641832424,0.0349743997829,-0.0662507603395,0.0165173715987,-0.535517530114,-1.49358940125,0.235083848238,-2.27457952499,0.0133345872164,-0.692836761475,-0.102576553822
2017/07/09/10:20:09.792262,519446,1499566812,599262862,,0.785305160683,0.242193864053,0.169078938416,0.701218033844,0.711156785586,0.0352177442985,0.0361801853764,-0.00461734797314,-0.379458749955,0.0594829577514,-0.0726865585598,-0.03063119324,-0.473249657677,-2.985891819,-0.0440100431442,-2.37309098244,0.11581774056,-1.24174463749,-0.106658227742
2017/07/09/10:20:09.802406,519447,1499566812,609275583,,0.785195428521,0.237808007538,0.169895783586,0.703073932278,0.709309049045,0.0348912797942,0.0367466636401,-0.0294512427955,-0.406241658135,0.0455009925897,-0.0532544646203,0.0086755133845,-0.529900039447,-3.27185988426,-0.087618380785,-1.91683852673,0.017895385623,-1.42750906944,-0.129639089108
2017/07/09/10:20:09.812511,519448,1499566812,619270750,,0.784724082761,0.233696898687,0.169710618447,0.705073224028,0.707349723816,0.0344163072604,0.036655624009,-0.0196590073968,-0.412865457233,0.0498975213435,-0.0259825691992,-0.0152526679917,-0.57892125573,-3.08655428886,-0.18269392848,-1.93010950089,0.00342629849911,-1.40800368786,-0.0935674607754
2017/07/09/10:20:09.822321,519449,1499566812,629276448,,0.785029087986,0.230652077615,0.170560025696,0.70673884976,0.705640038129,0.0347482220269,0.0372141894234,-0.0301753701544,-0.384455096783,0.0227580215741,0.000864882574255,0.0153802780199,-0.547563259999,-2.49246048927,0.0896902680397,-1.55770206451,-0.108940653503,-1.2823485136,-0.140589401126
2017/07/09/10:20:09.832242,519450,1499566812,639285694,,0.785021356105,0.227560059879,0.170948559259,0.708243612309,0.704115866023,0.0347600740422,0.0374642508323,-0.000764120640884,-0.372949580849,0.0522495313289,-0.0162105853433,-0.0536394497563,-0.510497635317,-2.95540976524,0.244964659214,-1.80596649647,-0.133576959372,-1.50364673138,-0.169334039092
2017/07/09/10:20:09.842785,519451,1499566812,649264756,,0.785376250044,0.223584119529,0.171782463405,0.709907642306,0.702380875187,0.0352056479292,0.0381157174928,-0.0102263479888,-0.3786590127,0.0424853931719,-0.0384004815823,-0.0355234612006,-0.495977281261,-3.30131292343,-0.0814584493637,-2.03054404259,0.0137047171593,-1.69866383076,-0.134560719132
2017/07/09/10:20:09.852143,519452,1499566812,659263659,,0.784596133931,0.219514856448,0.171205461114,0.711663646233,0.700654506249,0.0342672037385,0.0379983716953,0.00311112051177,-0.396935047041,0.0468234138252,-0.0344218561693,-0.065460292251,-0.534960641163,-4.39531230927,0.115440323949,-2.43207836151,-0.0173592418432,-2.09192705154,-0.165696084499
2017/07/09/10:20:09.862471,519453,1499566812,669265431,,0.785237286088,0.215848686914,0.17183212315,0.713822757189,0.698388083618,0.035104265004,0.0384557740514,-0.00663499492866,-0.40079216912,0.0198610289705,-0.0195488102672,-0.0393387718511,-0.548861437102,-3.97587299347,-0.102428928018,-2.07802271843,0.0158700793982,-1.96274638176,-0.135177075863
2017/07/09/10:20:09.872548,519454,1499566812,679269328,,0.784956611153,0.2113995224,0.17214702746,0.715723969546,0.696439072938,0.0345164013627,0.0389927575276,0.0101175632622,-0.410676553382,0.0305248698835,-0.0417301127981,-0.0860860568263,-0.545583865556,-4.62250137329,-0.337002396584,-1.83664274216,0.145753324032,-2.15533089638,-0.100573919713
2017/07/09/10:20:09.882260,519455,1499566812,689267890,,0.785200176005,0.208289614053,0.172603420584,0.71713893562,0.694933471941,0.0346794787841,0.0397057973702,0.00563577349065,-0.37986588447,0.0302592073435,-0.0182655892834,-0.0773109444219,-0.52099155292,-4.48459291458,-0.15124566853,-1.65092086792,0.0354145169258,-2.10463380814,-0.10795609653
2017/07/09/10:20:09.892389,519456,1499566812,699269391,,0.784834412516,0.205154572548,0.172364822676,0.71886304487,0.693169113886,0.0348450643134,0.0392214707367,0.00528701799257,-0.370796884774,0.0372319886214,-0.0129680875814,-0.0789965161574,-0.522562981659,-5.18199586868,-0.0287939459085,-1.7498010397,0.0292909815907,-2.38823699951,-0.128667518497
2017/07/09/10:20:09.902498,519457,1499566812,709265733,,0.785235672969,0.201134023313,0.173213750287,0.720582509415,0.691319995378,0.0349969407054,0.0401587506897,0.00183890784546,-0.372393782357,0.0418262411804,-0.0229590237285,-0.0632813057408,-0.498887931791,-5.10626125336,-0.278876304626,-1.34533500671,0.0369043499231,-2.42487549782,-0.134071499109
2017/07/09/10:20:09.912497,519458,1499566812,719270975,,0.785073500566,0.19752613782,0.173235131428,0.722199718223,0.689631638298,0.0348330769665,0.0402793645226,-0.0157837827615,-0.369232780699,0.0222838966933,-0.0267913255348,-0.0210232925752,-0.506922771033,-5.85608005524,-0.189841419458,-1.49054300785,0.03059528023,-2.76182937622,-0.132662624121
2017/07/09/10:20:09.922557,519459,1499566812,729263885,,0.785212091484,0.194222398585,0.173818079814,0.724044394407,0.687667279004,0.0351205409528,0.0404966161281,-0.011640417841,-0.364920560192,0.0309044946222,-0.00567384476878,-0.035980439359,-0.519078699287,-6.72735261917,-0.259941637516,-1.26744508743,0.15559142828,-3.17361831665,-0.0633658096194
2017/07/09/10:20:09.932455,519460,1499566812,739266870,,0.784952445341,0.190612134475,0.173836671488,0.725337775894,0.686294285019,0.0345531272053,0.0411259846375,0.00194502988832,-0.364181118516,0.0360334876308,-0.0330955661232,-0.0623459808054,-0.479856978617,-7.60385084152,-0.321592152119,-1.21637916565,0.13515663147,-3.47577881813,-0.0720300450921
2017/07/09/10:20:09.942409,519461,1499566812,749270822,,0.784989350493,0.187379797685,0.174148253049,0.726989462691,0.684516474864,0.0348513815109,0.0413388193131,-0.00799513145632,-0.387367276799,0.0183518497587,-0.0560879334653,-0.0386382687371,-0.518717705218,-8.37642478943,-0.104547530413,-1.07138502598,0.0251253098249,-3.80816936493,-0.0991909354925
2017/07/09/10:20:09.952264,519462,1499566812,759263667,,0.784868888306,0.183878101354,0.174415803321,0.728673927438,0.68270734396,0.0346768789307,0.0417433113669,-0.00311192709373,-0.354765246635,0.03801895429,-0.0286484075485,-0.0564273228645,-0.497955908536,-8.91139030457,-0.202175825834,-0.931412875652,0.106240451336,-4.01555585861,-0.00914729386568
2017/07/09/10:20:09.962701,519463,1499566812,769264155,,0.784581966292,0.180011583084,0.17473257805,0.730242410689,0.681037708146,0.0340842022742,0.0420942854684,-0.0205472512829,-0.383550193952,0.0173970724878,-0.072840657603,-0.0154576348762,-0.50181563316,-9.04204273224,0.028885319829,-1.03059637547,0.0154520645738,-4.08221960068,-0.0473866909742
2017/07/09/10:20:09.972506,519464,1499566812,779269676,,0.784413003823,0.176943440052,0.174756660928,0.731368257847,0.679825082136,0.0336916989817,0.0424640852038,-0.0162357356986,-0.371798701801,0.0257112656574,-0.10153231711,-0.0122543271542,-0.440739697718,-9.54251194,-0.150176435709,-0.537260651588,0.149828836322,-4.23128175735,0.0151501893997
2017/07/09/10:20:09.982722,519465,1499566812,789267044,,0.784525059009,0.172248028359,0.174894308828,0.733256071518,0.677762277214,0.0331158220452,0.0433263372367,-0.0281145875739,-0.37746405069,0.0240075238022,-0.139512333438,0.0168506956141,-0.426099743384,-10.0454530716,-0.320830851793,-0.432263880968,0.233205527067,-4.43394517899,0.0103155598044
2017/07/09/10:20:09.992584,519466,1499566812,799264482,,0.783743053888,0.169047395787,0.175193562172,0.73407575452,0.676915062381,0.0318975637053,0.0436042472504,-0.0241300877946,-0.394807914395,0.0327313590679,-0.186657819612,0.0194251372723,-0.425189897803,-10.9330692291,-0.273684322834,-0.55246835947,0.343793839216,-4.74877548218,0.0614021942019
2017/07/09/10:20:10.002529,519467,1499566812,809264151,,0.783044308392,0.16500411164,0.175255730738,0.735473239756,0.675428890999,0.0304970182035,0.0441005520168,-0.044548257476,-0.412562522555,0.0200962483756,-0.190761590384,0.0637483763188,-0.435623694767,-10.9393568039,-0.0879285931587,-0.534517109394,0.280124813318,-4.76438236237,0.0762160941958
2017/07/09/10:20:10.012456,519468,1499566812,819270625,,0.783451658041,0.160756086055,0.175831269158,0.736922602689,0.673779279488,0.0299988397047,0.0454602001259,-0.0453056277204,-0.417346632027,0.0285331880825,-0.224232964123,0.0655227822563,-0.430178236336,-11.0103178024,0.0335767120123,-0.0841151922941,0.249977499247,-4.82549905777,0.0848093926907
2017/07/09/10:20:10.022328,519469,1499566812,829271653,,0.782722244623,0.15771881774,0.176006616662,0.737910220531,0.672738096046,0.0288553215419,0.0455996818318,-0.0442288530305,-0.39027340899,0.0218290936954,-0.234263288346,0.082840657866,-0.377001813749,-11.3205900192,0.284086346626,-0.291192084551,0.163889184594,-4.8672876358,0.107557162642
2017/07/09/10:20:10.032338,519470,1499566812,839269870,,0.782040058765,0.152993022888,0.17618633342,0.739370098266,0.671166634788,0.0271900678806,0.0461292352666,-0.0591453756616,-0.424901089357,0.0115384688112,-0.229930136402,0.111163350027,-0.433417460065,-11.5218677521,0.0699480772018,-0.0129257980734,0.0521384477615,-4.99486160278,0.0989953130484
2017/07/09/10:20:10.042329,519471,1499566812,849269895,,0.78151753346,0.149276222063,0.17647622244,0.74053417432,0.669885543908,0.0259849686336,0.046768324027,-0.05148566877,-0.416025259647,0.0359190263009,-0.259208267117,0.0976224708748,-0.398550852794,-12.0437870026,0.356814026833,-0.061182577163,-0.0982245653868,-5.15330791473,0.0740491002798
2017/07/09/10:20:10.052433,519472,1499566812,859274445,,0.780878540416,0.145105012217,0.176565526459,0.741657528322,0.668658478723,0.0241997934062,0.0474796747517,-0.0625293609111,-0.403178479796,0.029326793209,-0.291751385344,0.134542394307,-0.354874300941,-11.9958724976,0.474238276482,-0.151264056563,-0.0161134079099,-5.13995409012,0.153082668781
2017/07/09/10:20:10.062466,519473,1499566812,869264908,,0.780154044408,0.141641603822,0.17698225775,0.742241355966,0.668010792483,0.022646745009,0.0482335522241,-0.0724959426292,-0.41282475644,0.0327854948123,-0.304390542799,0.153555380329,-0.35308864446,-12.4168710709,0.336357682943,-0.122171789408,0.0543306618929,-5.28474187851,0.151826232672
2017/07/09/10:20:10.072688,519474,1499566812,879264850,,0.779824343714,0.137313507229,0.177346338399,0.743673963964,0.66639959294,0.0209837835353,0.049196531181,-0.0679151550353,-0.391439205755,0.0267759037157,-0.326417078044,0.160728963892,-0.305035758059,-12.1526298523,-0.388167917728,0.22072699666,0.390434622765,-5.20954799652,0.249698475003
2017/07/09/10:20:10.082473,519475,1499566812,889269884,,0.778741840251,0.133596484649,0.177276067049,0.744505191208,0.665508322075,0.0186681844193,0.049620483718,-0.0659981739856,-0.413451541638,0.0340952426856,-0.368621321681,0.162813925815,-0.334450984626,-12.472325325,0.119098730385,-0.398632198572,0.338661521673,-5.33964729309,0.262628674507
2017/07/09/10:20:10.092470,519476,1499566812,899270065,,0.778328309246,0.129279771777,0.178056522157,0.745575032602,0.664276849161,0.0170482865146,0.050630962425,-0.0720778560707,-0.438908423667,0.041752117264,-0.408273242461,0.177385961693,-0.33662167031,-12.6813964844,-0.231584757566,0.0114180929959,0.455800145864,-5.46467685699,0.325474590063
2017/07/09/10:20:10.102527,519477,1499566812,909270802,,0.777601534331,0.1260289435,0.177989470827,0.746022899152,0.663774826916,0.0148685407473,0.0513004833297,-0.0838439561687,-0.418149808226,0.0369964404624,-0.403262058837,0.219493023214,-0.311562053009,-12.0010251999,0.360254973173,-0.399614691734,0.22919985652,-5.26356458664,0.287519514561
2017/07/09/10:20:10.112675,519478,1499566812,919276958,,0.776841501655,0.121101314418,0.179017246151,0.747206974563,0.662405654586,0.0125738244144,0.0523677847139,-0.0814260398196,-0.41888441314,0.0372920672686,-0.427122618234,0.21528925369,-0.293735941626,-12.1845827103,-0.0721846669912,0.326718479395,0.139478385448,-5.30988550186,0.284749746323
2017/07/09/10:20:10.122424,519479,1499566812,929266690,,0.776078113326,0.117286950013,0.179293942904,0.748012234722,0.661461381127,0.0102600844517,0.0533035519488,-0.0667791878375,-0.419731478128,0.0621653165022,-0.438596085353,0.187413083914,-0.282755191727,-12.1086196899,0.252230644226,0.0429890826344,-0.00206449627876,-5.21312522888,0.286649346352
2017/07/09/10:20:10.133680,519480,1499566812,939270833,,0.775108504644,0.113945119197,0.179518220914,0.74835242842,0.661059015508,0.00751741576606,0.0539732281232,-0.0853770676223,-0.41941671869,0.0547615895981,-0.456660438768,0.24198496328,-0.29241034065,-12.4180164337,0.974922418594,-0.132048428059,-0.260297000408,-5.34537410736,0.26298174262
2017/07/09/10:20:10.142619,519481,1499566812,949296597,,0.774656744303,0.108975393617,0.180641840807,0.749255966862,0.659905862014,0.00499612523569,0.0558102869887,-0.0935427112811,-0.426638575258,0.0371586314349,-0.499001567654,0.283869104681,-0.276887440307,-11.8490447998,0.269683301449,0.360338300467,-0.146792143583,-5.17778396606,0.306909501553
2017/07/09/10:20:10.152462,519482,1499566812,959270001,,0.772627214445,0.105325643335,0.179778743659,0.749768163404,0.659391977325,0.00156613223245,0.0552038822524,-0.0999850260063,-0.438085614029,0.0352572088734,-0.514289169401,0.310060146262,-0.288068799152,-12.1918344498,0.458059549332,-0.311834782362,-0.107224032283,-5.23897981644,0.34546366334
2017/07/09/10:20:10.162294,519483,1499566812,969262357,,0.772371428111,0.100962320513,0.18097993647,0.750681013657,0.658217070464,-0.000685932717797,0.0568140245064,-0.10549609231,-0.431629718054,0.0423469937997,-0.506496039933,0.320400524028,-0.26733124819,-12.0534734726,-0.0334338098764,0.133573710918,0.0740787386894,-5.20483255386,0.407919704914
2017/07/09/10:20:10.172446,519484,1499566812,979285074,,0.770854598047,0.0972863334161,0.180833673003,0.751136682266,0.657659595303,-0.00424064820991,0.0570925403539,-0.104989509386,-0.41701781723,0.0555809721272,-0.495306203597,0.331688615465,-0.262902519819,-11.9194364548,0.486203193665,-0.234047457576,4.9002468586e-05,-5.20534753799,0.42519313097
2017/07/09/10:20:10.182425,519485,1499566812,989262269,,0.769855512414,0.0928905551904,0.181384442198,0.752274624521,0.656278855047,-0.00716760034904,0.0577025062366,-0.110178218519,-0.414290775587,0.047053899421,-0.513012593511,0.357572347609,-0.263873940677,-11.8496952057,0.463497042656,-0.350998669863,-0.0213190019131,-5.21070814133,0.431595116854
2017/07/09/10:20:10.192697,519486,1499566812,999269336,,0.769612503688,0.0892017186541,0.182495839721,0.752905659869,0.655411284294,-0.00939726250822,0.058998366206,-0.116656733982,-0.418308922117,0.0492460477916,-0.508428301549,0.374377745233,-0.283834183692,-11.5144414902,0.316627979279,0.0420596636832,0.0537874549627,-5.1140832901,0.457024484873
2017/07/09/10:20:10.202366,519487,1499566813,9269376,,0.767852622698,0.0857655151513,0.182293935055,0.753430224469,0.654787646487,-0.0127582571254,0.0585940418404,-0.105507879232,-0.391018810222,0.0481832330138,-0.471340535395,0.368118901209,-0.270934239683,-11.130645752,0.667761325836,-0.490370154381,-0.139676377177,-4.85187768936,0.416061401367
2017/07/09/10:20:10.212395,519488,1499566813,19269988,,0.767195662849,0.0819443194292,0.183197253312,0.754223316464,0.65370802074,-0.0155532207628,0.0597587637549,-0.113236772199,-0.390763456676,0.0520220824987,-0.468399867872,0.385421111168,-0.277547248101,-11.5989112854,0.100834161043,-0.283832162619,-0.0161203965545,-5.08800077438,0.494925349951
2017/07/09/10:20:10.222262,519489,1499566813,29267442,,0.766042542602,0.0788429591947,0.18340685736,0.754834564289,0.652912484563,-0.0187414762134,0.0598232824719,-0.118143733154,-0.365813641954,0.0457470278411,-0.459443516053,0.411521662194,-0.262147123496,-11.2493486404,0.957911550999,-0.518198847771,-0.302443116903,-4.98573160172,0.466688156128
2017/07/09/10:20:10.232394,519490,1499566813,39269499,,0.764441770657,0.0745655825894,0.183719445326,0.755459832777,0.652068632633,-0.0221271979534,0.0599777167566,-0.12723324067,-0.357723663237,0.0482099818639,-0.45154658524,0.440222422461,-0.271801613243,-11.9806776047,0.610580503941,-0.580240726471,-0.193987607956,-5.26542520523,0.555552363396
2017/07/09/10:20:10.242607,519491,1499566813,49269953,,0.763446955427,0.0718036936404,0.184095823028,0.75615161183,0.65117769901,-0.0247906382217,0.0598979840642,-0.138179535414,-0.380208821842,0.0515951905966,-0.48168191505,0.461825087244,-0.283247928696,-11.5618667603,0.783669710159,-0.615954637527,-0.273190170527,-5.15058803558,0.521090269089
2017/07/09/10:20:10.252701,519492,1499566813,59270412,,0.761601230465,0.0684048828678,0.184483751285,0.756769745655,0.650328589207,-0.0286615693379,0.0595885271233,-0.151727083604,-0.356432928512,0.0404754252955,-0.451502788729,0.523967115508,-0.265479661629,-10.8200483322,0.558819651604,-0.638724803925,-0.142567515373,-4.82455539703,0.529810011387
2017/07/09/10:20:10.262283,519493,1499566813,69265659,,0.75964777013,0.0647864305985,0.184312124274,0.757647493013,0.649159892579,-0.0325321573151,0.0591892637093,-0.15859966677,-0.34611849122,0.0328083576058,-0.432644608198,0.554635618848,-0.264724652883,-10.4145698547,0.695298075676,-0.947210788727,-0.11118426919,-4.62056779861,0.571618556976
2017/07/09/10:20:10.272377,519494,1499566813,79292671,,0.758580680816,0.0630072775871,0.184993716717,0.757841711707,0.648867808721,-0.0350399988797,0.0584696954117,-0.168944846535,-0.340871534253,0.0416845416698,-0.42013432019,0.580971128019,-0.297912006815,-9.58381843567,1.59335494041,-0.951991438866,-0.365576684475,-4.36848068237,0.501137018204
2017/07/09/10:20:10.282469,519495,1499566813,89264833,,0.756767814864,0.0589475203912,0.185337689392,0.758802343419,0.647523416718,-0.0389835772359,0.0584183971811,-0.160834127713,-0.304042383645,0.0417087759334,-0.384307361905,0.580789652522,-0.268452386077,-9.89927864075,0.513512015343,-0.729463100433,-0.247596681118,-4.43528175354,0.531841814518
2017/07/09/10:20:10.292496,519496,1499566813,99263039,,0.755534730246,0.0564741618518,0.186095295867,0.759177732901,0.646916791674,-0.0422016657365,0.0580245976013,-0.156947631412,-0.320371205235,0.0483153465835,-0.41969095853,0.564784716186,-0.285214440752,-9.03509998322,0.887320816517,-0.376181155443,-0.318017661572,-4.12176084518,0.457751005888
2017/07/09/10:20:10.302344,519497,1499566813,109267905,,0.753703657358,0.0538632015582,0.185813911781,0.759715963755,0.646096990226,-0.0460336572136,0.0571947203798,-0.174521571634,-0.299116460253,0.0271070791538,-0.372582128834,0.617194928892,-0.275465333407,-7.86252260208,0.690434455872,-0.351133525372,-0.238217413425,-3.6397395134,0.412814319134
2017/07/09/10:20:10.312434,519498,1499566813,119270228,,0.752591666761,0.0512425692119,0.18682844367,0.760381576982,0.64512322941,-0.0488984018745,0.0569633439661,-0.167229241293,-0.28774324808,0.0412809667541,-0.371440594488,0.606766902328,-0.282220542383,-7.41815519333,0.905972480774,-0.240256592631,-0.125259369612,-3.45737624168,0.440041124821
2017/07/09/10:20:10.322385,519499,1499566813,129264119,,0.750944036667,0.0483545753363,0.187027913657,0.760877960423,0.644302162886,-0.0524664692196,0.0564510571218,-0.15870628871,-0.295432267584,0.0419799083949,-0.385461404389,0.602297801253,-0.28087820175,-7.30898094177,0.644770860672,-0.567877709866,-0.0997433587909,-3.36836194992,0.440943539143
2017/07/09/10:20:10.332462,519500,1499566813,139271536,,0.749461867496,0.0455286847653,0.186913484348,0.761903806081,0.642902628683,-0.0557123828333,0.0554520577599,-0.146057568623,-0.299083201843,0.0581917410819,-0.395249849693,0.569829473358,-0.272841546876,-7.38219833374,0.365107506514,-0.900964140892,-0.0631756260991,-3.40293502808,0.457014501095
2017/07/09/10:20:10.342583,519501,1499566813,149262895,,0.748034224134,0.0430564577598,0.187208311776,0.762184028063,0.642329336601,-0.0590404228676,0.0547974376671,-0.153629544533,-0.291078301117,0.0365572351944,-0.371890011656,0.593077300705,-0.286193393063,-6.52301597595,0.8933147192,-0.886868953705,-0.154364347458,-3.07199501991,0.395460486412
2017/07/09/10:20:10.352417,519502,1499566813,159263433,,0.746831302287,0.040075897537,0.188310633469,0.762724430661,0.64133692778,-0.0625150905337,0.0550477192404,-0.143092443176,-0.278210862478,0.0459793488727,-0.3838025896,0.577783106542,-0.269134028811,-5.6208615303,0.982797145844,-0.242382496595,-0.24810525775,-2.72886490822,0.337607145309
2017/07/09/10:20:10.362596,519503,1499566813,169264118,,0.746086339289,0.0375702318526,0.188817786923,0.763428281529,0.640251355054,-0.0651156702725,0.0549127562429,-0.131257693558,-0.255243270161,0.0442587084742,-0.355575073154,0.551025201004,-0.2437067978,-4.97394895554,0.633977472782,-0.143265426159,-0.194994449615,-2.549710989,0.310169011354
2017/07/09/10:20:10.372172,519504,1499566813,179261789,,0.744360765882,0.0358682265175,0.188740336346,0.76359231899,0.639833527839,-0.068367383532,0.0535324938916,-0.130539436845,-0.28236728621,0.0531098496084,-0.3881181016,0.529334390975,-0.2891162365,-5.59354972839,0.842842817307,-0.276441395283,-0.196033596992,-2.70784759521,0.361041247845
2017/07/09/10:20:10.382140,519505,1499566813,189262406,,0.743553878073,0.0324497240531,0.189433541566,0.764277174545,0.6386184758,-0.0715932053714,0.0540486427213,-0.123381129012,-0.263637094514,0.0505960186198,-0.361243562828,0.513220899369,-0.270934347344,-3.98860549927,0.830055832863,-0.870950102806,-0.206410601735,-2.11452507973,0.285468608141
2017/07/09/10:20:10.392286,519506,1499566813,199262642,,0.741971433004,0.0298629869736,0.189242012576,0.764925460389,0.637556981855,-0.0746741315247,0.0532344720804,-0.116246057911,-0.256710886548,0.0602210662405,-0.356840541949,0.484818921296,-0.269925254275,-3.73014187813,0.126782566309,-0.806766211987,-0.0747136324644,-1.94072175026,0.255339860916
2017/07/09/10:20:10.402380,519507,1499566813,209269740,,0.741219948457,0.0281675776563,0.189779775555,0.765401118611,0.636728293486,-0.0771193511884,0.0528281513549,-0.127251320942,-0.258024553488,0.0310590778906,-0.343990929432,0.517076923948,-0.272974936811,-2.75320529938,0.0908808112144,-0.286363303661,0.00891473144293,-1.59083771706,0.21355676651
2017/07/09/10:20:10.412566,519508,1499566813,219269754,,0.740259424174,0.0258950421202,0.190353939505,0.766322770507,0.635387166783,-0.0793624848749,0.0522891545561,-0.118447936255,-0.246965373702,0.0489807701547,-0.319852502033,0.481984711102,-0.298159284719,-1.83522045612,0.696898043156,-0.350469708443,-0.125131458044,-1.26927375793,0.144061237574
2017/07/09/10:20:10.422317,519509,1499566813,229270413,,0.739265770401,0.0235301809613,0.191191761217,0.766831167445,0.634412539033,-0.0822839465527,0.0521540323729,-0.115823328593,-0.218868727835,0.0481972441639,-0.2885483665,0.485115181246,-0.279256667539,-2.00503540039,-0.00845208764076,-0.20879855752,-0.0413153544068,-1.26819097996,0.145661383867
2017/07/09/10:20:10.432471,519510,1499566813,239269632,,0.73835726748,0.0215199559183,0.191498435482,0.767203975891,0.633648153816,-0.0848600855702,0.0518347607279,-0.091093853298,-0.22610923539,0.0600478295935,-0.290278986172,0.413459571855,-0.303387717453,-1.73003721237,0.394807457924,0.252941012383,-0.136898800731,-1.15519583225,0.101055391133
2017/07/09/10:20:10.442485,519511,1499566813,249265723,,0.737735755789,0.0192809548393,0.19257231082,0.768143707974,0.63228866529,-0.0866428219694,0.0515684888957,-0.0898780547236,-0.223728577936,0.055415646947,-0.261334332741,0.403051524616,-0.276875487193,-1.13298714161,0.580465078354,0.223922550678,-0.202484354377,-0.930557549,0.0640856698155
2017/07/09/10:20:10.452559,519512,1499566813,259272552,,0.736240806758,0.0177598432925,0.192080024593,0.768727612244,0.631288632245,-0.0894781530759,0.0502611290511,-0.106946485886,-0.213011312222,0.0448440320154,-0.243629369926,0.429722507239,-0.304098316247,-1.23907971382,0.91548037529,-0.71678763628,-0.25705036521,-0.89861536026,0.106171675026
2017/07/09/10:20:10.462646,519513,1499566813,269267851,,0.735078464101,0.0151350947512,0.192657998469,0.769384156032,0.630105945428,-0.0921383190666,0.0502498571333,-0.121584021157,-0.171185817177,0.0317270390816,-0.199138290728,0.481042943027,-0.27756322257,1.11752223969,-0.147241085768,-0.947443842888,-0.0544177293777,0.0330100469291,-0.109527572989
2017/07/09/10:20:10.472378,519514,1499566813,279262239,,0.7340185268,0.0137173147094,0.193465813184,0.770058879564,0.629037916495,-0.094274419541,0.0493249980925,-0.121772899537,-0.194973266747,0.0465404195471,-0.202156161881,0.451196057106,-0.319293491553,1.15768992901,0.392750918865,-0.249764293432,-0.201857626438,0.105621159077,-0.140754640102
2017/07/09/10:20:10.482392,519515,1499566813,289268769,,0.733317380826,0.0122170335781,0.194067841928,0.770772447919,0.627953286111,-0.0959766748863,0.0487132617479,-0.124711457503,-0.187197038037,0.0578485240311,-0.178757546729,0.441289699817,-0.340746704859,1.00865006447,0.226179808378,0.0898715853691,-0.105968929827,-0.0828473940492,-0.121022500098
2017/07/09/10:20:10.492392,519516,1499566813,299266929,,0.731828148112,0.0106621423237,0.194495570642,0.771600819725,0.62668269045,-0.0982322337841,0.0474490119592,-0.131654909558,-0.157194953115,0.0475677045003,-0.131243957008,0.470024934427,-0.30720034032,0.0489439219236,0.694023251534,0.146826192737,-0.147882819176,-0.459245353937,-0.0277683958411
2017/07/09/10:20:10.502288,519517,1499566813,309271716,,0.730230325761,0.0092601457851,0.19451338573,0.772124874532,0.625784457344,-0.100533289795,0.0459352666119,-0.13385006219,-0.180783547984,0.0479127005178,-0.151709439905,0.450326147048,-0.337126737249,-0.965473234653,0.368341475725,-0.549298882484,-0.122313454747,-0.762465953827,0.0285991579294
2017/07/09/10:20:10.512364,519518,1499566813,319267596,,0.729100101742,0.00770799048407,0.194858117882,0.772742233266,0.624848562412,-0.102143554655,0.0447259345504,-0.1379677188,-0.14479388598,0.0250075696554,-0.0947561240864,0.475936354888,-0.287601072941,0.822044014931,-0.204945087433,0.0198636949062,-0.00158084183931,-0.0661932229996,-0.140776872635
2017/07/09/10:20:10.522615,519519,1499566813,329271039,,0.728177312192,0.00674293736481,0.195182965967,0.773640488534,0.623511812929,-0.103911175592,0.0437707805102,-0.123473958286,-0.16332909471,0.0226743774146,-0.0966484768278,0.42268646871,-0.310638576972,2.26343226433,0.247921913862,0.118303053081,-0.0651698559523,0.502269983292,-0.248767763376
2017/07/09/10:20:10.532691,519520,1499566813,339269917,,0.726978362941,0.00503263139814,0.195064524827,0.77440981651,0.622323088957,-0.105769914031,0.0426161275832,-0.115826485436,-0.145285895138,0.0250515946014,-0.0732849240414,0.394151980788,-0.342718083179,3.04031515121,0.345040410757,0.0473586767912,0.0374916344881,0.792208492756,-0.302806913853
2017/07/09/10:20:10.542412,519521,1499566813,349266520,,0.726246703152,0.00341827603891,0.196052696693,0.775052720071,0.621267979481,-0.10732902412,0.0424247494274,-0.117611532462,-0.14988925088,0.0298004794508,-0.0731517803172,0.38156571301,-0.349836993414,2.7656583786,0.227374434471,-0.0480449348688,-0.0765195637941,0.741303801537,-0.290604114532
2017/07/09/10:20:10.552348,519522,1499566813,359277272,,0.725197372353,0.00202723795691,0.195807922458,0.775954505904,0.619984809937,-0.108774024123,0.0410079491179,-0.113098946353,-0.14863431723,0.0350618430001,-0.076011705555,0.377101808631,-0.323776657029,1.82427883148,0.274724006653,-0.653939723969,-0.0912006944418,0.399137824774,-0.209505051374
2017/07/09/10:20:10.562280,519523,1499566813,369264468,,0.723303187825,0.000571294061695,0.195891923749,0.776533781541,0.618922692839,-0.11123531175,0.0394549342204,-0.127278435424,-0.16382545021,0.0291961627323,-0.0771948741355,0.397223704147,-0.35431370581,1.59625339508,0.340868651867,-0.513130486012,0.00408739596605,0.369531273842,-0.192554146051
2017/07/09/10:20:10.572535,519524,1499566813,379267147,,0.722535217032,-0.000519620678097,0.196405017461,0.77718143258,0.617937452193,-0.112452594902,0.0386877232318,-0.121298277846,-0.153175975117,0.0279561356446,-0.0697227129478,0.373749565219,-0.329700986055,2.27866005898,0.225921794772,0.0785046741366,0.0222871005535,0.604192256927,-0.301313281059
2017/07/09/10:20:10.582559,519525,1499566813,389281738,,0.721868107727,-0.00228431657242,0.196111306625,0.778151053967,0.616538302004,-0.113640078483,0.0380446045535,-0.113097074386,-0.160406444899,0.0226988046924,-0.0545357512664,0.33922567964,-0.343068277158,3.4726755619,0.306287288666,0.212725579739,0.0427189320326,0.98876863718,-0.383295655251
2017/07/09/10:20:10.592304,519526,1499566813,399265868,,0.720479395228,-0.00361587812943,0.196632547094,0.77914900659,0.615058913863,-0.115228048849,0.0367675776503,-0.121045656098,-0.144467203508,0.0129033068837,-0.0270095693788,0.353739283272,-0.361144933909,2.26507878304,0.0625683218241,0.642029643059,0.0503118485212,0.516874969006,-0.265158057213
2017/07/09/10:20:10.602041,519527,1499566813,409265296,,0.719610362593,-0.00496338230009,0.196346146169,0.7798339247,0.614030493327,-0.116432651687,0.0356235985357,-0.102272725463,-0.150020987952,0.0273205774538,-0.0322933733201,0.296102987806,-0.357618434072,2.37811017036,0.264391124249,0.295208573341,-0.00113095343113,0.596732854843,-0.287379086018
2017/07/09/10:20:10.612420,519528,1499566813,419275862,,0.71812130919,-0.00710170324631,0.196707546279,0.781094740454,0.61216579275,-0.118034344169,0.0348129604954,-0.104548379835,-0.150529032073,0.0232340967441,-0.0302059024348,0.30058290029,-0.346211535236,2.28781795502,0.113942235708,0.124871574342,-0.0691164135933,0.579515337944,-0.274002194405
2017/07/09/10:20:10.622761,519529,1499566813,429275000,,0.717287606832,-0.00861249884721,0.197196793446,0.78153841294,0.611375907959,-0.119368648022,0.0341809030839,-0.100883319509,-0.148248382433,0.0240885135824,-0.0498533992339,0.28174205079,-0.336616832458,1.24328005314,0.422891438007,0.24002635479,-0.140135705471,0.143774524331,-0.164408743382
2017/07/09/10:20:10.632532,519530,1499566813,439267023,,0.71584834799,-0.00955751651595,0.196115423949,0.78233972034,0.610173092539,-0.120768603439,0.0323775160194,-0.106392835979,-0.151549057674,0.00970248581033,-0.0443263750383,0.297399063238,-0.330253136699,2.14500999451,0.434384435415,-0.400464296341,-0.0904901474714,0.524430394173,-0.253436356783
2017/07/09/10:20:10.642413,519531,1499566813,449267181,,0.714991596458,-0.0117283865635,0.196728134479,0.783310494699,0.60868898914,-0.122004719844,0.0322060821716,-0.115751669706,-0.177500961362,-0.0047524967879,-0.0544755127875,0.299605985849,-0.347398790767,3.16615128517,0.106441572309,-0.338584303856,0.00252559781075,0.82022690773,-0.327730596066
2017/07/09/10:20:10.652525,519532,1499566813,459263542,,0.71438073625,-0.0121516245546,0.196951120159,0.783725688684,0.6080443101,-0.122810917311,0.03120321204,-0.118884082349,-0.172724654721,0.00386852450397,-0.0554109528429,0.30174766325,-0.339188781605,3.03620743752,0.0401193648577,0.221157819033,0.0477457344532,0.638028085232,-0.273626029491
2017/07/09/10:20:10.662333,519533,1499566813,469270892,,0.713747027337,-0.0141929332229,0.197616037282,0.784679615559,0.606635818383,-0.123680832478,0.0312079550542,-0.104064950753,-0.165874999397,0.0114314042129,-0.0281798772751,0.251547882421,-0.342498568457,3.29472470284,0.227217361331,-0.0970369279385,-0.0460290908813,0.774216532707,-0.293490678072
2017/07/09/10:20:10.672358,519534,1499566813,479275674,,0.71245346517,-0.0163284673582,0.196947186715,0.785745466802,0.605127279014,-0.124618449881,0.0299212222947,-0.105124624227,-0.168347753063,0.00512394584209,-0.0258678024958,0.240281232514,-0.343569598578,2.57654213905,-0.136191427708,-0.247038125992,0.0107410177588,0.456065058708,-0.251250088215
2017/07/09/10:20:10.682406,519535,1499566813,489265078,,0.711091151732,-0.0181449572441,0.1967871886,0.786675358328,0.603668879017,-0.126034531907,0.0290010667291,-0.111998584744,-0.180297957102,-0.00384307662465,-0.0169358763606,0.239825556241,-0.349683558503,2.74505662918,-0.121171116829,-0.0966547802091,0.0579102113843,0.526380777359,-0.237483114004
2017/07/09/10:20:10.692293,519536,1499566813,499267209,,0.710483757303,-0.0192942324095,0.197061518621,0.787408777167,0.602681122219,-0.126344560197,0.0282831163431,-0.10595427966,-0.162961851056,-0.0106391486171,0.00954461773325,0.223207917356,-0.350241694431,3.20359015465,-0.452594637871,0.233357712626,0.124517038465,0.694234848022,-0.292861163616
2017/07/09/10:20:10.702335,519537,1499566813,509262177,,0.709614923451,-0.0206518502564,0.196541098434,0.788269029461,0.601450405879,-0.127058269172,0.0273046277167,-0.10185934496,-0.156050924086,-0.00598579117021,0.0159508847355,0.201185025507,-0.338516029219,2.83297634125,-0.287501811981,0.144687965512,0.0566829070449,0.652444839478,-0.279490053654
2017/07/09/10:20:10.712180,519538,1499566813,519263340,,0.708609152068,-0.0221058248723,0.196166493128,0.789130727177,0.600230810324,-0.127679072714,0.0263386437212,-0.0946013471634,-0.161248042185,-0.0210178615241,0.0193592389943,0.182327495241,-0.327372274494,3.51439762115,-0.057658419013,0.035736232996,-0.0393522754312,0.897996127605,-0.334238559008
2017/07/09/10:20:10.723221,519539,1499566813,529271432,,0.707825878259,-0.0234815235859,0.1958479784,0.790244996455,0.598769636697,-0.127810216084,0.0255404857267,-0.0646503021782,-0.135155480725,-0.0259594369089,0.0497128640156,0.11316196421,-0.312777793215,3.21021175385,-0.0181627124548,0.0314590930939,-0.0487552136183,0.921273112297,-0.338723212481
2017/07/09/10:20:10.732643,519540,1499566813,539273356,,0.706781060915,-0.0255352941439,0.195528705742,0.790877534934,0.597821011443,-0.128481110056,0.0248065993758,-0.0683423194671,-0.144811384282,-0.0239729003167,0.0584711123982,0.0943023950038,-0.316798785565,2.52053308487,-0.53768402338,0.190939813852,0.105116859078,0.684109687805,-0.28809556365
2017/07/09/10:20:10.742412,519541,1499566813,549268419,,0.70639665658,-0.0266147822887,0.195099255766,0.791652916785,0.596794193054,-0.128582939106,0.0242647533327,-0.0752822356243,-0.155448301269,-0.0270450507285,0.0577533583382,0.0981979713433,-0.315599638908,3.1564912796,-0.358573973179,-0.105525411665,0.140584439039,0.855303347111,-0.331998318434
2017/07/09/10:20:10.752410,519542,1499566813,559269363,,0.70582014388,-0.0277846611685,0.195573562664,0.792319082065,0.595948159199,-0.128490189964,0.0238019920558,-0.0762884874699,-0.128396934526,-0.0420007678117,0.0925830079926,0.110736806024,-0.274996143584,3.38532519341,-0.324034333229,0.451668322086,0.18227481842,0.938373804092,-0.33397307992
2017/07/09/10:20:10.762429,519543,1499566813,569265124,,0.705175854104,-0.0290557235591,0.194525477229,0.793158407907,0.594835674717,-0.128642022596,0.0228361571471,-0.085859772226,-0.134285421253,-0.0405089934287,0.0685329613478,0.129306041991,-0.281681736228,2.8644528389,-0.321547031403,0.124970257282,0.0498287081718,0.69935554266,-0.31363350153
2017/07/09/10:20:10.772436,519544,1499566813,579267621,,0.704522936662,-0.0305932394815,0.194136047584,0.793749400402,0.594031031478,-0.128796273546,0.0223728166207,-0.0871633401562,-0.134832257012,-0.0473546231513,0.0795912845477,0.129393131271,-0.284299763448,3.03917098045,-0.661717474461,-0.50389701128,0.140982359648,0.727026641369,-0.30730175972
2017/07/09/10:20:10.782413,519545,1499566813,589265700,,0.703075579877,-0.032374593207,0.193487423027,0.794756755984,0.592557894745,-0.129550918825,0.0212931825697,-0.100849221535,-0.169243755189,-0.0520407775313,0.0515232134462,0.126151594815,-0.328889613773,2.91495776176,-0.256127595901,-0.736462116241,0.0473578870296,0.635378777981,-0.311247378588
2017/07/09/10:20:10.792528,519546,1499566813,599263402,,0.702515985794,-0.0338693075494,0.193189050027,0.795596645718,0.591455271754,-0.129491856402,0.0209403429088,-0.0823410651669,-0.145183839564,-0.0480948346559,0.069029786643,0.0903917883043,-0.270421649523,2.24186730385,-0.283521533012,-0.675042808056,-0.0420582592487,0.343187391758,-0.220581203699
2017/07/09/10:20:10.802306,519547,1499566813,609265719,,0.701384329844,-0.0351758398179,0.192333586736,0.796136510001,0.590603462766,-0.130210085416,0.0199885184164,-0.0967693000365,-0.162496617594,-0.0711960096549,0.0465642249428,0.116112726202,-0.291554044391,1.87277793884,-0.11927524209,-0.681418001652,-0.125875100493,0.204597920179,-0.185748815536
2017/07/09/10:20:10.812582,519548,1499566813,619269596,,0.700763468528,-0.036754229441,0.191553402276,0.797075011785,0.589386941699,-0.130063094977,0.0194435044989,-0.0819311598447,-0.168287165153,-0.0641539040501,0.0188766967415,0.0714764779581,-0.282170425375,1.12556409836,-0.10545770824,-0.718256115913,-0.160039693117,-0.0473713427782,-0.122799441218
2017/07/09/10:20:10.822539,519549,1499566813,629266862,,0.699902732948,-0.0383756757742,0.190493954493,0.797360287578,0.5889021679,-0.130579125934,0.0189710386193,-0.0875304349766,-0.180581481228,-0.0790285626254,0.0395762073866,0.0718718584159,-0.285224930441,1.07958638668,0.0410556197166,-0.708992242813,-0.191994398832,-0.0550535209477,-0.116687729955
2017/07/09/10:20:10.832304,519550,1499566813,639268029,,0.699159273432,-0.0396947793328,0.190229832762,0.798190490473,0.587827686975,-0.130418273758,0.0184831061871,-0.0704587283784,-0.144995366912,-0.0726547162481,0.0391415499856,0.0564377772584,-0.225791332108,0.307099938393,0.222798362374,-0.318830937147,-0.225555121899,-0.290688157082,-0.076340816915
2017/07/09/10:20:10.842819,519551,1499566813,649265070,,0.698610325009,-0.0415915456631,0.189493702524,0.799089638962,0.586607905766,-0.130425135358,0.0183356991505,-0.0888371436588,-0.155188988926,-0.081968354896,0.0664517734154,0.0774628400353,-0.24067917205,1.00158369541,0.179715186357,-0.0361987873912,-0.18660107255,-0.0788229480386,-0.129337593913
2017/07/09/10:20:10.852499,519552,1499566813,659262586,,0.696887029144,-0.0434503122062,0.188176755233,0.79964769517,0.585725573193,-0.13115218491,0.0169770701123,-0.09624001794,-0.148936273253,-0.0858699611771,0.0573026899541,0.100973276234,-0.244945213382,1.24210333824,-1.05603218079,-0.279275894165,0.0662972927094,0.195970565081,-0.238073721528
2017/07/09/10:20:10.862439,519553,1499566813,669271200,,0.696303855924,-0.0446523934163,0.187814799359,0.800329852446,0.584788494077,-0.131211972777,0.0166722127904,-0.105199786035,-0.163610514988,-0.0898923036994,0.0637185631302,0.102946667427,-0.283085289764,1.70111131668,-0.335557997227,0.0156365036964,0.0168879702687,0.285232007504,-0.229980200529
2017/07/09/10:20:10.872215,519554,1499566813,679265921,,0.695326854883,-0.0460542168507,0.187054851234,0.8010270646,0.58379804543,-0.131460384716,0.0159264302269,-0.0978123985527,-0.141259548955,-0.09252820324,0.0800820272776,0.111347218385,-0.257047614102,1.98268604279,-0.673372864723,0.359834611416,0.100226469338,0.384744942188,-0.255449861288
2017/07/09/10:20:10.882299,519555,1499566813,689261395,,0.694637253195,-0.046914859222,0.185832914065,0.80141470198,0.58324802195,-0.131642470564,0.0150492619652,-0.109025666647,-0.147207959144,-0.094872793753,0.0759206451257,0.137418183244,-0.242342937119,2.06419253349,-0.540612578392,0.00119072943926,0.11189262569,0.398140251637,-0.273848801851
2017/07/09/10:20:10.892318,519556,1499566813,699297546,,0.692840274136,-0.048485836952,0.184991684288,0.801995032317,0.582307580992,-0.132423778767,0.0136305566642,-0.106112460221,-0.152675565448,-0.0800585035181,0.0708021251817,0.113859762053,-0.25281397096,0.559676468372,-0.109773650765,-0.352807641029,-0.0329352766275,-0.0905492156744,-0.161028414965
2017/07/09/10:20:10.902502,519557,1499566813,709267924,,0.692386718259,-0.0501965314632,0.184266501325,0.802833125394,0.581255535798,-0.132007577891,0.0132277834002,-0.111146564543,-0.148197376629,-0.0943624037493,0.0668871750738,0.146243783546,-0.230710247907,2.11579799652,-0.27988833189,-0.236060917377,-0.0362677201629,0.413930773735,-0.28402736783
2017/07/09/10:20:10.912335,519558,1499566813,719263311,,0.691186075039,-0.0514280818943,0.183452150059,0.803501060786,0.580237978964,-0.132508024426,0.0123108304328,-0.111036054597,-0.164439419159,-0.0983687676742,0.0668767384697,0.134169413026,-0.25198904193,2.24400639534,-0.418508797884,-0.407413333654,0.052306316793,0.501933336258,-0.288620233536
2017/07/09/10:20:10.922331,519559,1499566813,729274091,,0.690454272269,-0.0529259030562,0.182611075969,0.803851205233,0.579677066504,-0.132876648332,0.011896837535,-0.106157149261,-0.157135279091,-0.0862414351396,0.059239431837,0.123178473846,-0.234699319102,1.61210370064,-0.38033080101,0.051168628037,0.0494487956166,0.262617617846,-0.242014244199
2017/07/09/10:20:10.932437,519560,1499566813,739269817,,0.689190315439,-0.054465987338,0.181420323927,0.803940051312,0.579404874269,-0.133601853283,0.0109968345285,-0.0945886302067,-0.14613585932,-0.0866094336744,0.0766862783759,0.107603019363,-0.193842496359,2.05953168869,-0.667532145977,-0.274638533592,0.0562129542232,0.477017432451,-0.305542171001
2017/07/09/10:20:10.942284,519561,1499566813,749263724,,0.688445231393,-0.0558893531716,0.180559820993,0.804726642971,0.578329455998,-0.13357371045,0.0103987640777,-0.0965656223402,-0.15780108888,-0.0926360289625,0.0730088284207,0.103118321059,-0.205640214837,1.41562771797,-0.651752591133,-0.302733391523,0.165640473366,0.198975756764,-0.234654188156
2017/07/09/10:20:10.952372,519562,1499566813,759262839,,0.687894164,-0.0571353672742,0.17949674751,0.80532626163,0.57754507611,-0.133393923181,0.0098670486531,-0.0977987007483,-0.154857379173,-0.0995082808863,0.0679846132005,0.102130269549,-0.22625203808,2.00334954262,-0.593299746513,-1.05885446072,0.0903573259711,0.478715211153,-0.307618021965
2017/07/09/10:20:10.962524,519563,1499566813,769268582,,0.686953155029,-0.0579453754669,0.178432288511,0.805722083416,0.576963154116,-0.133595762262,0.00880995986503,-0.0921018638387,-0.160961474631,-0.101199193129,0.065063730336,0.0695252926707,-0.268642531025,1.3394715786,0.248319417238,-0.857111692429,0.0387215539813,0.119474537671,-0.18542778492
2017/07/09/10:20:10.972440,519564,1499566813,779277328,,0.68635745242,-0.0604943030917,0.177854583575,0.806756037586,0.575624581258,-0.133125545592,0.00886715178102,-0.056256879366,-0.145887549663,-0.090692883493,0.0619386690534,-0.00333046236839,-0.234002972176,0.591917097569,-0.618057250977,-0.275494784117,0.0886674970388,-0.109978951514,-0.180988043547
2017/07/09/10:20:10.982403,519565,1499566813,789269722,,0.685913761413,-0.0611770527927,0.176854925571,0.806974191407,0.575235455272,-0.133498993301,0.00865125354213,-0.0563366071096,-0.16390797966,-0.0829220967456,0.0300143209524,-0.0206121255867,-0.236809072973,0.231915995479,0.0518171191216,-0.427388072014,-0.0819599255919,-0.262251585722,-0.140442177653
2017/07/09/10:20:10.992467,519566,1499566813,799262298,,0.68562134013,-0.0632471405506,0.176010252193,0.807984641891,0.573933580874,-0.132980876432,0.00878349111684,-0.0609146453301,-0.151967309438,-0.0936047580248,0.0315199814636,0.00578025769481,-0.220024622782,1.17880773544,-0.636967182159,-0.264891326427,0.0758889093995,0.112416341901,-0.243775725365
2017/07/09/10:20:11.002335,519567,1499566813,809269630,,0.684408528681,-0.0647887901736,0.175238229306,0.808588420884,0.573033483946,-0.133240448218,0.00802339380368,-0.0531348962331,-0.128177412213,-0.107797989747,0.0526955810452,0.0114357201934,-0.201109502689,1.54581737518,-0.440332591534,-0.0497023463249,0.0819203704596,0.232065677643,-0.281762361526
2017/07/09/10:20:11.012522,519568,1499566813,819270501,,0.68389091315,-0.0668477733563,0.174193259325,0.809357319936,0.571927603383,-0.133320662928,0.00807130664754,-0.0539942665784,-0.140118127425,-0.0972306128787,0.0480180994233,-0.00476504459633,-0.206935019884,0.930142343044,-0.780156731606,-0.226627230644,0.0270539373159,0.0681644454598,-0.25945019722
2017/07/09/10:20:11.022423,519569,1499566813,829293695,,0.683937971432,-0.0671084426524,0.172950667479,0.809507013331,0.571919133843,-0.13248191927,0.00744585644097,-0.0524934828436,-0.153414262769,-0.0906641884756,0.0226408759385,-0.0180806249179,-0.208209304045,0.847262620926,-0.207022577524,-0.0672801733017,0.0464805215597,-0.084317535162,-0.215795397758
2017/07/09/10:20:11.032516,519570,1499566813,839270638,,0.683473766519,-0.069160652345,0.172316813909,0.810336387342,0.570756217622,-0.132409583844,0.00774477251199,-0.0565671459014,-0.159398279096,-0.098445989136,0.0415703245194,-0.0187026224349,-0.203481463097,0.867380857468,-0.706403493881,0.199163377285,0.172736763954,-0.0984611362219,-0.214902371168
2017/07/09/10:20:11.042522,519571,1499566813,849270092,,0.683171560655,-0.0697659240585,0.171266843592,0.81039672278,0.570679034819,-0.132391014515,0.00743035680985,-0.0351524337901,-0.136130388229,-0.101352172703,0.0370590685686,-0.0385915554584,-0.156930737083,1.16256737709,0.295416235924,-0.0874428749084,-0.0130638629198,0.122291721404,-0.241143345833
2017/07/09/10:20:11.052541,519572,1499566813,859272082,,0.683048215072,-0.0713735188878,0.170420271744,0.81138599522,0.569483538257,-0.131475840741,0.00744108304314,-0.0247426349559,-0.162022778117,-0.10422526275,0.0125368444472,-0.0892884646083,-0.18100664551,1.07235586643,-0.189428180456,0.268579542637,0.0956633090973,0.191583961248,-0.312282800674
2017/07/09/10:20:11.062567,519573,1499566813,869271460,,0.682995579596,-0.0728504578132,0.169682623071,0.811739615899,0.568934825334,-0.131639002058,0.00794566797361,-0.0196043760292,-0.146501338638,-0.0947902583162,-0.000499365685812,-0.0855795238615,-0.19110275634,0.918417274952,0.115029901266,0.987308263779,0.148954182863,0.178534299135,-0.253622770309
2017/07/09/10:20:11.072253,519574,1499566813,879271065,,0.682388023477,-0.0736999296226,0.168481685155,0.812065304681,0.568591127843,-0.131168170701,0.00699866181629,-0.0414657234911,-0.137599532931,-0.0975817775834,0.0335837169035,-0.0342911590162,-0.196930878731,0.899377346039,-0.0852980315685,0.659725606441,0.190374910831,0.32735490799,-0.32527077198
2017/07/09/10:20:11.082290,519575,1499566813,889265573,,0.681530262148,-0.0755447228907,0.168081707359,0.812965691016,0.567262798163,-0.131347497413,0.00689477877119,-0.0580942960238,-0.131197188332,-0.0890933813629,0.0511431184584,0.0114436604616,-0.202005696432,-0.51439011097,-0.129736036062,0.769241213799,0.143636465073,-0.14142742753,-0.239883586764
2017/07/09/10:20:11.092521,519576,1499566813,899267014,,0.680919436242,-0.0759876054217,0.167275692634,0.813391210611,0.566675634588,-0.131292657363,0.00597509725051,-0.0811824076891,-0.127802665127,-0.0834176306858,0.0690656417427,0.0678183762084,-0.197019200623,-1.14358234406,0.69157409668,0.327431857586,-0.108443059027,-0.468992710114,-0.167579948902
2017/07/09/10:20:11.102223,519577,1499566813,909277763,,0.680502368346,-0.0770714246866,0.166778730748,0.813550054317,0.566433739906,-0.131355968939,0.00589379691161,-0.0711941840116,-0.0997729835866,-0.0752537090564,0.0888362202329,0.0637330359525,-0.179985323796,-0.575517117977,0.506518602371,0.159774050117,-0.0799170359969,-0.288638025522,-0.225917935371
2017/07/09/10:20:11.112225,519578,1499566813,919263648,,0.679215674638,-0.0775562795235,0.165034882491,0.813799627017,0.565995408658,-0.131764528049,0.00418014270878,-0.0664233976048,-0.0893317417803,-0.0729779040901,0.0640376169698,0.0687920356757,-0.157028623325,-0.832923531532,0.452789187431,-0.538361668587,-0.170992195606,-0.321078330278,-0.213073953986
2017/07/09/10:20:11.122272,519579,1499566813,929263096,,0.678301878839,-0.0795677119895,0.164805016404,0.814723906496,0.56458651414,-0.132096384075,0.00419160458998,-0.0870200088935,-0.113605352841,-0.0826456356436,0.0711811386403,0.0922718007082,-0.173602122325,-1.00378537178,0.0294186472893,-0.441758394241,-0.0573476999998,-0.431227087975,-0.207449927926
2017/07/09/10:20:11.132308,519580,1499566813,939267877,,0.67751246902,-0.0809039230863,0.164114380019,0.815227550783,0.563735307975,-0.132628474805,0.00402872908514,-0.0847372840555,-0.103675049955,-0.0819853916763,0.0573248778077,0.0971210384302,-0.181499990396,-1.03317952156,0.248740375042,-0.334149301052,-0.14649450779,-0.508216679096,-0.165584370494
2017/07/09/10:20:11.142297,519581,1499566813,949282427,,0.677220960445,-0.0809833794118,0.163482124931,0.815291717337,0.563736480964,-0.132248163997,0.00331945657855,-0.0782800011346,-0.102818526093,-0.0886219338387,0.0509582145944,0.0891131573144,-0.177433080392,0.850010335445,0.706229388714,0.142501845956,-0.17111967504,0.222480982542,-0.326323747635
2017/07/09/10:20:11.152270,519582,1499566813,959264479,,0.676297165096,-0.0822181200097,0.162487428925,0.81559676884,0.563223822883,-0.132566545332,0.0026357263179,-0.0539718735144,-0.0843954789891,-0.0779982892891,0.0552527042449,0.0444861229791,-0.132342800945,-0.128314957023,0.250604480505,0.14142845571,-0.0233190357685,-0.0807976126671,-0.247976481915
2017/07/09/10:20:11.162348,519583,1499566813,969263096,,0.675613777648,-0.0831168124711,0.161702695967,0.816157873933,0.562390910587,-0.132658815197,0.00210410479139,-0.0576467469416,-0.08254004997,-0.0772916088304,0.068494120428,0.0527569431185,-0.133201084534,-0.805817842484,0.261066317558,0.0265575945377,-0.0247304141521,-0.291209578514,-0.216938972473
2017/07/09/10:20:11.172372,519584,1499566813,979269706,,0.675279076209,-0.0840767837242,0.161046573768,0.816471389044,0.561965320006,-0.132536323138,0.00189024635843,-0.0678305120819,-0.0859006757884,-0.095328420014,0.0843597107045,0.0796512562104,-0.136825191192,-0.637946784496,-0.165131241083,0.294996500015,0.0247497409582,-0.146487757564,-0.271870791912
2017/07/09/10:20:11.182496,519585,1499566813,989268953,,0.67444577952,-0.085010935219,0.159722547284,0.816605289888,0.561738884176,-0.132680805189,0.0010151189727,-0.0769950654917,-0.0960522498839,-0.0978445748632,0.0758607333147,0.0928916281463,-0.150077002862,-1.06297945976,-0.16928884387,0.194954305887,0.0429952591658,-0.269474804401,-0.219700992107
2017/07/09/10:20:11.192591,519586,1499566813,999269374,,0.674181711508,-0.0851246338888,0.159183724429,0.816741779511,0.561549915018,-0.132643958033,0.000372749364494,-0.0593702001344,-0.0757457332674,-0.0722913637564,0.0934749685095,0.055538250089,-0.100305445191,-1.19174051285,0.988351583481,-0.0326067358255,-0.193649232388,-0.4211769104,-0.159878581762
2017/07/09/10:20:11.202341,519587,1499566814,9267781,,0.6737965671,-0.0857081647522,0.15853072143,0.816716361476,0.561551237563,-0.132795251452,0.000116965753611,-0.0309735512877,-0.0402061674605,-0.0734092613072,0.0913699329742,0.0424384903753,-0.0218078816716,-1.89849793911,0.679257035255,0.236149221659,-0.227352946997,-0.606560349464,-0.113570764661
2017/07/09/10:20:11.212290,519588,1499566814,19277833,,0.673505491366,-0.0862883997911,0.158424096319,0.81714703532,0.561087600226,-0.132103528995,-0.000291833395373,-0.0622603157302,-0.0792616970067,-0.0738773313686,0.0701319915474,0.0707273780855,-0.0769856234469,-1.1980676651,0.506528675556,0.274220913649,-0.0629854798317,-0.425399959087,-0.177582576871
2017/07/09/10:20:11.222592,519589,1499566814,29265154,,0.672822246125,-0.0866671341561,0.157248290145,0.816912831064,0.561303100791,-0.132630667003,-0.0011669001251,-0.0370423197055,-0.0465985022933,-0.0688685032645,0.102427419311,0.0389360198937,-0.0121250611169,-0.907624185085,0.467892497778,0.305298566818,-0.0210459977388,-0.434067130089,-0.141244113445
2017/07/09/10:20:11.232595,519590,1499566814,39266766,,0.671589633669,-0.0885117314726,0.156654931748,0.817402958462,0.560490246301,-0.133043632309,-0.00157454773403,-0.0431209030867,-0.0648439771982,-0.0632410762736,0.0928624885609,0.0345399324345,-0.0231496919047,-1.31906843185,-0.4559289217,-0.253709465265,0.144422769547,-0.467923998833,-0.141913726926
2017/07/09/10:20:11.242653,519591,1499566814,49263354,,0.672185964965,-0.08814040738,0.156156661882,0.816857446066,0.56146031939,-0.132299514537,-0.00174957423109,-0.0524875522341,-0.0948956750301,-0.0542378082079,0.0643127223269,0.0323748107439,-0.050071568755,-1.11413431168,0.579149842262,-0.0358890332282,-0.0396036729217,-0.517461538315,-0.0848737061024
2017/07/09/10:20:11.252537,519592,1499566814,59269808,,0.672048120579,-0.0888077149885,0.155536179589,0.817303705122,0.560835690808,-0.132192337239,-0.00177974292222,-0.0337730629275,-0.0527128122942,-0.0597404618585,0.0747671700574,0.0318057669153,-0.00535781814947,-0.816697120667,0.503827810287,0.0416706204414,-0.107441015542,-0.500678241253,-0.0572957545519
2017/07/09/10:20:11.262211,519593,1499566814,69264178,,0.671343784189,-0.0890752662536,0.154521467955,0.817332240499,0.560718250898,-0.132500261929,-0.00259467537711,-0.0289361461309,-0.0624464740681,-0.0709601184415,0.0196626654835,0.0232446952952,-0.0462417038922,-1.02023541927,0.35677832365,-0.410444796085,-0.0685315579176,-0.443478286266,-0.101896010339
2017/07/09/10:20:11.272576,519594,1499566814,79269398,,0.671304328615,-0.0900297505154,0.154109900619,0.817649235917,0.560298440406,-0.132325466022,-0.00231424397562,-0.0332968883498,-0.074665932174,-0.0787020288884,0.0232175086735,0.00943979907129,-0.111580524034,-0.0340017601848,0.414624154568,0.205915302038,-0.00474142283201,-0.0775791555643,-0.143782496452
2017/07/09/10:20:11.282625,519595,1499566814,89261382,,0.671437430609,-0.0899156634997,0.153422395909,0.817782985397,0.560221325038,-0.131819436197,-0.00258689189143,-0.00793649585014,-0.0542754589275,-0.0712013689058,0.0367617631683,-0.0333927182261,-0.0799420599796,-1.0617518425,0.874846100807,0.14708557725,-0.0625439509749,-0.443472355604,-0.0785892754793
2017/07/09/10:20:11.292301,519596,1499566814,99269699,,0.671103301946,-0.0908319657251,0.152756397837,0.817836243502,0.560142402756,-0.13182036907,-0.00278527334044,-0.00851657072698,-0.066533117876,-0.0618314593563,0.00973790583996,-0.0366596150085,-0.0742598485749,-0.980367481709,0.273655772209,0.075407795608,0.0365867167711,-0.305906355381,-0.129723444581
2017/07/09/10:20:11.302489,519597,1499566814,109267850,,0.67129308101,-0.0914320503943,0.152234119428,0.818084690161,0.559789757839,-0.131786499708,-0.00227711167193,-0.00669250686119,-0.0585832468037,-0.0557713767435,0.0169259801866,-0.0337649797134,-0.074230613929,-1.57086348534,0.577205657959,0.00357869267464,-0.11918836832,-0.561312317848,-0.0674927383661
2017/07/09/10:20:11.312147,519598,1499566814,119265393,,0.670916266367,-0.0925934577178,0.15180259278,0.818435117816,0.559264052203,-0.131843815168,-0.00221048416494,-0.0157311033213,-0.0724600701847,-0.0576055122441,-0.0170429234775,-0.0148668726792,-0.0820412251051,-2.04329204559,0.854590117931,0.0137885957956,-0.249604195356,-0.775499880314,-0.00104628503323
2017/07/09/10:20:11.322255,519599,1499566814,129265751,,0.670886531533,-0.0925424875235,0.151162122934,0.81850071161,0.559192916247,-0.131734155604,-0.0024453548433,-0.0139998086117,-0.0647281759524,-0.054196266882,0.00526585298168,-0.0237215075575,-0.0677451553459,-1.77890241146,1.21355164051,-0.19542235136,-0.408741921186,-0.694635748863,0.0447441115975
2017/07/09/10:20:11.332385,519600,1499566814,139272456,,0.670781483477,-0.0937239120945,0.150615412729,0.818692060823,0.558932433176,-0.13165473443,-0.00220807423348,-0.00661256230687,-0.0305660770361,-0.067033666344,0.0189261386037,0.00340720149338,-0.0258920249106,-0.67028260231,0.579992592335,-0.609393835068,-0.223331704736,-0.287209123373,-0.0469682142138
2017/07/09/10:20:11.342268,519601,1499566814,149264015,,0.670394989946,-0.0938364870562,0.149946209726,0.818556079538,0.559032687781,-0.132068405805,-0.00251690908786,-0.0106170521627,-0.0544780708377,-0.063560917531,0.00672566059095,-0.00985250961897,-0.0198627857525,-1.23237133026,0.65551674366,-0.410995811224,-0.190536156297,-0.458331972361,0.0709277540445
2017/07/09/10:20:11.352158,519602,1499566814,159261739,,0.670932048426,-0.0938923313438,0.149271776279,0.818255233636,0.559555764096,-0.131721407259,-0.00227823706537,-0.0105186581581,-0.0829927861824,-0.0539380982367,-0.0410568995905,-0.0139115288925,0.00345722633206,-1.16964864731,0.812162816525,-0.664624631405,-0.23369294405,-0.491290330887,0.0630741938949
2017/07/09/10:20:11.362415,519603,1499566814,169264565,,0.670277633355,-0.0947442965935,0.148579856088,0.818121480428,0.559681936247,-0.132010086723,-0.00259046405257,-0.00408439170564,-0.0582930568649,-0.0652538684976,-0.0292286112897,0.0102754245594,0.0701577984113,-1.29891216755,0.629134476185,-0.685986101627,-0.129909008741,-0.527958929539,0.0760788917542
2017/07/09/10:20:11.372513,519604,1499566814,179268621,,0.669947092077,-0.0962701106167,0.14832314819,0.818477954006,0.559104349477,-0.13225572944,-0.00214178269865,-0.0112187543472,-0.0597512347146,-0.0539604170204,-0.0564205830821,0.0269718092625,0.0572901545424,-1.25186753273,0.0754708722234,-0.237682044506,-0.0561117008328,-0.486899673939,0.0508906319737
2017/07/09/10:20:11.382738,519605,1499566814,189263953,,0.669858063217,-0.0970220229563,0.147687111863,0.818780638554,0.558644324888,-0.132331176936,-0.00180105803829,-0.0149700587245,-0.0880650310567,-0.0475189582448,-0.0828202655778,0.00956989427765,-0.000931824922181,-1.36775422096,0.21980035305,-0.35932096839,-0.0532824210823,-0.53981590271,0.0126593410969
2017/07/09/10:20:11.392493,519606,1499566814,199263566,,0.669951924909,-0.0967670280711,0.147183813848,0.818066980755,0.559515895765,-0.133062715499,-0.00164046621098,-0.018451823715,-0.0734324355815,-0.0543194566817,-0.0759894847894,0.0292053083819,-0.016334684762,-0.376826584339,0.848463177681,-0.267683416605,-0.166475504637,-0.266920030117,-0.00872628483921
2017/07/09/10:20:11.402553,519607,1499566814,209269093,,0.669718353462,-0.0987176747687,0.147033779463,0.818674157532,0.558686692655,-0.132818249242,-0.00105636552781,-0.0127507322905,-0.0682363811513,-0.0517387362361,-0.0669265938271,0.00851220370542,-0.0333313319956,-0.34474414587,-0.0211509428918,-0.534322798252,-0.0676959007978,-0.167358696461,-0.0389225073159
2017/07/09/10:20:11.412406,519608,1499566814,219268836,,0.669699676833,-0.0987027749071,0.146400037034,0.818684690426,0.558568824799,-0.133249156508,-0.000952845749627,-0.0358766442626,-0.0814721151771,-0.0574955044702,-0.0656211153054,0.0471664238276,-0.0656572494215,-0.193754464388,0.654456555843,-0.26310005784,-0.153388649225,-0.272469758987,0.023028338328
2017/07/09/10:20:11.422255,519609,1499566814,229266703,,0.669482314252,-0.0982881227561,0.145618225123,0.81801357075,0.559362835382,-0.134034985079,-0.00128032677264,-0.0163104455267,-0.0508386476234,-0.0528532848512,-0.0678345026533,0.0462985548832,-0.00439994370075,0.674521207809,0.830995023251,-0.815107047558,-0.158565610647,0.116078019142,-0.0725027397275
2017/07/09/10:20:11.432513,519610,1499566814,239266498,,0.669183640516,-0.0995655198425,0.145126606001,0.818391839005,0.558763742935,-0.134226795208,-0.00102219367063,-0.0225183866787,-0.0544360276443,-0.0569139041913,-0.0489118847438,0.0567856781266,0.0142197481229,-0.0151133723557,0.490129470825,-0.501095473766,-0.169087544084,-0.114062294364,-0.028877178207
2017/07/09/10:20:11.442545,519611,1499566814,249263768,,0.668528779163,-0.100783050482,0.145011849321,0.818495010258,0.558453059932,-0.134890421218,-0.000819938905196,-0.0359031925186,-0.0828646969041,-0.0455588699207,-0.0838484460282,0.0535842959266,-0.037492925531,-0.396965026855,0.477878451347,-0.491202682257,-0.0713128224015,-0.297470331192,0.00648086704314
2017/07/09/10:20:11.452483,519612,1499566814,259269929,,0.668470351747,-0.101068959863,0.144494575626,0.818469607771,0.558374940943,-0.135368577484,-0.000524130103309,-0.0211951743347,-0.0376968004359,-0.0500646413919,-0.0531084280111,0.0678043440181,0.0102959978758,-0.214060336351,0.490164458752,-0.29631665349,-0.0400273688138,-0.269237518311,-0.0218600202352
2017/07/09/10:20:11.462405,519613,1499566814,269267741,,0.667758129879,-0.101932604887,0.143890289166,0.818688894588,0.557920129927,-0.135915787101,-0.000722023111811,-0.0195731553709,-0.0473986547765,-0.0440220215097,-0.0773546772358,0.0571567432017,-0.00318493691053,0.0808068662882,0.0531106442213,-0.381262242794,0.059178173542,-0.0468486994505,-0.0737958773971
2017/07/09/10:20:11.472408,519614,1499566814,279269548,,0.668049654873,-0.102048070741,0.143664288487,0.818357518836,0.558309793081,-0.136312475871,-0.000235023182649,-0.0415594662261,-0.096009334827,-0.0348707553699,-0.112082183528,0.0690161038883,-0.0468858395567,1.26016426086,0.243155151606,-0.215229228139,0.0772193521261,0.317262977362,-0.158529162407
2017/07/09/10:20:11.482326,519615,1499566814,289263165,,0.667866020295,-0.102538847393,0.143088870587,0.818406337793,0.558167468111,-0.136601896429,-0.000256309066958,-0.0270535536143,-0.0608956040195,-0.0335089333644,-0.097939416186,0.0678081600307,-0.00882966725474,0.676121473312,0.577081143856,-0.23673991859,-0.0346528142691,0.127663701773,-0.0824841707945
2017/07/09/10:20:11.492247,519616,1499566814,299284782,,0.66683405307,-0.103479980365,0.142761243863,0.818306749252,0.558002597382,-0.137866009007,-0.000359172573855,-0.0114092434232,-0.0406416946915,-0.0346002530614,-0.0810171452036,0.0507678691733,0.0220282569228,0.288659691811,0.114894837141,0.0434236489236,0.0327225700021,0.147725656629,-0.13418443501
2017/07/09/10:20:11.502243,519617,1499566814,309263024,,0.666693823182,-0.104219345827,0.142840193858,0.81850082909,0.557670611722,-0.13805750473,8.36001890401e-05,-0.0417629037803,-0.0691835674241,-0.0374261813087,-0.0821155396426,0.0875130553793,-0.0099646101322,-0.387498855591,0.126339703798,-0.0287605505437,0.0665471702814,-0.126658052206,-0.0705558657646
2017/07/09/10:20:11.512397,519618,1499566814,319269389,,0.666764351211,-0.104868652066,0.142360139094,0.818542441999,0.557626841856,-0.137987346991,0.000260686981427,-0.0288614496926,-0.0637036639587,-0.0300195633784,-0.081322888562,0.0585697858954,-0.032836573087,-0.731241226196,0.188978582621,0.171634212136,0.0180173330009,-0.211380451918,-0.0398244559765
2017/07/09/10:20:11.522660,519619,1499566814,329269440,,0.666491036774,-0.104512352526,0.141409634954,0.818139085309,0.558103221501,-0.138452705587,-0.000282057223225,-0.0229909831319,-0.0392680803834,-0.0467676266267,-0.0611848604536,0.0772254930365,0.0194325185713,-0.456631869078,0.481463670731,0.00943129882216,-0.0377268120646,-0.0701689273119,-0.081237077713
2017/07/09/10:20:11.532418,519620,1499566814,339268327,,0.666596800895,-0.105534984462,0.14142973619,0.818377275217,0.557671839901,-0.138781881623,0.000586278247245,-0.0135187303159,-0.0443980920587,-0.0325377839513,-0.0777343074776,0.0503761819002,0.0239239057915,-0.398169964552,0.143084064126,0.121566414833,0.0641119480133,-0.00941697135568,-0.117546573281
2017/07/09/10:20:11.542614,519621,1499566814,349264409,,0.66624419555,-0.105831250433,0.141038000624,0.818125040801,0.557922134116,-0.139262400862,0.000541834571245,-0.0164833641385,-0.043878535021,-0.0459563114691,-0.0695948607553,0.0538562261107,0.0235778088235,-0.0824632719159,0.456615149975,0.136689409614,0.000327222049236,0.1037581563,-0.123127937317
2017/07/09/10:20:11.552400,519622,1499566814,359270500,,0.666471056996,-0.10631988432,0.140755600111,0.818328950554,0.557628805355,-0.139236949843,0.000957038661674,-0.0123082901837,-0.0545877001633,-0.0310591184959,-0.07434986414,0.0208942513534,-0.00727201344519,-0.503071784973,0.259255468845,0.356645226479,0.00510165840387,-0.112079679966,-0.0754208266735
2017/07/09/10:20:11.562466,519623,1499566814,369266027,,0.666294966153,-0.106382336502,0.140674720356,0.818360768924,0.557518309513,-0.139492160174,0.000961089721243,0.00590369296553,-0.0348906551579,-0.0275887372842,-0.0759925961588,0.000498028238295,0.0278921811695,-0.197396725416,0.459898412228,0.252814680338,-0.00776358693838,-0.0206506550312,-0.09302585572
2017/07/09/10:20:11.572489,519624,1499566814,379266534,,0.666893002762,-0.106442696359,0.140234169794,0.81805264261,0.558003076048,-0.139355629031,0.00156515080948,0.0133635199614,-0.0258822006579,-0.0407793738754,-0.0594734043532,-0.0073919284301,0.0413101269842,0.661100327969,0.335192471743,0.17094039917,0.0370568558574,0.229556068778,-0.15898168087
2017/07/09/10:20:11.582444,519625,1499566814,389271906,,0.666886092518,-0.107516027206,0.139951876,0.818154876578,0.557844593967,-0.139381685398,0.00218006645897,0.0265099039765,-0.0355671803346,-0.0335354471448,-0.0700452989239,-0.0573180770877,0.0219532469409,0.684694290161,-0.381212830544,-0.0428234189749,0.249464184046,0.267478168011,-0.218605607748
2017/07/09/10:20:11.592400,519626,1499566814,399270551,,0.666678568873,-0.107844995364,0.139159833218,0.818209039602,0.557703597222,-0.139630061352,0.00202759119762,0.0198845071924,-0.031493153923,-0.0449265517106,-0.0419264578584,-0.0467747150162,0.0123502030928,0.229901120067,-0.0191562771797,-0.237059384584,0.176183074713,0.0914831608534,-0.145661741495
2017/07/09/10:20:11.602494,519627,1499566814,409265073,,0.667913757337,-0.107387511311,0.138946597025,0.817998566794,0.558195358922,-0.13888171341,0.00285581515495,0.0230599105518,-0.0450607114958,-0.0361200464754,-0.0616248998314,-0.0571824661983,0.0313200919443,-0.0178205780685,0.565616607666,-0.118535339832,-0.0138569772243,-0.0828378275037,-0.0799083933234
2017/07/09/10:20:11.612534,519628,1499566814,419270418,,0.667804305973,-0.108348327287,0.138678700474,0.817892418978,0.558244672625,-0.139295138168,0.00342650663071,0.0324232603136,-0.0284435391178,-0.0510264574228,-0.0461990495089,-0.0692189810948,0.0423143097348,0.0524179041386,0.21022118628,0.186316505075,0.0452699549496,-0.0713996291161,-0.0866731926799
2017/07/09/10:20:11.622634,519629,1499566814,429264743,,0.668049829337,-0.107959452789,0.137661372351,0.817589929145,0.558728910238,-0.13913358257,0.0032494349102,0.0431688784226,-0.0350358080158,-0.0392479867366,-0.0750989121136,-0.0907120210544,0.0605765485925,-0.246383354068,0.520193576813,-0.355576246977,-0.0614489354193,-0.138984650373,-0.0487665981054
2017/07/09/10:20:11.632582,519630,1499566814,439275871,,0.668842473984,-0.108852761092,0.13820282511,0.817806160717,0.558505938211,-0.138712983409,0.00478630447849,0.0336664087169,-0.0361533393847,-0.0416078549288,-0.0728499023472,-0.0692620775248,0.0461305489181,-0.0588979944587,0.343302816153,0.33399900794,0.0560986474156,-0.145698010921,-0.0891158208251
2017/07/09/10:20:11.642485,519631,1499566814,449266239,,0.669545471519,-0.108658145481,0.137759060548,0.817549251898,0.558976803873,-0.138310911439,0.00531462421098,0.0404166136977,-0.0391133404949,-0.0199627706445,-0.0798878958852,-0.109521664259,0.0161246920672,0.672378063202,0.0868608951569,0.318319767714,0.194789037108,0.0993447750807,-0.134266376495
2017/07/09/10:20:11.652189,519632,1499566814,459267711,,0.670000021759,-0.108749298257,0.137356146753,0.817526887761,0.559115176269,-0.137873244604,0.00556559755701,0.0466923064163,-0.0360747810326,-0.0288429504378,-0.0644267199925,-0.120845234656,0.0335529185666,1.17291593552,0.427306294441,0.0986153930426,0.147481322289,0.234358638525,-0.148041605949
2017/07/09/10:20:11.662428,519633,1499566814,469262941,,0.670035101335,-0.109127672251,0.137090983612,0.817432980332,0.559220861041,-0.137990951619,0.00581794751294,0.0583868538552,-0.0211832813482,-0.0359533672125,-0.07094213766,-0.120665753768,0.0599629130835,1.97113096714,-0.0362785607576,-0.27845749259,0.188051700592,0.596592664719,-0.260192364454
2017/07/09/10:20:11.672529,519634,1499566814,479262562,,0.670432207282,-0.109335235879,0.136135389463,0.817562698511,0.559120710155,-0.137613671466,0.00614352546126,0.0424490435361,-0.0257110503733,-0.0464602337107,-0.0577984674948,-0.0818458544786,0.0599576087054,1.67230606079,-0.851439237595,-0.80895447731,0.357371002436,0.571903407574,-0.249678358436
2017/07/09/10:20:11.682333,519635,1499566814,489266373,,0.67080027174,-0.110340203388,0.135775331028,0.817473121597,0.559231426624,-0.137649912857,0.00709988964218,0.0352271439141,-0.0404520814394,-0.0505534548106,-0.0535131302855,-0.0929531292784,0.0144394236525,1.06100845337,-0.772384047508,-0.349143207073,0.365564107895,0.303110688925,-0.224644213915
2017/07/09/10:20:11.692382,519636,1499566814,499263039,,0.67103032339,-0.110970701875,0.135631318971,0.817781060232,0.55882765098,-0.137427322882,0.00771524157787,0.0474456350295,-0.0447196607279,-0.0460192310321,-0.0533814317164,-0.130700237319,-0.0109928806552,0.90538084507,-0.165670916438,-0.0408629998565,0.238565146923,0.176795721054,-0.147590458393
2017/07/09/10:20:11.702561,519637,1499566814,509265264,,0.670955433445,-0.110844017666,0.135107145836,0.817660123136,0.558995124023,-0.137474987693,0.00754997421334,0.0555391035938,-0.01632328932,-0.0438056799153,-0.0353905971875,-0.127391301274,0.040963906513,-0.251522690058,-0.204487711191,-0.0601484067738,0.223041772842,-0.172988176346,-0.122162848711
2017/07/09/10:20:11.712562,519638,1499566814,519267972,,0.67273452348,-0.110458239465,0.135183738053,0.817435255855,0.55962775375,-0.136154975193,0.00884321484469,0.055227266329,-0.0290352993686,-0.0370235177027,-0.058733403324,-0.125031015803,0.0441133125366,1.02766001225,0.298947095871,0.394700467587,0.1469399333,0.162040188909,-0.159952476621
2017/07/09/10:20:11.722462,519639,1499566814,529276334,,0.673000883256,-0.110936761559,0.134502872118,0.817613724664,0.559414597554,-0.135937506719,0.0091705807613,0.0682183049673,-0.014842697809,-0.0427473300352,-0.0497843572206,-0.141542218135,0.0787666439302,1.33557188511,-0.0771409869194,0.0370917804539,0.199043542147,0.369911521673,-0.19990336895
2017/07/09/10:20:11.732392,519640,1499566814,539269855,,0.672671836469,-0.111690648233,0.133854637853,0.817768783892,0.559143244119,-0.136117237426,0.00922747652743,0.0444692130409,-0.0348768499908,-0.0424766477032,-0.0415845823997,-0.116887746288,0.0245303709783,1.50243782997,-0.691737532616,0.062277879566,0.345044672489,0.497325748205,-0.259063482285
2017/07/09/10:20:11.742335,519641,1499566814,549262384,,0.673221597839,-0.111550074734,0.133512753579,0.817397774173,0.559804596343,-0.135601412437,0.00958903725567,0.0301934903816,-0.0293246866098,-0.0413453949671,-0.0259823243444,-0.0912219918309,0.00743280162818,2.33122897148,-0.722059488297,0.0578436553478,0.436813026667,0.737138926983,-0.287946224213
2017/07/09/10:20:11.752521,519642,1499566814,559269783,,0.673642839516,-0.111611458694,0.133119012964,0.817009577326,0.560329040259,-0.135732802806,0.0101648139432,0.0314811015169,-0.0297583792142,-0.0441746874117,-0.0495669667019,-0.0761593026793,0.046258866801,1.80296885967,-0.382597237825,-0.127510458231,0.277064174414,0.559284567833,-0.246506109834
2017/07/09/10:20:11.762214,519643,1499566814,569263661,,0.673978189153,-0.11175081807,0.132366594594,0.816888648339,0.560558033901,-0.135499907119,0.0103634943597,0.0257017067636,-0.0247718371355,-0.044481425173,-0.0603339165998,-0.0411534197869,0.0503159294012,2.07293510437,-0.915987253189,-0.182784751058,0.391075789928,0.671904981136,-0.276257008314
2017/07/09/10:20:11.772216,519644,1499566814,579262523,,0.674467237812,-0.112266437261,0.132348333601,0.817079627487,0.56037754029,-0.135039392434,0.0110569966683,0.0338190633692,-0.01422925198,-0.0413928271554,-0.0486405321582,-0.0499936435509,0.0673741180453,2.25876164436,-0.508878350258,0.106352448463,0.342731833458,0.651822805405,-0.274109303951
2017/07/09/10:20:11.782147,519645,1499566814,589275595,,0.674430210361,-0.112576133833,0.131896053524,0.817042395116,0.560302102128,-0.135538652195,0.0115131531442,0.0316165633464,-0.0385399844962,-0.0353692570961,-0.05924018775,-0.0732968399477,0.0353630111887,2.95413398743,-0.781526565552,-0.0965659916401,0.495599091053,0.961088061333,-0.350699514151
2017/07/09/10:20:11.792496,519646,1499566814,599269691,,0.674966739432,-0.113596073118,0.131904556712,0.817228050965,0.560056240361,-0.135347062333,0.0125097188475,0.0253981247718,-0.0502696529564,-0.0258507770335,-0.0612543584816,-0.0922637331065,-0.0230381070264,2.89435172081,-1.03259301186,-0.324177205563,0.499015778303,0.927023947239,-0.373560875654
2017/07/09/10:20:11.802413,519647,1499566814,609276709,,0.675403839688,-0.113658918865,0.131949267775,0.81735522359,0.560015975548,-0.134720552419,0.0127639475211,0.0246364674381,-0.0454827714332,-0.0272909893811,-0.0666414073455,-0.0675115581478,0.0107294262195,2.96553850174,-0.990947127342,0.089009732008,0.485493957996,0.917839348316,-0.39412021637
2017/07/09/10:20:11.812474,519648,1499566814,619265354,,0.675161544875,-0.113311674736,0.130719612222,0.81698292127,0.560506221009,-0.134998791572,0.0121247200984,0.0212521135806,-0.0431864884958,-0.0393906556487,-0.0491203501379,-0.063506444117,0.00569983574166,2.8295352459,-0.25205975771,-0.316760003567,0.312278032303,0.935108304024,-0.344075769186
2017/07/09/10:20:11.822384,519649,1499566814,629267982,,0.676027760433,-0.113828896345,0.130949591345,0.817373657363,0.560142682425,-0.134055202844,0.0130262106555,0.0348278890684,-0.0119832164967,-0.038781740286,-0.021672191594,-0.0655541377644,0.0437456236667,2.85354137421,-0.726237237453,-0.427865296602,0.376549303532,0.986678004265,-0.351734697819
2017/07/09/10:20:11.832337,519650,1499566814,639270188,,0.675503543979,-0.114718909366,0.131138594521,0.817402303424,0.559948631302,-0.134660507235,0.0133248808933,0.0118292687173,-0.0435034912861,-0.0319090923891,-0.0293789187451,-0.058236594908,-0.0205313544987,2.39468121529,-0.820221781731,0.302625566721,0.364455521107,0.826982617378,-0.308552592993
2017/07/09/10:20:11.842606,519651,1499566814,649264270,,0.675577720671,-0.115212440976,0.130103918487,0.817235829675,0.560215979366,-0.134539459645,0.0135199466146,0.0266586378695,-0.0480868156597,-0.0315982168336,-0.0617843924311,-0.0794028906283,0.00837611703977,1.71490061283,-0.975752472878,-0.172552928329,0.430925786495,0.701895296574,-0.301870912313
2017/07/09/10:20:11.852596,519652,1499566814,659262717,,0.676242999153,-0.115449270433,0.129755590688,0.817293456007,0.560249182166,-0.1339961017,0.0140465433617,0.0141469173963,-0.0308757651495,-0.043191357361,-0.0331548567673,-0.0423772157012,0.0167838228493,2.11476182938,-0.511919975281,0.143007531762,0.342380285263,0.802789151669,-0.281407952309
2017/07/09/10:20:11.862530,519653,1499566814,669268763,,0.675809248811,-0.115586229634,0.129410476279,0.817171897911,0.560314302328,-0.134477253814,0.0139226461992,0.0181361630109,-0.0163658613774,-0.0452186169532,-0.0188850850982,-0.034490026815,0.0319385421754,1.97595620155,-0.633494019508,0.217993974686,0.398956298828,0.769712746143,-0.306419193745
2017/07/09/10:20:11.872583,519654,1499566814,679266498,,0.676386248889,-0.115546420414,0.129039235096,0.817068263716,0.560492624475,-0.134312673096,0.0144075044213,0.0232938011338,-0.0410478867454,-0.0358988023631,-0.05237234167,-0.0689614208262,0.011815118351,1.57367217541,0.0871570780873,0.137557819486,0.209745049477,0.59113830328,-0.251514673233
2017/07/09/10:20:11.882175,519655,1499566814,689263290,,0.676886945389,-0.11528197002,0.1286972968,0.817017980429,0.560699467198,-0.133742313706,0.0145162207578,0.0388558527317,-0.0113931578931,-0.0299283526792,-0.0265125282544,-0.0856698822484,0.0451750518321,2.43210792542,-0.540979981422,0.108764857054,0.399346023798,0.929941356182,-0.337471067905
2017/07/09/10:20:11.892521,519656,1499566814,699269944,,0.677047035859,-0.116412457887,0.128720749593,0.817391734441,0.560206916143,-0.133437246689,0.0152795539876,0.0294558010186,-0.0116916012472,-0.0262028541519,-0.016682390444,-0.0668856003571,0.0422288999799,2.09469151497,-1.18185377121,0.258553504944,0.430786818266,0.774387776852,-0.346164166927
2017/07/09/10:20:11.902597,519657,1499566814,709270961,,0.676752589231,-0.116334805855,0.128052185172,0.817243299006,0.560404845034,-0.133562966024,0.0148571194953,0.0010528279495,-0.0464165550953,-0.0315102193597,-0.0233317358377,-0.0438204873537,-0.0411160239209,2.82164859772,-0.876179277897,-0.266300439835,0.446932375431,1.01552271843,-0.347418934107
2017/07/09/10:20:11.912433,519658,1499566814,719270074,,0.677592974171,-0.116472899645,0.128293972708,0.81739282409,0.560322426139,-0.132891083862,0.015738796683,0.0121019331323,-0.0429648461434,-0.0405736785984,-0.0167640538692,-0.0627140602012,-0.0237128977282,3.34604740143,-0.657881140709,0.257036447525,0.424689620733,1.12636685371,-0.385760307312
2017/07/09/10:20:11.922199,519659,1499566814,729265137,,0.67777250493,-0.116615293931,0.127386937097,0.817226300242,0.560571412842,-0.132867881092,0.0157159623011,0.021838100166,-0.031413478924,-0.0373572569585,-0.0114465155236,-0.0709515023081,-0.00223511821947,2.72166109085,-0.579660534859,-0.231174468994,0.283743292093,0.907595098019,-0.32339823246
2017/07/09/10:20:11.932478,519660,1499566814,739263730,,0.677823265345,-0.117235767423,0.127147097988,0.817471856963,0.560293865319,-0.132489441951,0.0160341925729,0.0346393379627,-0.00878055228177,-0.0306038109812,-0.00310383055634,-0.0784473081511,0.0470316556954,2.26314425468,-1.32301235199,-0.276009887457,0.390333890915,0.858144104481,-0.323130398989
2017/07/09/10:20:11.942279,519661,1499566814,749262004,,0.67812324089,-0.117177763741,0.126889559876,0.817314562447,0.560520755857,-0.132468000195,0.0162977664082,0.037532249242,-0.0105530020877,-0.030273222276,-0.00707806732832,-0.101963730702,-0.00559271834163,3.4170358181,-0.742979347706,-0.121565356851,0.429577261209,1.19919407368,-0.384329617023
