time,.header.seq,.header.stamp.secs,.header.stamp.nsecs,.header.frame_id,.pose.position.x,.pose.position.y,.pose.position.z,.pose.orientation.x,.pose.orientation.y,.pose.orientation.z,.pose.orientation.w,.twist.linear.x,.twist.linear.y,.twist.linear.z,.twist.angular.x,.twist.angular.y,.twist.angular.z,.wrench.force.x,.wrench.force.y,.wrench.force.z,.wrench.torque.x,.wrench.torque.y,.wrench.torque.z
2017/07/09/10:22:17.631914,532230,1499566940,438940219,,0.780651070934,0.396903671623,0.164700196255,0.623536091014,0.779353912365,0.0536384541134,0.0305473194389,-0.0067472478779,-0.00989614154334,-0.00738015878918,-0.0169957700133,0.0165941667224,0.00142760772824,6.67276477814,2.13150048256,-0.699172914028,-0.88843870163,2.50907278061,-0.172052621841
2017/07/09/10:22:17.641979,532231,1499566940,448952636,,0.780349467586,0.397050195971,0.163967775973,0.623765004634,0.779210787787,0.0534104207194,0.0299181240787,-0.00194131323865,-0.0112266899275,-0.00420414220344,0.004738907591,0.0148767789161,-0.0192255555554,7.07918596268,2.41549944878,-0.80710119009,-0.972666621208,2.62571501732,-0.174523934722
2017/07/09/10:22:17.651852,532232,1499566940,458946114,,0.780496051798,0.396335314302,0.163953900642,0.624057008197,0.778995855662,0.053080446879,0.0300128895717,0.0010262365399,-0.0197819133406,-0.00566128586196,-0.00388577481395,0.0135114877885,-0.0364861390812,7.02790689468,2.33221197128,-0.846695661545,-0.910494565964,2.5874812603,-0.132486701012
2017/07/09/10:22:17.661979,532233,1499566940,468945586,,0.781270723464,0.396520136548,0.165047422504,0.624044703309,0.778917442315,0.0538712871499,0.0308822076609,-0.000584034822393,-0.00897634532869,0.00245045166815,-0.00576989548729,0.0123825257147,-0.00878983491913,6.32058286667,2.33877182007,-0.734702527523,-0.885596811771,2.32339930534,-0.15073043108
2017/07/09/10:22:17.671938,532234,1499566940,478946423,,0.780830942693,0.396474088329,0.16376357488,0.624047988572,0.778971729357,0.053447783634,0.0301742812202,0.00452324074785,-0.0119656243758,-0.000925727611091,-0.0184045307371,-0.00255277457497,0.00863945556207,6.74603509903,2.55457878113,-0.732016503811,-0.977602660656,2.48827505112,-0.145878508687
2017/07/09/10:22:17.682004,532235,1499566940,488942416,,0.781032651319,0.395910976938,0.16440466788,0.624261693458,0.778781487016,0.0534369750365,0.0306793621424,0.000685927852162,-0.022177383947,-0.00804665590409,-0.00067642229913,0.0124659775325,-0.0519518017492,6.3524889946,2.49367880821,-0.75555151701,-0.878694832325,2.33631324768,-0.13523542881
2017/07/09/10:22:17.691808,532236,1499566940,498952101,,0.780762578658,0.395800023781,0.164406522542,0.624304452477,0.77877378005,0.0532050835759,0.0304067295991,-0.0127131320315,-0.0438234357692,-0.0379987947759,-0.0281249456419,0.0586880805465,-0.0467229913501,5.77831840515,2.62366724014,-0.558252155781,-0.90987098217,2.1208999157,-0.14467023313
2017/07/09/10:22:17.702177,532237,1499566940,508952086,,0.780173682682,0.395761685096,0.163403578168,0.624079726994,0.779022017474,0.0524642887819,0.0299447666212,-0.00103571116892,-0.0628067106793,-0.0152421663436,-0.0374457840287,0.0351304735447,-0.0470244033468,5.51226472855,2.33230447769,-0.675420343876,-0.706848561764,1.99226403236,-0.101778648794
2017/07/09/10:22:17.711800,532238,1499566940,518959194,,0.780643026898,0.39526749714,0.163671375414,0.62424454449,0.778864454165,0.0526590134077,0.0302644844561,-0.00730809606601,-0.0468417338225,-0.00897960618354,-0.0347253808087,0.0363877690462,-0.0367335407795,4.9440574646,2.30379486084,-0.524842619896,-0.65254676342,1.78038191795,-0.106282919645
2017/07/09/10:22:17.721944,532239,1499566940,528938916,,0.780797336823,0.394326301191,0.163637746736,0.625157119734,0.778134627203,0.0526619307523,0.0301960037705,0.0121619009895,-0.0411140804635,-0.0100037748431,-0.00412484796723,0.0075411183758,-0.0565620803835,4.87175798416,2.23621606827,-0.371074557304,-0.686859667301,1.75800073147,-0.105284020305
2017/07/09/10:22:17.732129,532240,1499566940,538946357,,0.780527075653,0.39346775428,0.163187697759,0.625421265024,0.777968518092,0.0521325758015,0.0299235802461,-0.0056396977112,-0.0553874215541,-0.0154360334223,-0.0195420339021,0.0443238872732,-0.0727863519561,4.37911319733,2.29505443573,-0.434249103069,-0.747275829315,1.53435409069,-0.154179289937
2017/07/09/10:22:17.741800,532241,1499566940,548946192,,0.780689235765,0.39244437158,0.162681912797,0.625705069546,0.77775572094,0.0519490990302,0.0298411729029,0.00607886862311,-0.0581352618061,-0.0181881969812,-0.00923289225487,0.024071991116,-0.083950328276,4.57015752792,2.23410892487,-0.162215903401,-0.810982823372,1.62254583836,-0.178453683853
2017/07/09/10:22:17.752073,532242,1499566940,558946706,,0.780775845326,0.392440105525,0.162926364655,0.62614159565,0.777390903338,0.0520774564971,0.0299670507254,0.00619766062811,-0.0779678257339,-0.0262910097471,-0.0166883239702,0.029671567315,-0.115464985512,4.4730629921,2.17210841179,-0.0420123524964,-0.74922388792,1.60393762589,-0.155229955912
2017/07/09/10:22:17.761859,532243,1499566940,568939602,,0.780824189325,0.39093510834,0.162591353905,0.626798870701,0.776896774887,0.0515041874816,0.0300315755573,0.0118233127901,-0.0745853833465,-0.0208828104285,-0.0131261188444,0.0215903847,-0.120891977165,4.27081775665,2.30366110802,0.165808424354,-0.810196459293,1.54673719406,-0.181659966707
2017/07/09/10:22:17.771854,532244,1499566940,578956593,,0.781158514846,0.390020440876,0.162610650494,0.626894656083,0.77680546657,0.051534697552,0.0303402740544,0.0204729003288,-0.0965520980276,-0.00833637497323,-0.0252415995775,-0.00468098605725,-0.138250339155,3.91060853004,2.09814834595,0.300769925117,-0.638646364212,1.44246661663,-0.109861359
2017/07/09/10:22:17.782075,532245,1499566940,588959174,,0.781254297405,0.390081452244,0.162593248406,0.627100426284,0.77662641273,0.0518026228697,0.0302152059015,0.00930208775853,-0.0821996699083,-0.0261794081714,-0.00658762731161,0.029829789261,-0.106750728407,3.70876502991,2.17054057121,0.402336508036,-0.701177954674,1.37416136265,-0.13864852488
2017/07/09/10:22:17.791935,532246,1499566940,598945418,,0.781649088661,0.38879729655,0.162240108838,0.628149831888,0.775778941253,0.0517853156109,0.0302176123246,0.00793601688597,-0.0767508993954,-0.0185105388347,0.00829332847793,0.0313137376261,-0.129037406344,3.44808840752,1.94078207016,0.439779013395,-0.528007924557,1.3047157526,-0.071178227663
2017/07/09/10:22:17.801861,532247,1499566940,608943807,,0.781727871526,0.387839179598,0.162296474271,0.628635884508,0.775390146458,0.0515481713447,0.0304931388374,0.00831637206147,-0.0839559917038,-0.0193014684845,0.00105490701195,0.028038695241,-0.105678590548,3.4849524498,1.85603165627,0.392702609301,-0.512603878975,1.30977630615,-0.0929985195398
2017/07/09/10:22:17.811868,532248,1499566940,618945927,,0.781567388862,0.387365585939,0.162074905354,0.62872893639,0.775338543328,0.051444667637,0.0300585087547,0.00679734919633,-0.096848835783,-0.019144526172,-0.0242552544446,0.0305332518713,-0.121553290127,3.6718006134,2.81788396835,0.349343299866,-1.13371276855,1.32548093796,-0.272496342659
2017/07/09/10:22:17.821699,532249,1499566940,628940492,,0.782066301122,0.386346247538,0.16205882049,0.629078390501,0.775048115122,0.0512366929518,0.0305875652276,0.0163223245599,-0.0865478779544,-0.0109096429087,-0.0226176819435,0.00197801644234,-0.116564497099,4.05194711685,4.01691675186,0.301190793514,-1.70987927914,1.45866203308,-0.385725021362
2017/07/09/10:22:17.831775,532250,1499566940,638946775,,0.782155006815,0.385498052088,0.161477967791,0.629793864226,0.774488333623,0.0509953765456,0.0304463665423,0.0189127952615,-0.0833267546789,-0.0159139866474,-0.0174642179686,0.00835146881922,-0.124601721162,3.23088908195,4.96143388748,0.612717747688,-2.22752642632,1.12108838558,-0.496554553509
2017/07/09/10:22:17.842080,532251,1499566940,648938624,,0.782044492939,0.384267810886,0.161349018812,0.63017195379,0.774201634813,0.0506957513424,0.0304150966667,0.0129974852926,-0.100148268456,-0.0267801912713,-0.0242011597924,0.0367936067054,-0.138569484154,2.88044881821,4.19620943069,0.289155364037,-1.79125952721,0.98930221796,-0.35978448391
2017/07/09/10:22:17.851911,532252,1499566940,658939204,,0.781674501119,0.383042994838,0.160907877604,0.630805742998,0.773758861935,0.0498782103348,0.0298915090025,0.0151683274781,-0.140447738661,-0.014448616147,-0.0633584114987,0.0225393993795,-0.16631019123,1.70736634731,1.94846844673,0.172161355615,-0.759191632271,0.598256468773,-0.179028198123
2017/07/09/10:22:17.862245,532253,1499566940,668938862,,0.782354182341,0.381861345398,0.160999454875,0.63172575507,0.772957288052,0.0502835017391,0.0305150894118,0.024747482397,-0.160543376806,-0.0122129576767,-0.0456975974572,0.00289371473642,-0.196717691398,2.66325736046,1.84413433075,0.264505714178,-0.968072652817,0.953492164612,-0.282393455505
2017/07/09/10:22:17.871763,532254,1499566940,678952388,,0.783095299009,0.379398242111,0.161088014877,0.632972679266,0.771926649453,0.0500927308926,0.031073356419,0.0329212746272,-0.134691642965,-0.010054442231,-0.0279306493361,-0.0160118932642,-0.226796019253,2.83620285988,1.78945803642,0.437660932541,-0.986089587212,1.05472660065,-0.286321282387
2017/07/09/10:22:17.881852,532255,1499566940,688952752,,0.782538194103,0.379208778195,0.160734215662,0.633489592811,0.771546742524,0.0498510755216,0.0303550682816,0.0194577922146,-0.136036931222,-0.0130779391323,-0.0351336451996,0.0103139966517,-0.21398549783,2.97790503502,1.92696475983,0.35610640049,-1.17799723148,1.01856315136,-0.32306355238
2017/07/09/10:22:17.891747,532256,1499566940,698951459,,0.782812112987,0.377505526315,0.160590273922,0.634065235961,0.771086983107,0.049358204812,0.0308205880442,0.0181511238925,-0.136347755309,-0.00900886749672,-0.0220763615705,0.0201569955425,-0.208387518182,2.89585971832,1.87575817108,0.227056354284,-1.09329473972,0.971320271492,-0.282305926085
2017/07/09/10:22:17.901852,532257,1499566940,708938978,,0.783008953286,0.375487907709,0.160129697141,0.635014068216,0.770342346341,0.0487211344043,0.0309201174682,0.0166881931905,-0.135397860624,-0.015536656288,-0.0451101805335,0.0273747719059,-0.175726950427,2.32785892487,1.72732877731,0.180742129683,-0.934435486794,0.713342368603,-0.231811732054
2017/07/09/10:22:17.911936,532258,1499566940,718966326,,0.783242519624,0.374013598931,0.16051080274,0.635806672965,0.769667547057,0.0488086440771,0.0312962918713,0.0182351318927,-0.158775627902,-0.00387780466777,-0.0616487130589,0.0141262658143,-0.223607419923,1.74824464321,0.15325781703,0.240675121546,-0.0937856435776,0.556187093258,-0.0368501320481
2017/07/09/10:22:17.921789,532259,1499566940,728942429,,0.784046295297,0.37203223133,0.16065279621,0.636808978819,0.76881567296,0.0488226532442,0.0318297665157,0.00717930705704,-0.161486382359,-0.0100416729774,-0.065026946463,0.0301842252596,-0.201552734566,0.919749557972,-1.28664195538,0.281086444855,0.639616906643,0.289361536503,0.0758426487446
2017/07/09/10:22:17.931986,532260,1499566940,738942839,,0.78401203642,0.371741583003,0.160445228608,0.637143324081,0.768548976289,0.0488005048662,0.0316127561117,0.0299598467374,-0.186382030187,-0.0068622846086,-0.0654276574068,-0.00843124917122,-0.223089127753,1.00356400013,-1.49635970592,0.442040652037,0.642128944397,0.328575670719,0.0430959165096
2017/07/09/10:22:17.942072,532261,1499566940,748958293,,0.784469731544,0.369028377086,0.160528127532,0.638400374879,0.767493931955,0.0487697208308,0.0319302379725,0.0360169114732,-0.171644055983,-0.00619063249974,-0.0202492765258,-0.0173950780404,-0.246842195152,1.83180236816,-0.636851072311,0.541285037994,0.15422219038,0.667788505554,-0.0840779319406
2017/07/09/10:22:17.951651,532262,1499566940,758952598,,0.784041916409,0.368320663279,0.159836029994,0.639011730404,0.767042996978,0.048248150913,0.0313235554574,0.0224175391486,-0.162446520154,-0.02007135747,0.00615105989319,0.0197860781558,-0.237460527936,2.02869272232,0.473573952913,0.614820599556,-0.41741463542,0.704718232155,-0.155468598008
2017/07/09/10:22:17.962031,532263,1499566940,768945005,,0.784549616647,0.366285372308,0.159956528601,0.639839458942,0.766341686649,0.0481580560791,0.0317283425387,0.000703661027858,-0.146621947406,-0.0274318424855,-0.00553520193028,0.0616405940282,-0.203616024859,2.05880832672,1.40492403507,0.708775103092,-0.836928129196,0.676330685616,-0.236009553075
2017/07/09/10:22:17.971978,532264,1499566940,778944468,,0.784645436873,0.364473001435,0.159909489766,0.641038017147,0.765356186455,0.0479820182051,0.0315894659082,0.0134810662647,-0.143644813993,-0.00699258762938,-0.00491330537031,0.0289409147258,-0.211180780497,1.50496721268,1.38681900501,0.6002779603,-0.781373023987,0.457733690739,-0.22086840868
2017/07/09/10:22:17.981725,532265,1499566940,788949294,,0.784908034406,0.362753269169,0.159854400711,0.641629051165,0.764849753186,0.0478799089262,0.0320082813255,0.0239666625993,-0.172096678721,-0.00508554315086,-0.0384326182274,0.00124020998277,-0.221186922487,2.12171769142,1.5773191452,0.631686449051,-0.861149072647,0.709816455841,-0.240245655179
2017/07/09/10:22:17.991949,532266,1499566940,798946447,,0.785052637959,0.361511056675,0.159710576847,0.642324864113,0.764282254522,0.0475506703873,0.0320988802274,0.0162711916875,-0.187865694813,-0.0139936928746,-0.0595256919751,0.0251037354131,-0.224092144458,2.63204216957,1.68465149403,0.597944676876,-0.899240911007,0.921140193939,-0.265354573727
2017/07/09/10:22:18.001785,532267,1499566940,808946448,,0.785212270637,0.359722742677,0.159773124318,0.642950158887,0.763759740872,0.0472801115181,0.0324151579417,0.0263199762897,-0.201866065224,-0.01433622969,-0.0588084880821,0.00876532708988,-0.253980059565,2.51346278191,1.28136992455,0.492681622505,-0.614951133728,0.85726326704,-0.197066605091
2017/07/09/10:22:18.011964,532268,1499566940,818947503,,0.785664023089,0.357638970586,0.159819696157,0.643988035242,0.762884310537,0.047161695965,0.0325992888782,0.0148323654144,-0.169653389094,-0.00629711422637,-0.0493705447706,0.00335291606485,-0.210974615398,3.07165527344,1.24897551537,0.655043900013,-0.609989285469,1.08684301376,-0.221557855606
2017/07/09/10:22:18.021857,532269,1499566940,828946306,,0.785055228265,0.356288764804,0.158809656555,0.64500136954,0.76210165715,0.0465063499198,0.031803409847,0.0234397093556,-0.177710643922,-0.00283215841377,-0.0243647230187,0.00217337075163,-0.245418509034,3.15827417374,1.04535901546,0.723869621754,-0.575402855873,1.08264565468,-0.227391958237
2017/07/09/10:22:18.031929,532270,1499566940,838946855,,0.78555777632,0.354452233034,0.159136144381,0.645910070341,0.761315068932,0.0465921526728,0.0320736365069,0.0132446225981,-0.191610770309,-0.011585424065,-0.0178534768747,0.0324193137662,-0.240711339767,2.72913265228,0.967311322689,0.687475323677,-0.501162648201,0.924908220768,-0.189036041498
2017/07/09/10:22:18.041685,532271,1499566940,848945109,,0.785906052217,0.351890401799,0.159183441923,0.647172433864,0.760233818767,0.0465744244975,0.0322986784886,0.0126877556411,-0.195276589504,-0.0143595876202,-0.0214541538708,0.027602635867,-0.252081974782,3.01732301712,1.07851779461,0.862024784088,-0.564565956593,1.06965208054,-0.197865515947
2017/07/09/10:22:18.051833,532272,1499566940,858946116,,0.786155235578,0.350053666851,0.159113011379,0.647829690301,0.759684615872,0.0462001218338,0.0325810606703,0.0187599654357,-0.176668898881,-0.00601641428597,0.00448666108726,0.0081013695278,-0.256775651276,2.64583230019,0.954918563366,0.958607017994,-0.430841416121,0.935440182686,-0.147566378117
2017/07/09/10:22:18.061821,532273,1499566940,868949938,,0.786427098168,0.348587819137,0.159100112757,0.648805289231,0.758839635463,0.0465355434245,0.0323812833985,0.0283369545146,-0.197624382871,-0.00338957546538,-0.00870451822253,-0.00194874845499,-0.284691512199,2.15506529808,1.09470939636,0.95536339283,-0.510438859463,0.743790924549,-0.189077034593
2017/07/09/10:22:18.071890,532274,1499566940,878948226,,0.786669995508,0.346834516745,0.158730218195,0.649789069538,0.758012896475,0.0462411107392,0.0324403076907,0.0264735367741,-0.192603678308,-0.0102100185415,0.00444326792791,0.00927566486358,-0.285953006659,2.04949569702,0.934786558151,1.06759917736,-0.49404540658,0.728893101215,-0.178928852081
2017/07/09/10:22:18.082229,532275,1499566940,888939178,,0.786880749825,0.344672269121,0.15856696013,0.651038824234,0.756941986171,0.0461217211067,0.0325586509723,0.0237504342317,-0.187409244725,-0.00617685253195,-0.00406199450417,0.00118065037561,-0.260708790114,1.47005152702,0.666581511497,1.0658788681,-0.28487020731,0.494524657726,-0.13360992074
2017/07/09/10:22:18.092034,532276,1499566940,898946209,,0.786520970246,0.343149129356,0.158651414453,0.651637968674,0.756466444364,0.0456708787531,0.03225906334,0.0250613190644,-0.207614131819,-0.00874236602885,-0.0224562648337,0.00506117052207,-0.27029690642,1.571215868,0.801588356495,0.782709538937,-0.423864722252,0.504932940006,-0.187954038382
2017/07/09/10:22:18.101796,532277,1499566940,908944147,,0.787146155489,0.341060437461,0.158525700898,0.652466707072,0.755728073469,0.0457815890663,0.0326545745015,0.016397859419,-0.196861377747,-0.0189637331909,-0.00634316730791,0.0286271826937,-0.272406077316,2.36272859573,0.891117095947,0.708783209324,-0.387165248394,0.818267047405,-0.1422444731
2017/07/09/10:22:18.111978,532278,1499566940,918943028,,0.787026707098,0.338722419487,0.157893101691,0.653958991252,0.754477166448,0.0454810576089,0.0321452402103,0.0231170804242,-0.207880583382,-0.0202655331869,-0.0122867188579,0.0149653767128,-0.291266626476,2.27813196182,1.11926293373,0.685296714306,-0.503771364689,0.779005408287,-0.189701616764
2017/07/09/10:22:18.122127,532279,1499566940,928942337,,0.787399073241,0.337108314355,0.158446706002,0.655000084497,0.753557872541,0.0455343159166,0.0324352911976,0.0177690951659,-0.23200006142,-0.0143896945617,-0.0187004031741,0.0268354236118,-0.296293288722,2.29058742523,1.03571438789,0.435291409492,-0.457457482815,0.758871614933,-0.179327368736
2017/07/09/10:22:18.131954,532280,1499566940,938940329,,0.787550681881,0.3344006403,0.15804040863,0.656107994464,0.752608839572,0.0452770053983,0.0324380483363,0.0124657687143,-0.215534106234,-0.0208952514388,-0.00961410411624,0.0357118453294,-0.28328002601,2.21662402153,1.05763244629,0.774991631508,-0.488965749741,0.790337324142,-0.218805849552
2017/07/09/10:22:18.141945,532281,1499566940,948939747,,0.787771227881,0.331703310448,0.157843137684,0.657608099877,0.751303345387,0.0450555442223,0.0326323171123,0.025658231749,-0.236456064282,-0.0122710881209,0.00180752133543,0.00451150796434,-0.33203828341,1.83381581306,0.821406841278,0.701277136803,-0.492291808128,0.626136600971,-0.232795476913
2017/07/09/10:22:18.151884,532282,1499566940,958942315,,0.788323072344,0.330439918021,0.157880870167,0.658278353132,0.750695290664,0.0453241918002,0.0327400062793,0.0212079820074,-0.23481496284,-0.0165704664894,0.00995589372161,0.0186506343185,-0.335533432971,0.902500271797,0.796634793282,0.897070705891,-0.497658014297,0.26700052619,-0.251104533672
2017/07/09/10:22:18.161793,532283,1499566940,968941160,,0.787766745134,0.327045293593,0.156937264289,0.65988916867,0.749356246718,0.0443958505816,0.0322569221868,0.0189939628286,-0.254889538885,-0.0192119192625,-0.00153053707179,0.0273582866076,-0.360741776785,0.778804659843,0.859572887421,1.10629975796,-0.518655061722,0.243802800775,-0.270011276007
2017/07/09/10:22:18.171888,532284,1499566940,978946535,,0.788799620494,0.32502944767,0.157428955136,0.660844763105,0.748443351145,0.0451843152168,0.0327891272027,0.0151088430525,-0.269089222257,-0.0313282858617,-0.0143148011319,0.0374755387438,-0.348083679091,0.415806204081,0.636945962906,0.975938141346,-0.40454313159,0.0946822613478,-0.231068819761
2017/07/09/10:22:18.181747,532285,1499566940,988941886,,0.788932456362,0.322085138328,0.157421193975,0.662669540689,0.746842085876,0.044882160331,0.0328872360101,0.0201696295381,-0.258367947627,-0.012177071969,-0.000796524245028,0.0164284330986,-0.354508836039,0.796557247639,0.754946351051,1.10743319988,-0.40983453393,0.272607564926,-0.213846340775
2017/07/09/10:22:18.191972,532286,1499566940,998951769,,0.788435694735,0.320127669789,0.156718473067,0.66351227002,0.74616472007,0.0440811856649,0.0323500715039,0.0247862294321,-0.270608369657,-0.0191549405176,-0.0208404467643,0.00907375716657,-0.375664089105,0.60205745697,0.776961266994,0.997203886509,-0.390953779221,0.189088955522,-0.213660866022
2017/07/09/10:22:18.201897,532287,1499566941,8951608,,0.78858361653,0.317665203264,0.156290257912,0.665073695327,0.744782072584,0.0442732296665,0.0318829935185,0.00619315745194,-0.284319279436,-0.0321740088733,-0.00989219218977,0.0656360079806,-0.401962775882,0.810109436512,0.672062695026,0.808179438114,-0.314372241497,0.224349915981,-0.197284445167
2017/07/09/10:22:18.212021,532288,1499566941,18945303,,0.789234859314,0.31424398834,0.156430180988,0.666491562226,0.743488331889,0.0440896824861,0.0327138766391,-0.00480051882035,-0.272163980607,-0.0380175906943,-0.00595920801208,0.081491266463,-0.344612454163,1.09780669212,0.721024036407,0.550774872303,-0.305179059505,0.334089666605,-0.206111654639
2017/07/09/10:22:18.221830,532289,1499566941,28939860,,0.789112331654,0.312244095648,0.156100528122,0.667713773531,0.742428591811,0.043771986422,0.0322818200115,0.0153466309007,-0.267364819121,-0.0205747236179,-0.0178035110135,0.0307209174643,-0.349645834284,0.80730086565,0.699569940567,0.541256189346,-0.296206742525,0.211150243878,-0.207295358181
2017/07/09/10:22:18.232042,532290,1499566941,38938117,,0.788807192064,0.309649665294,0.15552859712,0.669120888689,0.741203387272,0.0433422141158,0.0318783232327,0.00931809340074,-0.245406609996,-0.0396332739078,0.0145613624461,0.0474313158269,-0.358212956685,1.04812145233,0.903434216976,0.36743503809,-0.433397531509,0.27473244071,-0.255549252033
2017/07/09/10:22:18.241860,532291,1499566941,48937871,,0.789330144513,0.306313097417,0.155531473443,0.670530569977,0.739907917527,0.0434279855061,0.0322341183008,-0.0057093060243,-0.282040826457,-0.032854795946,0.0254121500895,0.0825622570025,-0.411813629753,1.03567028046,0.847554087639,0.266066163778,-0.320804983377,0.268040955067,-0.190887570381
2017/07/09/10:22:18.251821,532292,1499566941,58943344,,0.789313851428,0.303831121721,0.155149286596,0.672056439102,0.738550820177,0.043279288699,0.0317762780655,0.00203490737268,-0.319982245414,-0.0335005767146,0.00436919999819,0.0685925276725,-0.435161467729,1.25474071503,0.747531294823,0.318443477154,-0.292542159557,0.336359739304,-0.187620744109
2017/07/09/10:22:18.261866,532293,1499566941,68941814,,0.789162091659,0.30142791571,0.154401658455,0.673525941863,0.737235316942,0.04325625514,0.0312376292503,0.00462362279684,-0.274454971225,-0.0371914413809,0.0269028137723,0.0555954095953,-0.388773315526,1.79550874233,0.977506041527,0.184005200863,-0.494554817677,0.527975618839,-0.257275700569
2017/07/09/10:22:18.271832,532294,1499566941,78945437,,0.789315415928,0.298216097106,0.154300491666,0.675070920963,0.735833924324,0.042970420706,0.0313245978151,-0.000776395963127,-0.283184577446,-0.0384055403913,0.0266034234973,0.0594975439008,-0.403667529061,1.95741474628,0.882725119591,0.192084118724,-0.439919054508,0.59105271101,-0.266705006361
2017/07/09/10:22:18.281698,532295,1499566941,88947289,,0.789109858916,0.294954028583,0.153537250004,0.676502319767,0.734557099417,0.0423514559194,0.0312543313448,0.00325568492431,-0.314175144218,-0.0341239180831,-0.002160871388,0.0562605211237,-0.414919499488,1.26424431801,-0.407715857029,0.0261916182935,-0.0961119830608,0.304140776396,-0.191252484918
2017/07/09/10:22:18.291904,532296,1499566941,98945828,,0.789426537652,0.292556316003,0.153527604759,0.677878778711,0.733281745537,0.0427741772614,0.0307995583533,-0.00362625230547,-0.307717352466,-0.0392552137609,-0.00548412319483,0.0675605338042,-0.389366113995,0.864365518093,-0.0568225383759,0.372091650963,-0.215938866138,0.117166891694,-0.226561680436
2017/07/09/10:22:18.301776,532297,1499566941,108946349,,0.788795750283,0.290018901318,0.152526024833,0.678858276402,0.732446266321,0.0417957040077,0.0304471121689,-0.00359459860234,-0.292050402198,-0.0447552770962,0.0156815660471,0.0739591872668,-0.400843664451,0.955378770828,0.544339120388,0.22668248415,-0.457473158836,0.186378240585,-0.265771567822
2017/07/09/10:22:18.311721,532298,1499566941,118945763,,0.789306088445,0.287130523071,0.152929286037,0.680282413434,0.731104184974,0.0420783805675,0.0305273414318,0.000605443975205,-0.300906550145,-0.0415415179716,-0.00325571904217,0.0530882314229,-0.380313557049,0.827612817287,0.44792419672,0.360263973475,-0.44292318821,0.129441320896,-0.236514568329
2017/07/09/10:22:18.321842,532299,1499566941,128945508,,0.78890986176,0.283752933058,0.152078622822,0.681609276201,0.729925264868,0.0410137390144,0.0305904481119,-0.00165223481493,-0.305829708443,-0.0402629577447,-0.0274675331012,0.0532842633322,-0.335618194856,0.681636095047,0.163926199079,-0.00222263857722,-0.350373983383,0.0860558897257,-0.270918607712
2017/07/09/10:22:18.331940,532300,1499566941,138938170,,0.789212719612,0.280274731355,0.151936347321,0.683559132836,0.728094607005,0.0412250634463,0.0304244853873,-0.00592005018889,-0.30940265556,-0.0431434199665,-0.0112379172558,0.0721926493609,-0.372962913564,0.233542084694,-0.175696641207,-0.187241539359,-0.246697932482,-0.12132512033,-0.252330094576
2017/07/09/10:22:18.342314,532301,1499566941,148940129,,0.789035174557,0.277047561024,0.151191227715,0.685057615603,0.726708737855,0.0409743063326,0.0301923806572,-0.00255233568467,-0.328595163052,-0.045709675262,0.0172779512806,0.0610151757207,-0.443535982386,-0.155776619911,-0.0243147611618,-0.32357659936,-0.282091021538,-0.281093150377,-0.26454615593
2017/07/09/10:22:18.351727,532302,1499566941,158941605,,0.788633615822,0.274371658029,0.150667827502,0.685914506231,0.725967151774,0.0400783986304,0.0297776199487,0.00479236637828,-0.329885685876,-0.036775705361,0.00897011472964,0.0379664152256,-0.423034054822,-0.581054747105,0.0219913125038,-0.37512254715,-0.262749016285,-0.429782569408,-0.267420917749
2017/07/09/10:22:18.361944,532303,1499566941,168946752,,0.789272140965,0.270711958798,0.150288393506,0.687726575,0.724221909073,0.0403231724398,0.0301467447978,0.00827654271354,-0.328516386328,-0.0377133903028,-0.000370206589422,0.0305188621008,-0.396346051697,-0.845432400703,-0.103539794683,-0.350969403982,-0.307481467724,-0.481751233339,-0.270070970058
2017/07/09/10:22:18.372063,532304,1499566941,178951561,,0.789027158242,0.267712888682,0.149869133518,0.688658001438,0.723363990536,0.0399083081218,0.0300336676699,-0.00984869907725,-0.32613150715,-0.0566394376527,0.00357948000484,0.0674003309564,-0.380674292135,-1.12302899361,-0.164517730474,-0.303793609142,-0.221329927444,-0.588676810265,-0.246915832162
2017/07/09/10:22:18.382166,532305,1499566941,188951942,,0.789130329652,0.26511695387,0.149495047388,0.690239322186,0.721845510862,0.0404738851307,0.0295059516056,-0.00563590321844,-0.315241286257,-0.0551194920076,0.0140873795511,0.0575524055546,-0.385234002539,-1.27020645142,-0.349166512489,-0.476023435593,-0.200425714254,-0.579639613628,-0.208791166544
2017/07/09/10:22:18.392160,532306,1499566941,198939869,,0.789066450381,0.261922625158,0.149147560737,0.691671907677,0.720498956119,0.0398763968431,0.0296833174638,-0.00325685032355,-0.336548758323,-0.0519091578741,0.0209239416447,0.0543622052006,-0.442986748976,-1.32845830917,-0.228594988585,-0.544759273529,-0.177054554224,-0.601303398609,-0.197951152921
2017/07/09/10:22:18.401679,532307,1499566941,208940601,,0.788885668438,0.25851731443,0.148331919972,0.693566819621,0.71870983114,0.0396655159548,0.0291185883449,-0.0111706939466,-0.307152809621,-0.0537114368035,0.0170919615835,0.0699278569116,-0.416367882381,-1.6709830761,-0.721456646919,-0.528552532196,-0.0219164788723,-0.738162815571,-0.176205217838
2017/07/09/10:22:18.411711,532308,1499566941,218946187,,0.78856151895,0.2549083668,0.147404322384,0.695392954218,0.716984890509,0.0390149693672,0.0289678817109,-0.0116139718537,-0.348562489068,-0.0572089470378,0.00930828898683,0.0638956408219,-0.468732514593,-2.23386073112,-0.293819218874,-0.776816964149,-0.151100888848,-0.939431905746,-0.227566689253
2017/07/09/10:22:18.421958,532309,1499566941,228945433,,0.788486064337,0.252293731596,0.146864463743,0.696660390296,0.715773958823,0.0387929410434,0.0287584455222,-0.0215447916311,-0.332032603602,-0.064392920441,-0.00415253944641,0.0867552088029,-0.44873801611,-2.24665331841,0.901356339455,-0.616109132767,-0.739796102047,-0.961790919304,-0.386613309383
2017/07/09/10:22:18.431825,532310,1499566941,238939983,,0.788210207215,0.248296440305,0.146581540566,0.698384618897,0.714119414136,0.0382593677254,0.0287855384528,-0.0303983819508,-0.32899842748,-0.0700257226933,-0.00537767636279,0.106263136608,-0.446059261647,-2.00054550171,1.34221971035,-0.514453113079,-1.05980491638,-0.852180361748,-0.424500375986
2017/07/09/10:22:18.441593,532311,1499566941,248941350,,0.788100800853,0.245765190651,0.146044396285,0.699478367212,0.713063871272,0.0380735553592,0.0286414676975,-0.0221396194499,-0.325623705816,-0.0623717823782,-0.00592162469039,0.0893077353249,-0.432881409483,-2.80728578568,1.55845570564,-0.659481108189,-1.17233026028,-1.18556272984,-0.437017381191
2017/07/09/10:22:18.451616,532312,1499566941,258938443,,0.78805033179,0.242300382571,0.144975757688,0.701004705524,0.711586762857,0.0378465980569,0.028360479121,-0.0327550636976,-0.355840406061,-0.0747516078284,-0.00269722158411,0.1139840342,-0.441718048058,-3.3418135643,1.49193072319,-0.647213101387,-0.918985128403,-1.32692229748,-0.339082628489
2017/07/09/10:22:18.461707,532313,1499566941,268970578,,0.787500781528,0.238862870748,0.144371681839,0.702402172179,0.710254066139,0.0370645882691,0.0282235070138,-0.0166966582238,-0.348611824671,-0.0721573446664,-0.0205307564417,0.065735540677,-0.414559434379,-4.14871549606,0.895119428635,-0.372167259455,-0.538934409618,-1.58634793758,-0.250772744417
2017/07/09/10:22:18.472077,532314,1499566941,278946243,,0.787422727949,0.235523508239,0.143703694576,0.703626405192,0.709058799317,0.0367969680567,0.0281333284462,-0.0172294458977,-0.357234912156,-0.0751523611154,-0.0203351252074,0.0643617110181,-0.409716573695,-4.7110452652,0.171467080712,-0.500779688358,-0.138093009591,-1.75279557705,-0.192599877715
2017/07/09/10:22:18.482111,532315,1499566941,288964351,,0.786855214575,0.232310806997,0.14243420945,0.704833095543,0.707911306864,0.0362267730118,0.0275592082172,-0.0330074280163,-0.355318694373,-0.083406250997,-0.0228349560688,0.0946512350504,-0.362553871728,-5.08080625534,0.187457501888,-0.167602196336,-0.0320444330573,-1.80431354046,-0.184774011374
2017/07/09/10:22:18.491869,532316,1499566941,298938764,,0.787174411063,0.229251410795,0.142507130605,0.706097458248,0.706624679072,0.0364822976378,0.0278744388353,-0.0336315215109,-0.346906989219,-0.0817128169531,-0.0190445554155,0.0994391560975,-0.353061851877,-5.36323595047,0.126322761178,0.154343351722,-0.199606627226,-1.92461013794,-0.230353623629
2017/07/09/10:22:18.501694,532317,1499566941,308939799,,0.786460881954,0.226453362463,0.141283963038,0.707049059777,0.705741709072,0.0356807382701,0.0271505443797,-0.0321352486285,-0.343292737466,-0.0754295413351,0.0329700331842,0.0883335992717,-0.373782710103,-5.83475589752,0.560834169388,-0.116066642106,-0.339882463217,-2.10408139229,-0.229570239782
2017/07/09/10:22:18.511960,532318,1499566941,318944876,,0.78598680821,0.222920184164,0.140604702519,0.708407577345,0.704406528169,0.0356397833032,0.0264566301542,-0.0419487776623,-0.305478978675,-0.0811024974503,0.0449295602871,0.112520812794,-0.306079510398,-5.47288513184,0.278136104345,-0.502699375153,-0.344062447548,-2.01156425476,-0.239159971476
2017/07/09/10:22:18.521868,532319,1499566941,328950370,,0.785246432138,0.219144806209,0.139481253857,0.709713303795,0.703161697291,0.0346044347059,0.0259458470151,-0.0504438006927,-0.313618685671,-0.0910309922209,0.0346484838464,0.139821040801,-0.287999268918,-5.46013355255,0.0703934878111,-0.858169615269,-0.335958749056,-1.98365116119,-0.238019347191
2017/07/09/10:22:18.532065,532320,1499566941,338970706,,0.785051510177,0.216388679653,0.13835166613,0.710618814209,0.702260809277,0.0347158926127,0.0254059726419,-0.0514351052024,-0.342967792106,-0.0906921091897,0.0292943592169,0.134291942454,-0.334772249107,-5.82269382477,0.165484383702,-1.0416572094,-0.323914408684,-2.15758538246,-0.232423573732
2017/07/09/10:22:18.541988,532321,1499566941,348945098,,0.784848777342,0.212997980184,0.13794624723,0.712034340208,0.700841814789,0.0342862944497,0.0255401452697,-0.0559587852076,-0.34063431503,-0.0982599045782,0.0237746412779,0.137284356382,-0.367296066621,-4.95663118362,0.343550682068,-0.527033567429,-0.340344429016,-1.83600711823,-0.231243312359
2017/07/09/10:22:18.552042,532322,1499566941,358946634,,0.784006019777,0.21082674542,0.136233559891,0.712999767574,0.69992234703,0.0340173730107,0.0241424501871,-0.0529062185992,-0.305889764481,-0.105564782578,0.053665061424,0.139286409839,-0.334968519837,-4.78710079193,0.304469823837,-0.749700725079,-0.357742726803,-1.68785715103,-0.240517854691
2017/07/09/10:22:18.561863,532323,1499566941,368945872,,0.783682439467,0.207468490653,0.1355846165,0.714284081142,0.698638008732,0.0334934064798,0.0241117378888,-0.0415952600963,-0.319970781144,-0.0955919206762,0.0504982532911,0.114846631578,-0.3679341941,-4.38204479218,0.251141607761,-0.195364430547,-0.277326405048,-1.51946520805,-0.199851214886
2017/07/09/10:22:18.571765,532324,1499566941,378938561,,0.783448069011,0.204850160035,0.134877366148,0.715296399795,0.697623211507,0.033548561763,0.023396777766,-0.0443842566167,-0.315298690842,-0.0922688476968,0.0293782381715,0.118647953853,-0.337625470729,-3.6674323082,0.239702522755,0.076491728425,-0.278618633747,-1.29097664356,-0.238761171699
2017/07/09/10:22:18.581962,532325,1499566941,388945108,,0.782725028166,0.201432785391,0.133695276315,0.716611855898,0.696330504184,0.0327121780155,0.0228295934903,-0.0511084584693,-0.303802398905,-0.0902802880884,0.0337845458858,0.140127019348,-0.320299019939,-3.9897851944,-0.00760737061501,-0.113594524562,-0.242585211992,-1.43193852901,-0.219096302986
2017/07/09/10:22:18.592123,532326,1499566941,398949088,,0.782334353747,0.198747744943,0.13261181047,0.717824958364,0.695110724373,0.0325854423764,0.0220589881088,-0.0415197887871,-0.318016191897,-0.103758548096,0.0370949338221,0.121334831485,-0.351555601692,-3.83380889893,-0.00321969389915,-0.766299188137,-0.179730936885,-1.3727606535,-0.197292715311
2017/07/09/10:22:18.601917,532327,1499566941,408946945,,0.781917105952,0.195444005185,0.131525818702,0.719138427393,0.693782508246,0.0321303817523,0.021757574962,-0.0294008538722,-0.309065228936,-0.0919703040175,0.048531937878,0.0915697296319,-0.378440253088,-3.83280420303,0.215422943234,-0.55111849308,-0.358220875263,-1.3503061533,-0.252714395523
2017/07/09/10:22:18.611888,532328,1499566941,418951914,,0.781620123002,0.193547738757,0.130572090438,0.720107656577,0.692806240851,0.0320143174395,0.0209656637265,-0.0142627313645,-0.312807347196,-0.0925310963929,0.0437795623982,0.0637706475142,-0.399107717403,-4.33470344543,0.366486996412,-0.395318388939,-0.384632766247,-1.522108078,-0.264351457357
2017/07/09/10:22:18.622170,532329,1499566941,428940588,,0.781777901209,0.189785899638,0.130184392742,0.72201794376,0.690812421322,0.0321667332772,0.0208227929302,-0.0278081776815,-0.304966336123,-0.0930665031738,0.0571011374912,0.0970026008494,-0.399384460952,-4.19135427475,0.165080338717,-0.106770530343,-0.311595350504,-1.49882638454,-0.264131546021
2017/07/09/10:22:18.631893,532330,1499566941,438945886,,0.782120436834,0.187197244833,0.129534670304,0.722986459883,0.689788095456,0.0322552639702,0.0210371133772,-0.0231516124153,-0.320733814708,-0.0872230087743,0.0555330075073,0.0835278799309,-0.434561653729,-3.9454767704,0.458853900433,0.10153657198,-0.35964435339,-1.46983063221,-0.278289884329
2017/07/09/10:22:18.641855,532331,1499566941,448944192,,0.781789190552,0.183969596872,0.128517870313,0.725208438711,0.68747649132,0.0320819260025,0.0204827812661,-0.00596883174787,-0.29356814062,-0.0881201075052,0.0504055030769,0.0543770336326,-0.394320732212,-4.25449514389,-0.277774989605,0.10916377604,-0.108028069139,-1.54335856438,-0.238966792822
2017/07/09/10:22:18.651770,532332,1499566941,458943519,,0.781928800809,0.181027261969,0.127914629258,0.726264893503,0.686366899521,0.032012389454,0.0203713187699,-0.00990969879879,-0.317252452249,-0.0943833044849,0.0516398710562,0.0680726857975,-0.457388396805,-4.25573158264,0.0978091955185,-0.16314420104,-0.148369088769,-1.56420528889,-0.2594845891
2017/07/09/10:22:18.661722,532333,1499566941,468941958,,0.78213883713,0.178390589646,0.12707686525,0.727717370211,0.684832032819,0.0320143830696,0.020188986961,-0.00196246794949,-0.30406982285,-0.0820051264517,0.0573658340283,0.0468670847111,-0.465969656811,-3.49198675156,-0.0165766477585,-0.275951683521,-0.144760429859,-1.27655243874,-0.239599138498
2017/07/09/10:22:18.671825,532334,1499566941,478945000,,0.782671498977,0.175148618751,0.126543263316,0.729311288875,0.683105998493,0.0324789692187,0.020404786222,0.00860134084393,-0.29907445173,-0.0780117307914,0.0572422982507,0.0351542085615,-0.461118020791,-3.82474660873,0.18381601572,-0.0735120922327,-0.226470470428,-1.41528522968,-0.273049235344
2017/07/09/10:22:18.681772,532335,1499566941,488977925,,0.782191182105,0.172654085622,0.125127923112,0.730652920161,0.681715201749,0.0321279808202,0.0194547375539,0.0117845998518,-0.320971704065,-0.0791429389346,0.0401654215099,0.0308231517001,-0.474806799272,-3.90602779388,0.511978924274,-0.358752787113,-0.35308432579,-1.42294418812,-0.309993445873
2017/07/09/10:22:18.691734,532336,1499566941,498940014,,0.782680234838,0.170408421394,0.124980076167,0.731775261332,0.680490725258,0.0325080545623,0.0195081042073,0.0213186395732,-0.307239271148,-0.0833699597058,0.0567907656202,0.00998116977502,-0.443929047407,-3.95374107361,1.1342972517,0.0228121727705,-0.552916526794,-1.48320603371,-0.332284986973
2017/07/09/10:22:18.701797,532337,1499566941,508944913,,0.783364046707,0.166330260075,0.12411681346,0.734006046348,0.678066872777,0.0326517017813,0.0198571482868,0.0340928547782,-0.300655559882,-0.0655047012869,0.0533322922444,-0.0200164621513,-0.437026418508,-3.67444992065,0.368930697441,-0.118186965585,-0.374052017927,-1.44958603382,-0.316194832325
2017/07/09/10:22:18.711806,532338,1499566941,518950413,,0.783474220242,0.16390982193,0.123239920115,0.735232241338,0.676740000005,0.0330043782117,0.0191633689238,0.0351588732901,-0.294206948574,-0.0711406295516,0.0672267233204,-0.00693774487538,-0.456981604529,-3.68757629395,0.184008136392,-0.39071148634,-0.316125154495,-1.4101433754,-0.291689038277
2017/07/09/10:22:18.721774,532339,1499566941,528947199,,0.783719925226,0.16035564299,0.122628245825,0.737073093354,0.674733459024,0.0330036727192,0.0192034349696,0.0402295002209,-0.303893232547,-0.0651162053713,0.0732343142883,-0.0269058980632,-0.490949659335,-3.32854485512,0.21170142293,-0.321614772081,-0.35632532835,-1.27310752869,-0.309299349785
2017/07/09/10:22:18.731858,532340,1499566941,538946229,,0.784156689382,0.158109676249,0.122436106819,0.738028582216,0.673671640251,0.0332726223744,0.019320081632,0.0559930582891,-0.294799752292,-0.063949393738,0.0629546099201,-0.0550485166398,-0.468095940191,-3.60651874542,0.0436924993992,-0.163731992245,-0.286815077066,-1.39080882072,-0.284313440323
2017/07/09/10:22:18.741907,532341,1499566941,548945683,,0.7851810724,0.154842378721,0.122028524557,0.73983865374,0.671636539608,0.0339644885699,0.0197367325496,0.0588894147035,-0.293690752773,-0.0645093107817,0.0564950076245,-0.0570440035157,-0.435312382705,-3.1738114357,-0.0576089024544,0.0161532070488,-0.193285644054,-1.30317425728,-0.259603023529
2017/07/09/10:22:18.752059,532342,1499566941,558945436,,0.785827877312,0.15228888246,0.121487439812,0.741233933981,0.670079947255,0.0342458324816,0.0198076338601,0.0604355554571,-0.301215367989,-0.0592935373071,0.0467644536418,-0.0566937715669,-0.437921940346,-2.90372037888,0.0726643651724,-0.353180885315,-0.242872446775,-1.26109075546,-0.268954306841
2017/07/09/10:22:18.761901,532343,1499566941,568946103,,0.786137718325,0.150233179092,0.120448570553,0.742643387753,0.668522733563,0.034589204145,0.0190194714288,0.0554175359668,-0.286777756075,-0.0646858649333,0.0570709336712,-0.0371679736285,-0.445833688229,-3.43866825104,0.036542609334,-0.344221383333,-0.201679468155,-1.54099798203,-0.25707873702
2017/07/09/10:22:18.771924,532344,1499566941,578938410,,0.786904187175,0.146628120304,0.120251016288,0.744103104602,0.666867775848,0.0348265770753,0.0196226600138,0.0504669049519,-0.279972256324,-0.0568871567276,0.0609954331617,-0.0276846516779,-0.412422181876,-2.87387490273,0.0682040601969,-0.639105021954,-0.232108533382,-1.34891593456,-0.282998502254
2017/07/09/10:22:18.781874,532345,1499566941,588937926,,0.787426672907,0.144392832565,0.119362635869,0.745121731472,0.665717474521,0.0351375938181,0.0194730302478,0.0658847618483,-0.284246641225,-0.0523559319884,0.0526785932899,-0.0536638101211,-0.432589185503,-2.94340467453,0.0975195914507,-0.52394592762,-0.203418672085,-1.56328129768,-0.252362012863
2017/07/09/10:22:18.791988,532346,1499566941,598946125,,0.788022436597,0.141588844643,0.118535272109,0.746481395827,0.66417819054,0.035348317402,0.0195794114207,0.0723052828469,-0.289399880881,-0.0531553894832,0.0512345688921,-0.0644794058512,-0.440677676377,-2.64884734154,0.138270974159,-1.19720494747,-0.29092335701,-1.41977262497,-0.279874324799
2017/07/09/10:22:18.801854,532347,1499566941,608942187,,0.789124806391,0.139520255201,0.118441364097,0.747751202259,0.662702645643,0.0361021763406,0.0197478060019,0.0744808915088,-0.301644082233,-0.05861142647,0.0460237320076,-0.0763378712923,-0.462380345182,-2.14975690842,0.659883499146,-0.927758395672,-0.497253060341,-1.33953845501,-0.312410414219
2017/07/09/10:22:18.811928,532348,1499566941,618942861,,0.789747842042,0.136182277225,0.11786199814,0.74903556651,0.661246022759,0.0359030338519,0.0202580761536,0.0890630680624,-0.271813775365,-0.0493070824818,0.0585156727319,-0.100605075755,-0.420323984971,-1.70957863331,0.313958019018,-0.912384927273,-0.487068146467,-1.14357328415,-0.309632509947
2017/07/09/10:22:18.821668,532349,1499566941,628941436,,0.790699197535,0.133254951168,0.117123690571,0.750420412602,0.659624808375,0.0367586971599,0.0203252234722,0.0940356132842,-0.278616209902,-0.0456210565325,0.0283922482867,-0.112635081018,-0.393441477623,-2.33057928085,0.0994037687778,-1.20131576061,-0.458605110645,-1.43694555759,-0.300332725048
2017/07/09/10:22:18.831910,532350,1499566941,638946011,,0.791825997892,0.130714766108,0.116907957017,0.751847234169,0.657958651659,0.0371724856941,0.0208411968557,0.100847879321,-0.297502728497,-0.0436117144823,0.0112553633656,-0.128502034361,-0.399762759051,-2.31025624275,0.0461779683828,-1.10850298405,-0.362421810627,-1.45373988152,-0.245354682207
2017/07/09/10:22:18.842065,532351,1499566941,648940872,,0.792610403401,0.127489339362,0.116451919677,0.75312817624,0.656461403548,0.0373217478923,0.0215281894098,0.0862005179846,-0.323068755812,-0.060855030487,-0.0017600983503,-0.0988886726987,-0.45664727334,-2.13426184654,0.361206829548,-1.32041716576,-0.465588510036,-1.41710913181,-0.258739352226
2017/07/09/10:22:18.851647,532352,1499566941,658946470,,0.793148181022,0.124670753039,0.115697118661,0.754181918985,0.655240763886,0.0375012840915,0.0215134402133,0.08688285996,-0.303879694477,-0.0645041423004,0.00116478440406,-0.0963661308635,-0.426681662959,-1.45096194744,0.333857804537,-1.76994001865,-0.37156739831,-1.16812360287,-0.220660254359
2017/07/09/10:22:18.862041,532353,1499566941,668946949,,0.794042810095,0.122619447658,0.11507281141,0.754801713022,0.654511588351,0.0375644988504,0.0218600814008,0.0769853358981,-0.292845961406,-0.0677992453483,-0.0104356396381,-0.0659782597007,-0.37399584443,-0.988453030586,0.649266898632,-1.95993292332,-0.3995398283,-1.09018242359,-0.23585626483
2017/07/09/10:22:18.871713,532354,1499566941,678977157,,0.794490214813,0.118540701741,0.114330032193,0.756991558722,0.651973324756,0.037400505084,0.0222658044945,0.0715711828056,-0.313683819436,-0.0692933514408,-0.0423791213405,-0.05306109214,-0.390804848743,-1.29560649395,-0.112877428532,-1.70183980465,-0.24997317791,-1.20312058926,-0.219779610634
2017/07/09/10:22:18.881795,532355,1499566941,688944627,,0.795151459618,0.115776553253,0.114219454222,0.758042649594,0.650734062963,0.0373428013856,0.0228481045097,0.0537357674136,-0.296457448801,-0.0682430008183,-0.0327669750498,-0.00486741158714,-0.387487807688,-1.70747578144,-0.108345702291,-1.31120216846,-0.138510107994,-1.35517537594,-0.195122614503
2017/07/09/10:22:18.891917,532356,1499566941,698960801,,0.795035825176,0.112883200458,0.112987787551,0.759002764483,0.649677211666,0.0364374534899,0.0225085790706,0.0354282317179,-0.300522638489,-0.072783360099,-0.0560210233767,0.0324365524691,-0.372695858872,-2.04742622375,0.189911991358,-1.22198700905,-0.264407634735,-1.45036935806,-0.225700139999
2017/07/09/10:22:18.902068,532357,1499566941,708967700,,0.794798804723,0.109323163731,0.111836229767,0.760306727059,0.648203521672,0.0356283066137,0.0222822586127,0.0239691502668,-0.306065045562,-0.0693237267014,-0.0527888238698,0.0566316876237,-0.374617695014,-2.43752837181,-0.197869941592,-1.04274821281,-0.183174580336,-1.57580447197,-0.210032761097
2017/07/09/10:22:18.911902,532358,1499566941,718946274,,0.795017650725,0.107408091079,0.111055417353,0.761271071196,0.647096229456,0.035282522749,0.022090033332,0.0174984199313,-0.337860660415,-0.0653354574886,-0.095829244406,0.0622177684126,-0.382630181788,-1.54425191879,0.770755529404,-0.894397735596,-0.367121815681,-1.19510507584,-0.245060324669
2017/07/09/10:22:18.921659,532359,1499566941,728942358,,0.794745052177,0.103927395816,0.110175514954,0.762564274875,0.645623262511,0.0344137446598,0.0219550396757,-0.00549228916123,-0.304498585535,-0.0818541020107,-0.0668165130711,0.123317589407,-0.350263079315,-1.72389948368,0.0721803605556,-0.992473840714,-0.237903743982,-1.24945831299,-0.189313933253
2017/07/09/10:22:18.931865,532360,1499566941,738942235,,0.794586406125,0.101146340132,0.109293502591,0.763400565854,0.644682312318,0.0336726766037,0.0216897000276,-0.0270616832896,-0.324877781642,-0.0865428061196,-0.08060414633,0.170836583166,-0.354505725615,-0.15227919817,-0.0783927589655,-1.12600111961,-0.0562873482704,-0.706621706486,-0.130787745118
2017/07/09/10:22:18.942250,532361,1499566941,748951990,,0.794329833601,0.0987409652692,0.108676560028,0.764112158353,0.643897172138,0.0327461297262,0.0213712928444,-0.0241078682797,-0.326332700159,-0.0790634983269,-0.0898170715752,0.166045293322,-0.353688299298,-0.113763898611,0.776366114616,-0.911765933037,-0.256068855524,-0.69207328558,-0.160310357809
2017/07/09/10:22:18.951948,532362,1499566941,758951614,,0.79333173417,0.0945447913878,0.10796697855,0.766020198218,0.64172613511,0.0310703154918,0.0208628601659,-0.0382045246067,-0.298841937635,-0.0852335787717,-0.0517104558251,0.202638305597,-0.31939469231,-0.716071903706,-0.0122663974762,-0.781263053417,-0.146726578474,-0.852676749229,-0.158567398787
2017/07/09/10:22:18.962119,532363,1499566941,768952669,,0.793430519496,0.0920875969291,0.107581394648,0.766805581237,0.640815152324,0.0303736580093,0.0210376337727,-0.0564122752243,-0.321740277923,-0.0939285836661,-0.0687885007488,0.241256728761,-0.373414001232,-0.843760073185,0.0179455280304,-0.422228753567,-0.179870307446,-0.907885193825,-0.177688226104
2017/07/09/10:22:18.971648,532364,1499566941,778952266,,0.793056878522,0.0898016153891,0.106055596702,0.767410155654,0.640165467043,0.0292445860738,0.0203612865409,-0.0481369085848,-0.299821141674,-0.0920539952797,-0.0583496307293,0.228025323544,-0.354474068895,-1.08883082867,0.140190169215,-0.632729828358,-0.154330506921,-0.948726773262,-0.132519394159
2017/07/09/10:22:18.981596,532365,1499566941,788939652,,0.791966013925,0.0858043995842,0.105487700975,0.769049311083,0.638272125965,0.0278803373037,0.0198629587599,-0.0598126535181,-0.321002315416,-0.094802356061,-0.0733568091487,0.24369929078,-0.356757918707,-0.448226243258,-0.0735606849194,-0.650656223297,-0.176652908325,-0.609651088715,-0.178768724203
2017/07/09/10:22:18.992108,532366,1499566941,798951768,,0.791584261982,0.083178491568,0.104307577924,0.770323060182,0.636795268872,0.0269653674322,0.0191582215793,-0.0690125458733,-0.311173542676,-0.0951976201528,-0.0664694259353,0.268433005649,-0.356074161879,-0.108950704336,0.0421613454819,-0.847874939442,-0.245293825865,-0.48198735714,-0.165898382664
2017/07/09/10:22:19.001859,532367,1499566941,808952264,,0.791362065666,0.0811551914624,0.103718123694,0.770674534515,0.636417047143,0.0260264467259,0.0188872450752,-0.0741971328558,-0.289484272678,-0.0988393074209,-0.059818240575,0.288041778797,-0.3309812817,0.124789059162,-0.00567984580994,-0.447302103043,-0.236301794648,-0.38548848033,-0.190201878548
2017/07/09/10:22:19.011855,532368,1499566941,818957962,,0.789874817327,0.0784782156763,0.101997555051,0.772128237274,0.634771503502,0.0241312630787,0.0173437506759,-0.0768236824002,-0.291823444322,-0.0880542844586,-0.0681290410262,0.287983803454,-0.303749956476,0.401565819979,0.274839669466,-1.05776333809,-0.23133546114,-0.203623086214,-0.164178580046
2017/07/09/10:22:19.021914,532369,1499566941,828943971,,0.789121061874,0.074931457304,0.101822740005,0.773049699308,0.633697691571,0.0229589219842,0.0171547660454,-0.078864165487,-0.310728992738,-0.0880543881881,-0.0947106235315,0.289729468108,-0.323906272442,-0.139552623034,-0.0760805904865,-0.693629682064,-0.301308363676,-0.312919616699,-0.228920951486
2017/07/09/10:22:19.031524,532370,1499566941,838943741,,0.788658712674,0.0717404056474,0.101414101121,0.773927062481,0.632675308432,0.0214761460847,0.0172519914653,-0.083018292347,-0.28685432849,-0.0790795325797,-0.0842519343452,0.308765429421,-0.300492553014,0.550813376904,-0.434833467007,-0.691331148148,-0.109408900142,-0.0551870837808,-0.192108824849
2017/07/09/10:22:19.042130,532371,1499566941,848937097,,0.787690338215,0.069597453774,0.100618048687,0.774721573348,0.631774838487,0.019909735333,0.0164511301637,-0.0921624404484,-0.289825187354,-0.0826592637276,-0.112122318159,0.327411408311,-0.28433068224,0.650969982147,-0.221471339464,-0.748753726482,-0.14773273468,0.0386504754424,-0.236707732081
2017/07/09/10:22:19.051950,532372,1499566941,858942120,,0.786650954406,0.0667152563244,0.0991364053844,0.775595909677,0.63077186887,0.0182178570644,0.0156826024216,-0.099196426353,-0.274976737131,-0.090742669564,-0.10722133684,0.348354666162,-0.259476884816,1.45295834541,-0.351212531328,-1.12763404846,-0.130502358079,0.417262643576,-0.265917181969
2017/07/09/10:22:19.061749,532373,1499566941,868938166,,0.785810174036,0.0636484410577,0.0985420529855,0.775934650555,0.630409708536,0.0163444773596,0.0155523474653,-0.114202729159,-0.295850667805,-0.10993623877,-0.112112842205,0.373619585456,-0.28251841065,1.70320320129,-0.271540462971,-0.865664064884,-0.0369356125593,0.4954675138,-0.254021972418
2017/07/09/10:22:19.071903,532374,1499566941,878946663,,0.784581828384,0.0613953452067,0.097692677701,0.777298003648,0.62878872176,0.0150529714807,0.0143514794329,-0.095422034986,-0.272726420898,-0.0844924717535,-0.105930437482,0.324787861822,-0.234937791445,2.31730985641,-0.738544166088,-0.443225592375,0.129798695445,0.78668230772,-0.249516159296
2017/07/09/10:22:19.081817,532375,1499566941,888942489,,0.783869433709,0.0583218662845,0.0966214126492,0.778132940974,0.627799796946,0.0135728204388,0.0138679367823,-0.104164595979,-0.292897767167,-0.0858189419923,-0.111242535207,0.327889352392,-0.282649831008,1.80962109566,-0.636419355869,-0.265405476093,-0.0451182872057,0.640622138977,-0.282247364521
2017/07/09/10:22:19.092146,532376,1499566941,898956301,,0.78297091847,0.0561646909023,0.0953762435561,0.778665691976,0.627184890067,0.0118092919516,0.0133938207997,-0.0960489875981,-0.27213156799,-0.0867076789046,-0.08903870509,0.32044073405,-0.273238809034,2.14720153809,0.0946459174156,-0.605517506599,-0.193583905697,0.789046883583,-0.282054513693
2017/07/09/10:22:19.101745,532377,1499566941,908943621,,0.781395103916,0.0531460998082,0.0948746177428,0.779321209807,0.62642111339,0.00962205062484,0.0127458536698,-0.102091042429,-0.281846880371,-0.0903258172094,-0.120994510523,0.330412551977,-0.240585633682,1.57426857948,0.123264014721,-0.624003410339,-0.316957384348,0.697975873947,-0.315154969692
2017/07/09/10:22:19.111727,532378,1499566941,918974159,,0.780512740543,0.0513211307118,0.093628253725,0.779558023006,0.626164156886,0.00827478838136,0.0118010709215,-0.107605144096,-0.271117682496,-0.10015033036,-0.127661420971,0.342013394711,-0.195295344562,2.21863651276,-0.292185246944,-0.370183795691,-0.0879575535655,0.830980420113,-0.252625852823
2017/07/09/10:22:19.121748,532379,1499566941,928943134,,0.779724827788,0.0488477606593,0.0925539401666,0.780094353051,0.62551727252,0.00685459118143,0.0115739663508,-0.0975410915799,-0.268707077691,-0.0937701506173,-0.13635160724,0.317470531407,-0.150197989135,2.57514166832,-0.311356008053,-0.47928571701,-0.17513294518,0.987796545029,-0.289498269558
2017/07/09/10:22:19.131806,532380,1499566941,938948945,,0.778586453204,0.0460626029494,0.091793168825,0.780235270314,0.625369266823,0.00512908725968,0.0109496819201,-0.0822374948025,-0.25430948104,-0.0857036623278,-0.121450154833,0.288681266476,-0.0866659989263,3.08049058914,-0.72579574585,-0.872998774052,-0.00822913646698,1.13171851635,-0.302147895098
2017/07/09/10:22:19.142203,532381,1499566941,948955605,,0.778519363367,0.044175468299,0.0910691349652,0.780189999234,0.625430409491,0.00431904784579,0.0110323979323,-0.0808475194963,-0.248209898133,-0.0876782829507,-0.0952822462103,0.270025430294,-0.0918369934512,3.61354899406,-0.377881228924,-0.54004752636,0.00587494671345,1.24408638477,-0.249245226383
2017/07/09/10:22:19.151730,532382,1499566941,958943044,,0.778127495626,0.0422529969619,0.0904185629118,0.780537678292,0.625006858805,0.00362493202428,0.0106873327363,-0.0722853214959,-0.239676352176,-0.076061825498,-0.112761321069,0.240411856827,-0.0473231471418,3.30125045776,-0.305882155895,-0.70128172636,-0.0434224158525,1.17711675167,-0.256776362658
2017/07/09/10:22:19.161792,532383,1499566941,968942326,,0.777159805596,0.0396243476986,0.0892590529675,0.78058649011,0.624961767632,0.00236176913658,0.0100966579785,-0.0616851921197,-0.23237332411,-0.0880763980343,-0.0999610725293,0.215541878643,-0.00478824447018,3.56821846962,-1.22624027729,-1.12430751324,0.123246714473,1.35231697559,-0.237344816327
2017/07/09/10:22:19.171833,532384,1499566941,978942140,,0.777163038776,0.0369832517442,0.0890593520478,0.78079101951,0.624701773482,0.00182800834783,0.0104755164786,-0.0514497677517,-0.237353032078,-0.083945221061,-0.0967448130975,0.176445932381,-0.00199576862476,3.61293244362,-0.834132552147,-0.477998524904,0.122915945947,1.32967031002,-0.156333267689
2017/07/09/10:22:19.181526,532385,1499566941,988966106,,0.776467002813,0.0349918253102,0.0879694943435,0.780462842123,0.625117502206,0.000636850952746,0.0102691246874,-0.0411351450934,-0.20952492463,-0.0799111862654,-0.0812075714618,0.150924429288,0.051345139826,3.40462255478,-0.722130775452,-0.622633516788,0.0360623896122,1.36442232132,-0.183947384357
2017/07/09/10:22:19.192142,532386,1499566941,998945814,,0.775147711819,0.032763330582,0.0867027205668,0.780458391796,0.625133979672,-0.000914218459874,0.00955878333241,-0.061279758608,-0.235834656262,-0.0795554389732,-0.111527115485,0.171166893426,0.0170702572396,3.14725470543,-0.676551878452,-0.675345420837,0.0297413468361,1.27143871784,-0.197160169482
2017/07/09/10:22:19.201812,532387,1499566942,8944792,,0.775522203231,0.0315594526283,0.0865479817028,0.779902029708,0.625820700678,-0.0010976003131,0.0100034960567,-0.069345351311,-0.228343427022,-0.0838007468868,-0.106797779646,0.188235188125,0.0537586302951,4.92024421692,-0.513492524624,-0.899885594845,0.107174828649,1.86139178276,-0.137140035629
2017/07/09/10:22:19.211535,532388,1499566942,18937954,,0.774976206087,0.0291276586729,0.0859774237091,0.780302556685,0.625321621713,-0.0018376994006,0.00986976744762,-0.0295301001946,-0.209843386108,-0.0658242049805,-0.0979253568445,0.102081491686,0.0126993214827,5.72816944122,-0.770067989826,-0.886798083782,0.0771556049585,2.12811183929,-0.185784876347
2017/07/09/10:22:19.221659,532389,1499566942,28943250,,0.774600348638,0.0272384605717,0.0852264412838,0.780648684821,0.62488292342,-0.00271921973013,0.0100781322338,-0.0507415366557,-0.202533038824,-0.0780324470594,-0.0768851731026,0.144158652127,-0.0556721948448,4.3933429718,-0.80537879467,-0.982412099838,0.211362853646,1.55690217018,-0.131248220801
2017/07/09/10:22:19.231925,532390,1499566942,38946446,,0.774254803539,0.0254768002216,0.0842891039584,0.781656733124,0.62362567772,-0.0028629744148,0.00977594125185,-0.0437782398331,-0.206521069062,-0.0726524778114,-0.0864291963143,0.113101313549,-0.178486798122,4.12467813492,-1.41272783279,-0.905730545521,0.426393806934,1.48014366627,-0.129688769579
2017/07/09/10:22:19.242368,532391,1499566942,48946038,,0.773896787496,0.0235473940195,0.0834481414977,0.781784241325,0.623465555905,-0.00330847439069,0.00965166379766,-0.0402486896985,-0.188997105985,-0.0865827542749,-0.0598272397073,0.095357227117,-0.213915210029,3.71419167519,-0.986809492111,-0.709334552288,0.43339908123,1.30582654476,-0.0985195711255
2017/07/09/10:22:19.251692,532392,1499566942,58946043,,0.773617709542,0.0217870327098,0.0826312154339,0.782638348475,0.622394788029,-0.00336242091655,0.00952037059036,-0.0217972719847,-0.184329277126,-0.0821418028265,-0.0396526702092,0.0354243584314,-0.21053484766,3.3354074955,-1.28022420406,-0.478720456362,0.447920441628,1.24508011341,-0.0469692759216
2017/07/09/10:22:19.261744,532393,1499566942,68939969,,0.773545327664,0.0204054616889,0.0822497276169,0.782418092859,0.622664292122,-0.00380820789866,0.00982877590134,-0.0270464847909,-0.157866162224,-0.0921849655771,-0.00997193823245,0.0521970977142,-0.0564160777532,3.8001332283,-1.24558198452,0.189941465855,0.409997582436,1.3975507021,-0.0678162425756
2017/07/09/10:22:19.271771,532394,1499566942,78939468,,0.773088332698,0.0191150417111,0.0812479242833,0.781699020858,0.623567886336,-0.0041435244376,0.00962097316826,-0.0208230628618,-0.166484556234,-0.0682134365431,-0.0372099609095,0.0283149833906,0.06405241203,3.25367856026,-0.67256373167,-0.338631331921,0.164848029613,1.24578464031,-0.104004897177
2017/07/09/10:22:19.281829,532395,1499566942,88969614,,0.773337454964,0.0173513243234,0.0806248372434,0.781657905575,0.623609947277,-0.00427534495867,0.01016236856,-0.0244864064618,-0.163237435896,-0.0736385133604,-0.0191919494722,0.0213687960553,0.0636750209969,4.02079772949,-0.795795500278,-0.622515380383,0.232261300087,1.49556100368,-0.0988327786326
2017/07/09/10:22:19.292289,532396,1499566942,98947805,,0.772688719557,0.0161073663407,0.0796152689834,0.781484373086,0.623835558558,-0.00444989755972,0.00956916466175,-0.025585855889,-0.148170977767,-0.0898706514858,0.00645416200146,0.0291298873705,0.0428235639362,3.66704535484,-0.779419004917,-0.492784023285,0.337068080902,1.40720582008,-0.0676072835922
2017/07/09/10:22:19.301923,532397,1499566942,108942261,,0.771877771649,0.0150671581275,0.0782230250482,0.781617103111,0.623683244874,-0.00464102687353,0.00850735316031,-0.0360612521673,-0.139393542906,-0.0972458981729,0.024893526927,0.0474833689729,0.0385514172993,3.36371064186,-0.911457717419,-1.0864855051,0.238460630178,1.45578038692,-0.137074887753
2017/07/09/10:22:19.311937,532398,1499566942,118940714,,0.772118627727,0.0135994484453,0.0773522528943,0.781227612009,0.624170968424,-0.00408642945756,0.00879326479031,-0.0431446237887,-0.113887188978,-0.109996768463,0.074526316172,0.0669390629222,0.0445647662166,4.04019832611,-0.771921634674,-0.902777850628,0.290178120136,1.58752322197,-0.117931880057
2017/07/09/10:22:19.321882,532399,1499566942,128938560,,0.77168062628,0.0121304141528,0.0766017973607,0.781497275704,0.623834655161,-0.00419326615241,0.00864566980255,-0.047566881917,-0.108461377298,-0.108802611396,0.0756661485203,0.0690388941217,0.037565051867,3.29018640518,-1.11955118179,-0.116111330688,0.316053718328,1.3134304285,-0.122298449278
2017/07/09/10:22:19.331699,532400,1499566942,138955206,,0.771350383561,0.0122125626063,0.0756611012015,0.780935935975,0.624548338519,-0.00420352873227,0.00779532559382,-0.0474657372478,-0.126983430851,-0.109274639692,0.0611040556223,0.0564828189724,-0.012859171371,3.47023963928,-0.427406132221,-0.286632984877,0.162174895406,1.39347267151,-0.113759145141
2017/07/09/10:22:19.342529,532401,1499566942,148942023,,0.77071866052,0.00978475518753,0.074968700387,0.781540325629,0.623791003559,-0.00433915952815,0.00778941516001,-0.0528290160628,-0.134204827138,-0.105691535933,0.0625925470278,0.0670276935593,0.00175466781292,3.39376997948,-0.397066444159,-0.174645140767,0.1579952389,1.41713821888,-0.143779575825
2017/07/09/10:22:19.351779,532402,1499566942,158942234,,0.769740327321,0.00928889505173,0.0736327293684,0.780522039341,0.625076572335,-0.00455096954949,0.00662672588425,-0.0513972985682,-0.114729152703,-0.0889516654361,0.0747425755412,0.0675331674364,0.0723748484008,2.88999938965,-0.609804689884,-0.516923666,0.292693555355,1.21022462845,-0.0986649394035
2017/07/09/10:22:19.361969,532403,1499566942,168942405,,0.768854355505,0.00818045926617,0.0726693569606,0.778664476036,0.627390586589,-0.00515626697684,0.00600820527117,-0.0638708749464,-0.0929818073584,-0.101830095752,0.0740845285188,0.113229163154,0.357699191429,3.6446814537,-0.605943620205,-0.77473038435,0.146776735783,1.52769291401,-0.167675495148
2017/07/09/10:22:19.371811,532404,1499566942,178950289,,0.768461352216,0.00769104052057,0.0716468468394,0.777250449901,0.629147217631,-0.00507144852204,0.00545867066793,-0.0658322777337,-0.0756160625863,-0.102792750091,0.082728272298,0.130778697782,0.604013241914,3.49037003517,-0.30927246809,-0.843308806419,0.0727757513523,1.47347152233,-0.283294796944
2017/07/09/10:22:19.381753,532405,1499566942,188945995,,0.767504468939,0.00630208462509,0.0707180303058,0.777427974533,0.628928545411,-0.00561399999411,0.00480751328585,-0.075725284373,-0.10762896926,-0.107130591952,0.0740356141789,0.123398859417,0.343814477322,2.76578640938,-0.742578744888,-0.817396998405,0.233810812235,1.18507122993,-0.221354082227
2017/07/09/10:22:19.391859,532406,1499566942,198938351,,0.767566743113,0.00566653357254,0.0698280066018,0.777128591558,0.629302939649,-0.00516896239523,0.00471637142198,-0.0559809889985,-0.0884119056844,-0.0961383453243,0.0590012366919,0.0794342783911,0.120260047132,2.90708303452,-0.950266420841,-0.399565041065,0.380828440189,1.17209339142,-0.167246177793
2017/07/09/10:22:19.401990,532407,1499566942,208942619,,0.767376724385,0.00467493636257,0.0691884787099,0.777092116753,0.629349255218,-0.00493474003569,0.00479639219856,-0.0548274906458,-0.116817824043,-0.100561274808,0.0660973889181,0.0475633457305,-0.00300200566397,2.66858458519,-0.978397965431,0.176912456751,0.377354830503,1.02641046047,-0.169463515282
2017/07/09/10:22:19.411981,532408,1499566942,218943153,,0.766451529875,0.00294945058235,0.0676239846379,0.77700905904,0.629452367152,-0.00528106982514,0.00433012216188,-0.0307672623849,-0.116797937756,-0.0932829582479,0.0342858767246,-0.0109040528329,0.0163514631162,2.00100874901,-0.87873506546,-0.184335395694,0.220515608788,0.857486128807,-0.18256278336
2017/07/09/10:22:19.421722,532409,1499566942,228945389,,0.766698817621,0.00225097841054,0.0671135534854,0.776676696512,0.629865276573,-0.00468078796875,0.00459703013562,-0.0322150950698,-0.123462190048,-0.0943435419458,0.0257874282058,-0.0227993478328,0.027006144012,2.48859190941,-0.629403591156,0.258453011513,0.0815044939518,1.0331312418,-0.212435930967
2017/07/09/10:22:19.431809,532410,1499566942,238945435,,0.766241153587,0.00115274557822,0.066351646016,0.776157189967,0.630505390251,-0.00479947588217,0.00446479103364,-0.0196508546845,-0.111604441398,-0.0923929611406,0.0261026158769,-0.0397165648821,0.0875757280444,3.25320720673,-0.83429056406,0.448539733887,0.177387848496,1.33549571037,-0.20723259449
2017/07/09/10:22:19.442121,532411,1499566942,248952142,,0.765470456236,-0.000571952486506,0.0650350211591,0.775885118283,0.63083963901,-0.00497311164901,0.0043475557676,-0.00954148968255,-0.111681044949,-0.077709337595,0.0083592175267,-0.0616780672124,0.121878612304,3.55064582825,-0.793291449547,-0.229795232415,0.177577659488,1.51726257801,-0.193471178412
2017/07/09/10:22:19.451934,532412,1499566942,258947824,,0.766225567964,-0.00120223700998,0.0645732354196,0.775473151618,0.631345736889,-0.00426662433637,0.00507420423058,-0.00938347575224,-0.10865413681,-0.0800472778068,0.00370615019821,-0.0602337991112,0.122987098846,4.6193728447,-1.1802059412,-0.20728379488,0.366572737694,1.86804163456,-0.216718018055
2017/07/09/10:22:19.461993,532413,1499566942,268942433,,0.765744721924,-0.002569727176,0.063936474202,0.775281544373,0.631580425877,-0.00429936261544,0.00511938314438,-0.0269347464995,-0.14659936839,-0.081819974041,-0.0376029286342,-0.0374471561615,0.129049032043,3.96523571014,-1.57071661949,0.0251772310585,0.54010361433,1.67129266262,-0.181639492512
2017/07/09/10:22:19.471814,532414,1499566942,278938928,,0.765143806699,-0.00407489043049,0.0631769164012,0.774967363011,0.631964205929,-0.00456213903862,0.00510054704811,-0.0397815343293,-0.133406113493,-0.0838856191232,-0.0167433541755,0.00155147248802,0.14336894817,3.59745717049,-1.21915555,0.296932190657,0.488324314356,1.62923049927,-0.201416432858
2017/07/09/10:22:19.482088,532415,1499566942,288939198,,0.764709784954,-0.00452274098018,0.0620610946053,0.774529108267,0.632507621215,-0.004296311198,0.00450680173567,-0.020842042116,-0.114499288058,-0.0668103236362,-0.000357861960639,-0.0341139388672,0.142477246377,3.3595032692,-1.38975822926,0.345709502697,0.498227357864,1.58948230743,-0.21930898726
2017/07/09/10:22:19.492349,532416,1499566942,298951013,,0.764506380825,-0.00543798706202,0.0614293275513,0.773554102473,0.633699415604,-0.00431432480066,0.00452634642284,-0.0442104033652,-0.122274400777,-0.0836591406393,0.0197516376142,0.0145957812802,0.126100552429,2.98921632767,-0.527262091637,0.472478866577,0.286356151104,1.41148674488,-0.215590834618
2017/07/09/10:22:19.501988,532417,1499566942,308943747,,0.763969028206,-0.00706624827247,0.0606300476015,0.77310412703,0.634246832284,-0.00445602137202,0.00459438582208,-0.0426873666235,-0.103072269454,-0.0805053343383,0.042517134095,0.0142997132542,0.19087365688,3.62509131432,-0.848280191422,0.523204982281,0.328948736191,1.65930819511,-0.207095101476
2017/07/09/10:22:19.511893,532418,1499566942,318948112,,0.763434952133,-0.00725109858823,0.0598592416303,0.772724524932,0.634716646686,-0.00422136109623,0.00371040410795,-0.0464173230946,-0.115185095357,-0.0775963044249,0.0529725781467,0.0115745930168,0.157631837779,3.35945677757,-0.321239292622,0.300175219774,0.183930844069,1.54101419449,-0.19117680192
2017/07/09/10:22:19.521912,532419,1499566942,328943278,,0.762849615228,-0.00913994190621,0.0594871464971,0.772442220496,0.635057766631,-0.00443431599502,0.00387115986037,-0.059521559266,-0.0856169046554,-0.0937627531168,0.0713030873246,0.0671050369844,0.185832938254,3.46165966988,-1.30448114872,0.126535654068,0.357909977436,1.60467922688,-0.210825577378
2017/07/09/10:22:19.531761,532420,1499566942,338945920,,0.762479366295,-0.0103215147312,0.0590193813629,0.771965133213,0.635638291052,-0.00434117204172,0.00386655878899,-0.0647007435794,-0.115186713467,-0.0759994469213,0.0500080270369,0.0558373591897,0.135080878586,3.393897295,-1.09346115589,0.342493832111,0.446089029312,1.45345032215,-0.153257921338
2017/07/09/10:22:19.542124,532421,1499566942,348949578,,0.761418242026,-0.0115864122724,0.0577035739742,0.772110242221,0.635466596136,-0.00439981545738,0.00293609881226,-0.0658827316214,-0.111564443626,-0.0831457035536,0.0327040321785,0.0651093226107,0.142503715795,2.62784433365,-1.15860843658,0.397987216711,0.318769872189,1.15944910049,-0.154841706157
2017/07/09/10:22:19.552410,532422,1499566942,358946469,,0.760952313634,-0.0121817411457,0.0568631010874,0.770721509253,0.63714565729,-0.00506053675929,0.00285614054735,-0.0555084452371,-0.132199246675,-0.0803608368783,0.023228635116,0.0276802410023,0.155612780333,3.34990239143,-0.642225146294,-0.0494767725468,0.338163018227,1.4259865284,-0.131717398763
2017/07/09/10:22:19.561829,532423,1499566942,368940877,,0.760913364797,-0.013225744951,0.0560453209082,0.770168671736,0.637818380085,-0.00437458180941,0.00296549101816,-0.0511629325807,-0.114493153582,-0.0840737625801,0.010245961792,0.0355562069668,0.210373324164,3.41825556755,-0.672713398933,0.0835198909044,0.335157960653,1.39965212345,-0.147809132934
2017/07/09/10:22:19.571674,532424,1499566942,378948787,,0.760392508969,-0.0142194696204,0.0552866585628,0.770113272755,0.637886662184,-0.00443400297288,0.00254812710077,-0.0500375579912,-0.109367034703,-0.0874647804489,0.0340083411639,0.0248032254509,0.162503060327,3.36242437363,-0.26216390729,0.503207266331,0.220379918814,1.3477178812,-0.134064361453
2017/07/09/10:22:19.581751,532425,1499566942,388945906,,0.75935250168,-0.0160519885523,0.0542276298214,0.770411777157,0.637523147196,-0.00490970112162,0.00241355374188,-0.0416893988459,-0.0957813186547,-0.0874200083111,0.0287475171942,0.0208077640066,0.0937590579028,3.68283963203,-1.53970384598,0.251503229141,0.551329731941,1.68385863304,-0.128927066922
2017/07/09/10:22:19.592130,532426,1499566942,398945851,,0.759513548438,-0.0164200593845,0.0536238862385,0.770093187669,0.637912229762,-0.00426906946832,0.00249889411467,-0.0558987352507,-0.120411091294,-0.0959599550855,0.0325353903782,0.0212439861236,-0.0150020820724,3.13183498383,-0.786541342735,0.788703739643,0.414223402739,1.3775254488,-0.148631706834
2017/07/09/10:22:19.601863,532427,1499566942,408945074,,0.758546464318,-0.0180353708035,0.0523526534803,0.770507066089,0.637411034046,-0.0046445204103,0.00211263189279,-0.0375989958606,-0.111098274895,-0.0969338951026,0.0355751089318,-0.0101615330686,-0.0363074871984,2.35984277725,-1.22876894474,0.561283946037,0.589506983757,1.10486710072,-0.0740396231413
2017/07/09/10:22:19.611774,532428,1499566942,418940559,,0.758255981919,-0.0192748250346,0.0515492887155,0.770456152025,0.637473088218,-0.0045190177918,0.00222667531916,-0.0522736548433,-0.130572623345,-0.101230012675,0.0366314679089,0.0041691917298,-0.0942577702112,2.60965323448,-0.850482583046,0.420074105263,0.409510225058,1.20932102203,-0.137634977698
2017/07/09/10:22:19.621853,532429,1499566942,428951174,,0.758606212721,-0.0202057198147,0.0506621278322,0.770432147751,0.637504497071,-0.00397186571193,0.00255855609414,-0.0292344276468,-0.104537623587,-0.0953904229648,0.0190465033815,-0.0213803985724,-0.000361556276192,2.98163223267,-0.555277109146,0.6693598032,0.226663187146,1.28035700321,-0.163973644376
2017/07/09/10:22:19.631763,532430,1499566942,438940260,,0.757972285446,-0.0209601538729,0.0500614762662,0.770239124815,0.637740735489,-0.00378517942202,0.00202911769807,-0.038629068936,-0.134852850726,-0.094151585258,0.0154451366922,-0.0243785297106,0.0206401178664,3.27235746384,-0.395142316818,0.931873440742,0.202221810818,1.35778069496,-0.126245975494
2017/07/09/10:22:19.642148,532431,1499566942,448951760,,0.757170503986,-0.0224457504504,0.0481071504964,0.769956307047,0.638081162173,-0.00406676654133,0.00178245025763,-0.0421688121101,-0.110372800023,-0.09947516722,0.0528236784748,-0.0104302022714,0.0750451327455,2.77326464653,-0.850891649723,0.0591273494065,0.368113338947,1.19161534309,-0.107843048871
2017/07/09/10:22:19.651880,532432,1499566942,458946003,,0.757147650963,-0.0228078247869,0.0477608487054,0.76939563095,0.638760062525,-0.00359128430827,0.00174593095258,-0.0440770632446,-0.108792433566,-0.105546840916,0.0392158187943,0.0028107295182,0.123210422783,3.66918301582,-0.728081345558,0.8658208251,0.354939222336,1.49113619328,-0.100204654038
2017/07/09/10:22:19.662190,532433,1499566942,468939420,,0.756226012741,-0.024734915718,0.0469203888225,0.769296324807,0.638878614452,-0.00383793064371,0.00159716110523,-0.0532493755561,-0.144702505783,-0.0986902162023,0.0238856389771,-0.00522207584679,0.0648707349092,3.1499171257,-1.1784478426,0.586602270603,0.449545860291,1.33829879761,-0.113657400012
2017/07/09/10:22:19.671893,532434,1499566942,478948424,,0.756110838476,-0.0259653092277,0.0459437923896,0.769006298697,0.63922939856,-0.00350304673982,0.00167846484996,-0.0565088456038,-0.104475763739,-0.100680234905,0.0526335008329,0.0228366932073,0.134028562719,3.32171154022,-1.72877502441,0.483332067728,0.638524949551,1.3193846941,-0.0681081116199
2017/07/09/10:22:19.681920,532435,1499566942,488938063,,0.755677489022,-0.0270186148988,0.045088666991,0.76905818118,0.639169976235,-0.00303130209128,0.00143758409321,-0.0613007872992,-0.12858387068,-0.103714294403,0.0529279113863,0.0161153110415,0.0793421725384,3.36008548737,-1.63651251793,0.634912490845,0.610742628574,1.39072620869,-0.078783378005
2017/07/09/10:22:19.691817,532436,1499566942,498943440,,0.75487042984,-0.0282050713247,0.0436477687609,0.76863595346,0.639676907755,-0.00336202173351,0.000959970395062,-0.0666686292156,-0.124303613136,-0.106769343115,0.0652216013712,0.028300214505,0.0683672010876,3.25586915016,-1.01731681824,0.465095281601,0.461714148521,1.31417608261,-0.0571435801685
2017/07/09/10:22:19.701839,532437,1499566942,508945738,,0.754153751443,-0.0283039124217,0.0421505616524,0.768324524347,0.640053178725,-0.00305766659683,-6.60794698374e-05,-0.0483991274162,-0.0999581388183,-0.11233901478,0.0631327700447,0.0068612429617,0.0910243116319,3.67641830444,-0.706454694271,0.583678781986,0.34909722209,1.46708786488,-0.0926403254271
2017/07/09/10:22:19.712080,532438,1499566942,518944410,,0.753848291809,-0.0296424007819,0.0416830462671,0.768051813878,0.640380695091,-0.00298956316323,0.00019765300477,-0.0594240534727,-0.117724009337,-0.10631576468,0.0504053589284,0.017990541033,0.0423436357252,3.99572443962,-0.528497695923,0.85221517086,0.289080351591,1.54351079464,-0.131699979305
2017/07/09/10:22:19.721871,532439,1499566942,528942421,,0.752873378017,-0.0322883600728,0.0405010270562,0.768364993923,0.640004671039,-0.00303497348122,0.000214704562663,-0.049906994307,-0.117223599232,-0.11218222193,0.0513865251695,-0.00289552911767,0.0672462902661,3.37545013428,-1.88971531391,0.438203334808,0.540024220943,1.46497118473,-0.111223474145
2017/07/09/10:22:19.731814,532440,1499566942,538945967,,0.751919435108,-0.0332427866464,0.0387194704947,0.768663261911,0.639646251891,-0.00301786078535,-0.000595606379609,-0.0499803907519,-0.125462089724,-0.108788668972,0.0573382826119,-0.0102294280027,0.0215719585819,3.54508876801,-1.44921135902,0.0604053884745,0.494044333696,1.4869158268,-0.107364796102
2017/07/09/10:22:19.742217,532441,1499566942,548958105,,0.751943457173,-0.0334803483877,0.0380329409912,0.767949407428,0.640503875135,-0.00286006827034,-0.000559979433975,-0.071293046894,-0.139424517065,-0.123131756653,0.0633695267878,0.0251066731354,-0.00803653004965,5.10163497925,-1.14305412769,0.336341679096,0.513451933861,2.0893535614,-0.111659407616
2017/07/09/10:22:19.751709,532442,1499566942,558972855,,0.751835512383,-0.0345318573197,0.0370133788439,0.767894762482,0.640570843031,-0.00251978461348,-0.000528674697551,-0.0589046324184,-0.102802530306,-0.116835697204,0.0685382690991,0.0255479807814,0.0159176689661,5.36168956757,-1.65135228634,0.827785968781,0.613735318184,2.14613747597,-0.131520345807
2017/07/09/10:22:19.762001,532443,1499566942,568946206,,0.750937846578,-0.0358650101538,0.0361220714446,0.767614421948,0.640906167001,-0.00255368402377,-0.00092898674474,-0.0615852354521,-0.0972876757136,-0.129871568125,0.0627868727029,0.0421619981828,0.111777360609,4.35062074661,-1.88402187824,0.763760864735,0.648362517357,1.79637801647,-0.105967529118
2017/07/09/10:22:19.771591,532444,1499566942,578943001,,0.750266900084,-0.0370966375863,0.0350621511477,0.766987893325,0.641655702697,-0.0024412025298,-0.00125348287174,-0.0531310344319,-0.124977792411,-0.109590628278,0.0408662493818,0.00745350608522,0.0911220959753,3.69965434074,-1.39132273197,0.675228178501,0.548901736736,1.56377673149,-0.104495964944
2017/07/09/10:22:19.781865,532445,1499566942,588937779,,0.749550309935,-0.0374711876827,0.0338685542917,0.766512474535,0.642222012048,-0.00215275438516,-0.00220890748158,-0.0731596387894,-0.0757090217098,-0.119878784744,0.103097906887,0.0647012089838,0.167791596404,3.52751493454,-1.28559815884,1.13872480392,0.365590631962,1.4790917635,-0.133903086185
2017/07/09/10:22:19.792009,532446,1499566942,598940634,,0.748960080198,-0.0386158378941,0.032255234206,0.765508606447,0.643417021181,-0.00237886917275,-0.00233480001128,-0.070205157189,-0.0874749566193,-0.109529459131,0.0879266251034,0.0505087883654,0.186064671003,3.63953471184,-1.63497388363,0.448632329702,0.566879808903,1.57328510284,-0.0782099068165
2017/07/09/10:22:19.802035,532447,1499566942,608947577,,0.747990834143,-0.0395403753273,0.0311958857365,0.764893937591,0.64414450308,-0.00264129618748,-0.00285428501687,-0.0720837076704,-0.0944740186584,-0.121295351089,0.086411552738,0.0493596361554,0.269226895043,4.02058076859,-1.74290835857,0.261564850807,0.60282933712,1.67584049702,-0.115057714283
2017/07/09/10:22:19.811936,532448,1499566942,618945781,,0.747435716562,-0.0400120561571,0.0301318548187,0.764452081479,0.644666304161,-0.00225386923474,-0.00364574756402,-0.0678410935261,-0.100977706498,-0.115044937088,0.0555473854923,0.0486070329973,0.277873166306,4.5410733223,-1.99755239487,0.287628114223,0.700792908669,1.85932552814,-0.105055734515
2017/07/09/10:22:19.821543,532449,1499566942,628939740,,0.746877433014,-0.0406010000534,0.0293227684821,0.763901646677,0.64531643721,-0.00197487310485,-0.00413157928259,-0.0727447488147,-0.0939783833911,-0.118420769,0.0659993536163,0.0635335066221,0.190711233538,5.36997270584,-1.66098701954,0.827366113663,0.682639837265,2.16042232513,-0.177853688598
2017/07/09/10:22:19.831925,532450,1499566942,638951391,,0.746005110831,-0.0421879256417,0.0278808820095,0.764052145688,0.645135602653,-0.00232573398372,-0.00435474681095,-0.06012721238,-0.0740979739718,-0.113869604475,0.080611143049,0.0455888220486,0.0839945494611,4.45692396164,-2.43087005615,0.231907829642,0.78885948658,1.9071290493,-0.164847940207
2017/07/09/10:22:19.842443,532451,1499566942,648942623,,0.745319303338,-0.0432704522118,0.0270368544771,0.764770899682,0.644281166138,-0.00226244372948,-0.004704392413,-0.0833323085444,-0.0925349139913,-0.122864162511,0.0871754917707,0.0829990909521,-0.031746186796,4.8497171402,-2.38042974472,0.588578701019,0.806359052658,2.08919620514,-0.144722521305
2017/07/09/10:22:19.852057,532452,1499566942,658941562,,0.744801345993,-0.0435163817109,0.0258040893808,0.764203674554,0.644949199972,-0.00214936209431,-0.00535289601477,-0.0686710281119,-0.108773469492,-0.112154489112,0.0817131815392,0.028268576655,-0.0835351392569,4.7229809761,-2.2608423233,0.227071747184,0.872547447681,2.06231093407,-0.14843788743
2017/07/09/10:22:19.862033,532453,1499566942,668952106,,0.74421587278,-0.0441706703875,0.0246987484241,0.764180520574,0.644973609563,-0.00211614455531,-0.00571811817276,-0.057208312096,-0.0918326647955,-0.10040682546,0.0734666102534,0.0187043162971,-0.0282244550692,4.87817049026,-1.82247233391,0.406218826771,0.682890594006,2.03869795799,-0.13702557981
2017/07/09/10:22:19.871945,532454,1499566942,678952475,,0.744147890054,-0.0448412138201,0.0234609508962,0.763988554966,0.645202472232,-0.0015782063652,-0.00572424418958,-0.0448295786712,-0.103181361462,-0.111154496291,0.0474849150677,-0.011160222082,-0.0138388287258,6.01286792755,-1.41242444515,-0.106911242008,0.68826764822,2.47046327591,-0.149759545922
2017/07/09/10:22:19.881850,532455,1499566942,688951403,,0.743193973767,-0.0467727844101,0.0225312580767,0.764589965709,0.644487619875,-0.00162345148056,-0.00593772432109,-0.0490980911901,-0.0826557779955,-0.127818792892,0.0671948673034,0.0074534122733,-0.00399669562922,5.50413274765,-2.97646665573,0.0440640971065,1.07222127914,2.38199949265,-0.124274671078
2017/07/09/10:22:19.892115,532456,1499566942,698950831,,0.743286861587,-0.0474351594764,0.0218026794095,0.764605228239,0.644473094454,-0.00124488844722,-0.0056325595323,-0.0490021986649,-0.0892660749947,-0.113541180253,0.0529806054685,0.00813010707035,-0.00444056697209,5.7283244133,-2.55699205399,-0.0749862194061,1.0321213007,2.39004349709,-0.149061441422
2017/07/09/10:22:19.902092,532457,1499566942,708939606,,0.742110492476,-0.0478638474385,0.019854683123,0.764144869593,0.645007544778,-0.00161050791101,-0.00672991224105,-0.0343305445887,-0.0999157667364,-0.10225432351,0.0391339361054,-0.0312697622298,-0.0149036100974,5.00343370438,-1.87839436531,-0.218774721026,0.752801597118,2.15164852142,-0.164387822151
2017/07/09/10:22:19.911653,532458,1499566942,718945797,,0.742049584859,-0.0498053976597,0.0193412592103,0.764399310988,0.644714988256,-0.00144397742889,-0.00584741032249,-0.0414375685629,-0.0876047072734,-0.117842176594,0.0420024235124,-0.00893927101249,0.0142879158387,4.38408851624,-2.4756295681,0.299692690372,0.820252299309,1.9105335474,-0.181578993797
2017/07/09/10:22:19.921699,532459,1499566942,728942939,,0.742346583088,-0.0499593737276,0.0186551644378,0.76430269192,0.64483147929,-0.000610552462077,-0.00577803309467,-0.0349706958909,-0.0987122940471,-0.106776772463,0.0311729893457,-0.041493514804,0.0149898361765,4.54243469238,-1.77587223053,0.429175853729,0.680464029312,1.96783339977,-0.18895933032
2017/07/09/10:22:19.931786,532460,1499566942,738947468,,0.742245193897,-0.0510644711888,0.0174168187571,0.764072471225,0.645106813565,-0.00011721940629,-0.00551761430671,-0.0244959992773,-0.084254562063,-0.108746409591,0.0475058317758,-0.0626515739669,0.0480969379983,4.84069108963,-1.85507678986,0.532790720463,0.668999731541,2.03335428238,-0.158342480659
2017/07/09/10:22:19.942249,532461,1499566942,748939280,,0.742055286554,-0.0515633831418,0.0167399033931,0.764236526455,0.644911112127,0.000426400528906,-0.00565749665665,-0.0246336262022,-0.0828491644319,-0.117533899691,0.0508971721234,-0.0694101495147,0.0778636935585,5.07140445709,-1.92417919636,1.11619400978,0.764785170555,2.11089897156,-0.160667896271
2017/07/09/10:22:19.951971,532462,1499566942,758950896,,0.742159728545,-0.0523415714671,0.0155851245699,0.763576395586,0.64569421507,0.00107416447335,-0.0053772576453,-0.00950994615861,-0.073623050326,-0.0992536031492,0.0509625987988,-0.0926588038958,0.0634051925738,4.71312427521,-1.72115135193,0.583051145077,0.618689775467,1.97713088989,-0.160334825516
2017/07/09/10:22:19.961884,532463,1499566942,768947053,,0.741898159946,-0.0530481871108,0.0146082196311,0.763234002411,0.646099258745,0.00121720418911,-0.00530319019271,-0.0294029978998,-0.069168306628,-0.120643238334,0.0607981728164,-0.0579846799252,0.0867863698056,4.41602420807,-1.59350180626,0.526668429375,0.558497071266,1.83893835545,-0.176173508167
2017/07/09/10:22:19.971823,532464,1499566942,778943878,,0.741769796818,-0.0541056693018,0.0131593124794,0.762504204016,0.646964871684,0.00136178777862,-0.00468392979106,-0.0240611350694,-0.095829357261,-0.107601608571,0.001592875743,-0.0794294829999,0.110840415786,4.84545230865,-1.56579625607,0.235574215651,0.684735178947,1.99236106873,-0.162418156862
2017/07/09/10:22:19.981721,532465,1499566942,788937824,,0.741569629386,-0.0547584426786,0.0123127745549,0.762240629019,0.647272341708,0.00211905381355,-0.004821695158,-0.0119492314823,-0.0806940927591,-0.117708193557,0.00997093818532,-0.0925473247049,0.152778665599,4.97873353958,-2.25883102417,0.905223309994,0.819259762764,2.05253481865,-0.150933757424
2017/07/09/10:22:19.991786,532466,1499566942,798944883,,0.741531485703,-0.0556757215711,0.011293352451,0.761681789244,0.647930913037,0.00264384061909,-0.00440385883171,-0.0128648891999,-0.11013208776,-0.111636080805,-0.00344596165122,-0.118012796114,0.10641188103,4.95868015289,-1.66355466843,0.830630302429,0.688122272491,2.05276083946,-0.160734787583
2017/07/09/10:22:20.002022,532467,1499566942,808945184,,0.741377043544,-0.0562739961103,0.0101460653391,0.761280437765,0.648401391863,0.00299461432085,-0.00433155754197,-0.00428773967566,-0.074908779791,-0.117419355347,0.021548734433,-0.120537968471,0.19447538383,5.04468202591,-1.63052034378,0.742187559605,0.623474836349,2.1296274662,-0.143244236708
2017/07/09/10:22:20.012059,532468,1499566942,818944192,,0.741591257163,-0.0574577459179,0.00920905409615,0.760534437653,0.649279586962,0.00339142634688,-0.00344751003741,-0.0104496167637,-0.0942013750716,-0.112380036047,0.000823469002878,-0.116986926161,0.149164120069,4.9313325882,-1.92450642586,0.798399448395,0.683359503746,1.97148787975,-0.142372339964
2017/07/09/10:22:20.021668,532469,1499566942,828941198,,0.741805457965,-0.0579103924439,0.00827780441384,0.759833226084,0.650096948099,0.00421980454135,-0.0031015902317,0.0105408186322,-0.0686868209005,-0.111033017053,0.0111951466034,-0.140708183158,0.19961245572,5.06847000122,-2.11495876312,0.875867664814,0.81213593483,1.98312568665,-0.110307298601
2017/07/09/10:22:20.031938,532470,1499566942,838966344,,0.741299715079,-0.0585903178304,0.00709270595148,0.759305854006,0.650712143436,0.00430312358388,-0.00313202557855,-0.0112021790809,-0.075272569648,-0.105814700026,0.0259466948102,-0.110425371045,0.188485036007,4.77556276321,-1.98463344574,0.0846332386136,0.752628684044,1.97701454163,-0.132980212569
2017/07/09/10:22:20.042337,532471,1499566942,848944842,,0.741754403276,-0.0595078365368,0.00619965073888,0.758599999716,0.651532973862,0.00501054723194,-0.0023914050635,-0.00702790772996,-0.0799344308093,-0.111068619876,0.00392589053746,-0.109919644236,0.193365070289,5.1635632515,-2.72123813629,0.21379417181,0.945844829082,2.10671186447,-0.11315664649
2017/07/09/10:22:20.051813,532472,1499566942,858945378,,0.741203673688,-0.0596707609246,0.00506353752192,0.758100532032,0.652110667955,0.00528874110973,-0.00269986856194,-0.0134899812085,-0.087965121158,-0.109044330699,0.0124342407299,-0.11171355259,0.171157739489,5.732858181,-2.28929114342,-0.124963589013,0.912403047085,2.36620402336,-0.113586097956
2017/07/09/10:22:20.061747,532473,1499566942,868941432,,0.740365883461,-0.0610420951532,0.00337212357968,0.757700327554,0.652573716135,0.00548655887552,-0.00276700318447,-0.000887967677201,-0.0659033942856,-0.108239473607,0.03036726988,-0.134203084558,0.204828428756,4.82308578491,-2.32913446426,0.206292301416,0.873042464256,2.0061507225,-0.106722131371
2017/07/09/10:22:20.071873,532474,1499566942,878943426,,0.740571184044,-0.0612279418624,0.00252656626811,0.757101496243,0.653264481238,0.00603338000651,-0.00253776775416,-0.00417747298277,-0.0813403013925,-0.102816561602,0.0177717303575,-0.133933418162,0.195985549489,4.98333692551,-2.29874038696,-0.157462343574,0.9631909132,2.09451413155,-0.0612665861845
2017/07/09/10:22:20.081833,532475,1499566942,888972590,,0.740327295455,-0.0622252174319,0.00151267596461,0.756241620137,0.654258533781,0.00629785071223,-0.0021725616236,-0.0127822302031,-0.0732605090106,-0.108604254061,0.0146976375547,-0.109957039275,0.23134863428,5.41050624847,-2.26158213615,0.0710478201509,0.750969231129,2.33065891266,-0.118017271161
2017/07/09/10:22:20.092240,532476,1499566942,898944780,,0.740789222042,-0.0618656744843,0.000931710401706,0.75528476778,0.655354609994,0.00718106506961,-0.00192016232991,-0.002431402544,-0.0613653436556,-0.0950390111699,0.00366261208991,-0.11965847799,0.255446611091,5.76444387436,-1.32317972183,0.263762384653,0.619364440441,2.33033514023,-0.0899041742086
2017/07/09/10:22:20.102047,532477,1499566942,908946494,,0.740689072514,-0.0635321354221,0.00013369209346,0.754491930021,0.656265407909,0.00752676913214,-0.000994817596956,-0.00436146917115,-0.0636986582776,-0.104180852458,-0.00741227852341,-0.114630721196,0.249564120973,5.54171562195,-2.39302825928,0.0732513740659,0.875718772411,2.36915969849,-0.0925777032971
2017/07/09/10:22:20.111834,532478,1499566942,918945392,,0.740345190798,-0.0639991543234,-0.00113321014681,0.753927066203,0.65691096607,0.00779797852527,-0.00107379450164,-0.018992067276,-0.0898524189325,-0.106933052217,-0.0156667087172,-0.106356528178,0.237352722994,5.35501384735,-2.67407870293,0.200514033437,0.965163946152,2.27196383476,-0.0780211240053
2017/07/09/10:22:20.121668,532479,1499566942,928938421,,0.740309363779,-0.0645836122872,-0.00188210600437,0.753162612151,0.657782500387,0.00824060126274,-0.000595260061633,-0.0141205593732,-0.0398838725091,-0.115742327051,0.0356372819476,-0.0866188254771,0.239928516121,5.31740474701,-2.12375354767,0.419515877962,0.897949516773,2.11447286606,-0.0284751802683
2017/07/09/10:22:20.131796,532480,1499566942,938945064,,0.739722399078,-0.0649878306945,-0.00340022747982,0.752480629717,0.658561538979,0.00830861823351,-0.000753751002077,-0.0372417440595,-0.0569289899935,-0.116048872236,0.0187408421617,-0.0484504534993,0.217627885032,4.67576408386,-1.99644136429,0.166354000568,0.703064382076,1.978474617,-0.0898525491357
2017/07/09/10:22:20.142148,532481,1499566942,948941591,,0.740057506085,-0.0653979245399,-0.00385017351161,0.752140168597,0.65894014989,0.00910999648294,-0.000231538126824,-0.0306119919457,-0.0599791365709,-0.102709362246,0.0400349187812,-0.0803413235806,0.173064433518,4.60058498383,-1.65219628811,0.819356679916,0.722551167011,1.847017169,-0.0376234948635
2017/07/09/10:22:20.151704,532482,1499566942,958945661,,0.739471384754,-0.0656521712755,-0.00520057509751,0.751389770035,0.659797665974,0.00896107547308,-0.000390625623017,-0.0198649495969,-0.0379106960266,-0.103727589307,0.0347086217972,-0.0799916613106,0.169847926564,4.58000612259,-1.25439250469,0.567378103733,0.515810787678,1.85003077984,-0.0952346622944
2017/07/09/10:22:20.161870,532483,1499566942,968944802,,0.739119036359,-0.0668315133755,-0.00619511969297,0.751432108508,0.659740411405,0.00961122049423,-1.7401979759e-05,-0.0155015332744,-0.0391090358335,-0.103205047718,0.0323469635119,-0.0956287038555,0.145863472202,4.39035987854,-2.01235961914,0.638103425503,0.750961780548,1.79913020134,-0.0453531518579
2017/07/09/10:22:20.171607,532484,1499566942,978942422,,0.738501179055,-0.0659637430511,-0.00765958191703,0.750576481929,0.660709645355,0.00984589327863,-0.000876182228699,-0.0335250349045,-0.0625976031005,-0.112379573909,0.00864478902174,-0.0769667830227,0.11164872353,4.51949834824,-1.38033664227,0.0851936712861,0.676619470119,1.95544993877,-0.0656157284975
2017/07/09/10:22:20.181929,532485,1499566942,988952440,,0.738413535612,-0.0672583069093,-0.00874609038116,0.750013239227,0.661344578344,0.010172944193,-2.9767837339e-05,-0.0357300464405,-0.02794873,-0.115818957514,0.0379762355442,-0.0533861504546,0.178567712208,4.41587924957,-1.77990090847,0.433072835207,0.646256148815,1.8867957592,-0.0800432413816
2017/07/09/10:22:20.192155,532486,1499566942,998951305,,0.7371867759,-0.0678584494583,-0.0101226069068,0.749490663311,0.661940640385,0.009909233792,-0.000375901649047,-0.0417131716856,-0.0453786610456,-0.103102646612,0.00857301375098,-0.0440335753502,0.229260537711,3.60591745377,-1.83400273323,-0.0401898808777,0.708656728268,1.66762566566,-0.0553095266223
2017/07/09/10:22:20.201793,532487,1499566943,8946221,,0.737242633672,-0.0681015614941,-0.0107001214302,0.748254947551,0.663332334307,0.010234633127,3.52579859123e-06,-0.0614260274571,-0.0550398035878,-0.117121742228,0.00882016537717,-0.0197415985694,0.196926825395,4.04016017914,-1.78299975395,0.503952205181,0.681636154652,1.74721467495,-0.0781574547291
2017/07/09/10:22:20.212012,532488,1499566943,18944344,,0.736925419435,-0.0682544381997,-0.0116534913663,0.748179161317,0.66341202195,0.0106031158567,-7.50855725775e-05,-0.0370502148554,-0.0217360901249,-0.0987043159705,0.0302140102187,-0.0586412688552,0.233247676468,3.79432535172,-1.81817209721,0.494140863419,0.731147408485,1.62318849564,-0.0372049957514
2017/07/09/10:22:20.221447,532489,1499566943,28940451,,0.736875656382,-0.0683118072924,-0.0125159048964,0.747551150119,0.664111082684,0.011123193688,0.000149580567129,-0.0284719118858,-0.0145728584181,-0.0985374715455,0.0485847776428,-0.0744782070937,0.184466968992,4.79545545578,-2.1869058609,0.0612964145839,0.814082741737,1.98671102524,-0.0641765743494
2017/07/09/10:22:20.231580,532490,1499566943,38944533,,0.735875770972,-0.0684784537671,-0.0140128414247,0.746891569333,0.664849483476,0.0113094311632,-0.000494719641352,-0.0558101104323,-0.0397524888011,-0.117589796121,0.0283262866353,-0.0358339680299,0.162860468448,4.44880342484,-2.17391991615,0.168100595474,0.78656566143,1.88855397701,-0.060988932848
2017/07/09/10:22:20.241882,532491,1499566943,48939497,,0.736556169401,-0.0687812844432,-0.0141086930829,0.746335264749,0.665462019343,0.0119778620441,0.000710087678267,-0.0576571900922,-0.0274406457931,-0.116907283068,0.0113076005699,-0.0192577374427,0.189259461737,4.54201412201,-1.92547297478,0.255121529102,0.696326494217,1.92540121078,-0.0573456138372
2017/07/09/10:22:20.251947,532492,1499566943,58945628,,0.735540321624,-0.0686384409206,-0.0154359376448,0.745594328007,0.666293967906,0.0118930113886,5.15328566265e-05,-0.0390013315313,-0.0366769900603,-0.0992791565764,0.0112384092865,-0.0700274841301,0.183570058365,4.19007444382,-1.21739280224,0.429998070002,0.541789412498,1.74171364307,-0.0610727891326
2017/07/09/10:22:20.261995,532493,1499566943,68939182,,0.734912283744,-0.0686759806024,-0.0169590547434,0.74498630102,0.666965399755,0.012351058308,-0.000134834336179,-0.028880255612,-0.0166794268264,-0.0875689099661,0.0137485262522,-0.0782135946937,0.212181553833,3.12340974808,-1.02145040035,0.0701565444469,0.46332988143,1.4125649929,-0.0410822480917
2017/07/09/10:22:20.271823,532494,1499566943,78946137,,0.734716593542,-0.0690272595304,-0.017391750138,0.744144902729,0.667898643734,0.0126367605203,0.000278791616753,-0.0323546094183,-0.0409097382795,-0.0921678603256,-0.00888606248046,-0.0957647419929,0.21553891857,3.32647919655,-1.20596182346,0.249778419733,0.580857992172,1.51426565647,-0.0514113903046
2017/07/09/10:22:20.281748,532495,1499566943,88944722,,0.734102859615,-0.0701358293746,-0.0184219920739,0.743652476329,0.668447732094,0.0125691478134,0.000800269708533,-0.0501428023018,-0.0456347641938,-0.115524995802,-0.00614729736959,-0.0688388808969,0.183273202471,3.58188962936,-1.55215191841,0.462131232023,0.599839627743,1.69129812717,-0.0655866786838
2017/07/09/10:22:20.291969,532496,1499566943,98947416,,0.734314349393,-0.0697393752892,-0.0192699788251,0.742771325441,0.669417276952,0.0130232155734,0.00128968082014,-0.0296537295075,-0.0342842756991,-0.102139147226,0.00228456381247,-0.113723408476,0.174443923877,3.44095849991,-1.16984367371,0.370869427919,0.598297774792,1.57549655437,-0.0475009270012
2017/07/09/10:22:20.301885,532497,1499566943,108945467,,0.733311137458,-0.0696951012528,-0.0211121971314,0.742756882774,0.66942089859,0.0136922911474,0.000628319013215,-0.0374253012016,-0.0128931059738,-0.108206589846,0.0257783415288,-0.088806794235,0.20031170108,2.15607023239,-0.732903659344,0.0719653517008,0.386856794357,1.0655516386,-0.0507138073444
2017/07/09/10:22:20.311923,532498,1499566943,118944236,,0.733717575504,-0.0708343362564,-0.0209908142749,0.742650097593,0.669525304009,0.0142283817882,0.00206227767457,-0.0309982963577,-0.0217937043555,-0.0906571805097,0.00257829458314,-0.106049171404,0.146667562064,2.62212777138,-1.64565563202,0.921404242516,0.49922901392,1.20467019081,-0.0505627244711
2017/07/09/10:22:20.321704,532499,1499566943,128941876,,0.73314387547,-0.0707742373567,-0.0220855064531,0.742288687915,0.669924142427,0.0143049578571,0.00212493966643,-0.0324136045184,-0.0165523592955,-0.0888011234869,0.0079793131102,-0.100134818358,0.113788589878,2.85554766655,-1.20094704628,0.0799318552017,0.504771709442,1.29106247425,-0.039187669754
2017/07/09/10:22:20.331877,532500,1499566943,138945956,,0.733567056109,-0.0714781698843,-0.022322037813,0.742051985128,0.670164965293,0.0150309973996,0.00344089794732,-0.0298154201077,-0.0193224794525,-0.0938707693152,0.00110306464421,-0.10117673484,0.0617563400593,2.74918293953,-1.6724357605,0.352131158113,0.560707449913,1.27007675171,-0.0403050146997
2017/07/09/10:22:20.342437,532501,1499566943,148939493,,0.732617725405,-0.0706869577052,-0.0246275154508,0.742026117019,0.670189404551,0.0153782873168,0.00262906210075,-0.00876001816318,-0.0287797130375,-0.0856232762562,-0.0231598387428,-0.159097001171,0.0618470604233,2.26001524925,-0.673817634583,-0.0353008136153,0.303326904774,1.18093621731,-0.072165466845
2017/07/09/10:22:20.351959,532502,1499566943,158940237,,0.733129472783,-0.0712872975328,-0.0249854818261,0.741623268769,0.670607789204,0.0162877884075,0.00385074375541,-0.0255936692292,-0.0190483391985,-0.111753070263,-0.00684751084712,-0.123774194445,0.0336045509509,2.66676092148,-0.801969349384,0.041661337018,0.297711968422,1.19857883453,-0.0694464147091
2017/07/09/10:22:20.362074,532503,1499566943,168946818,,0.732841803268,-0.0720011477263,-0.02578228341,0.741818415604,0.670385541213,0.0163387625759,0.00465931754613,-0.0121182875722,-0.0351449430984,-0.097890491372,-0.0297195792759,-0.165010119702,0.0082846147568,2.1251540184,-1.07637023926,0.628871023655,0.348383665085,1.05842876434,-0.0559787675738
2017/07/09/10:22:20.371969,532504,1499566943,178942688,,0.733306584055,-0.0714190420705,-0.0263366700756,0.741201700721,0.671038043869,0.0173338993711,0.00524580412822,0.00814668569476,-0.0377150104381,-0.0733629259207,-0.0525026607701,-0.207172417352,0.00854170541006,1.43827927113,-0.357630550861,0.313057243824,0.279094099998,0.883166730404,-0.0483480505645
2017/07/09/10:22:20.381852,532505,1499566943,188948141,,0.733304606893,-0.0726528857983,-0.0270266806335,0.741226034502,0.670988396152,0.0177095494222,0.00670148229176,0.00163206488452,-0.00741306153172,-0.0915703356075,-0.018596293377,-0.190055154941,0.066007877859,1.49529457092,-0.782034337521,0.120248347521,0.216994971037,0.886979877949,-0.0699951648712
2017/07/09/10:22:20.392114,532506,1499566943,198937754,,0.732995686852,-0.0726672091284,-0.0280996376904,0.7412485231,0.670952296109,0.017983959835,0.00708664500345,0.0043662085568,-0.0189122101836,-0.0815023225134,-0.0416298132712,-0.196877058257,0.0408324812682,1.53549718857,-0.789395391941,-0.0657396614552,0.329637527466,0.881606936455,-0.0365404188633
2017/07/09/10:22:20.402024,532507,1499566943,208939069,,0.732912411082,-0.0721168392912,-0.0294132754678,0.741130894827,0.671062840137,0.0186177381521,0.00728293531071,0.011403004873,-0.00996525711255,-0.0978139405278,-0.0432369071218,-0.198860858898,0.0307239767831,1.80390501022,-0.574266552925,-0.361426979303,0.276961773634,0.91280066967,-0.0490065962076
2017/07/09/10:22:20.412204,532508,1499566943,218937783,,0.733752955206,-0.0725513743268,-0.0302849791808,0.741240980911,0.670889318145,0.0198273938732,0.00872957445743,0.0330482426753,0.00147900466086,-0.0990832773937,-0.0191053009038,-0.246113928067,0.0256461317208,2.10698604584,-0.969585299492,-0.199498921633,0.359026581049,0.9671626091,-0.0443233028054
2017/07/09/10:22:20.421854,532509,1499566943,228938898,,0.734209706766,-0.0724367110449,-0.0309339850168,0.74126296213,0.670817883158,0.0209197241479,0.00974442159334,0.0283015129131,-0.0361406917963,-0.0872308791615,-0.0535126245103,-0.25713888436,-0.0305002224369,2.47250318527,-0.826093554497,-0.520432829857,0.350413173437,1.10936939716,-0.0288876257837
2017/07/09/10:22:20.431906,532510,1499566943,238944493,,0.734750452488,-0.0728969317073,-0.0311178547671,0.741058425332,0.67101034585,0.0213123166702,0.0111045560355,0.0329585575303,-0.0195763468205,-0.0874999702856,-0.055764787557,-0.256934277777,0.0228877226669,2.16740131378,-0.876447021961,-0.22258362174,0.37899300456,0.986127316952,-0.0238775610924
2017/07/09/10:22:20.442116,532511,1499566943,248938317,,0.734626538174,-0.0735636757133,-0.0323363242193,0.741183964702,0.67084228619,0.0217412357952,0.0120115025923,0.0454474517421,-0.0168734352106,-0.0780396406101,-0.0494362156495,-0.271702357972,0.00342798399303,1.39783990383,-0.89693748951,-0.414399653673,0.276631683111,0.747611165047,-0.0511489138007
2017/07/09/10:22:20.451916,532512,1499566943,258946420,,0.734309968662,-0.0735949115855,-0.033514542122,0.740974887886,0.671049476507,0.0223425235059,0.0122322216103,0.0373394537837,-0.00714779993227,-0.0908334742566,-0.0485680000988,-0.249405862047,0.00539467634759,-0.0181423351169,-0.603513658047,-0.2319265306,0.156182795763,0.283193647861,-0.0634886175394
2017/07/09/10:22:20.461777,532513,1499566943,268941675,,0.735149425357,-0.0727328170642,-0.0343739127231,0.741013788536,0.670956913246,0.0232913255254,0.0131491415004,0.0250916421165,-0.00807606702148,-0.0955389072101,-0.0355831148101,-0.231097999454,0.00960167194242,1.10286819935,-0.405291497707,-0.292296558619,0.170118421316,0.648178160191,-0.0691007599235
2017/07/09/10:22:20.471766,532514,1499566943,278969957,,0.736412488404,-0.0733223841557,-0.0350040650577,0.740286934244,0.671678379475,0.0242620097263,0.0153220239413,0.0332531526009,0.00216021232686,-0.0957267339467,-0.0465592646592,-0.242374184326,0.0395637988261,2.02058076859,-0.613696873188,-0.254315346479,0.32556733489,0.891012728214,-0.0350806079805
2017/07/09/10:22:20.481899,532515,1499566943,288946170,,0.736695088724,-0.0738119671249,-0.0354127260396,0.741031748306,0.670805174267,0.0250760380271,0.0162344847803,0.0464232317719,-0.0218209319242,-0.0848911529941,-0.0727709827379,-0.27546471944,0.0112838629151,1.87382400036,-1.23316955566,0.127879083157,0.398260831833,0.895873963833,-0.0646059587598
2017/07/09/10:22:20.492049,532516,1499566943,298945882,,0.736528498918,-0.0733398181101,-0.0367532138146,0.740672211002,0.67118206566,0.0254134488629,0.0165368437867,0.0340649016621,-0.0240353054776,-0.0839082795248,-0.0559250247411,-0.245514486145,-0.0304372694932,1.40124368668,-0.361566066742,-0.283980339766,0.183352127671,0.782520949841,-0.0807093456388
2017/07/09/10:22:20.501987,532517,1499566943,308937493,,0.737336799427,-0.0735760357726,-0.0370440013734,0.740696981374,0.671076659456,0.0265763091604,0.0178269096522,0.0346914869398,0.000104324703842,-0.0812351622825,-0.0160057944768,-0.234855921497,-0.024012392594,0.977538883686,-0.34345638752,0.336150586605,0.186436712742,0.484203547239,-0.0393876954913
2017/07/09/10:22:20.511893,532518,1499566943,318938732,,0.737073210729,-0.0734398930615,-0.0382609042739,0.740371296353,0.671415324566,0.0268811872889,0.0181440691518,0.0559622247619,-0.0130102438694,-0.0691430351298,-0.0516787755427,-0.276544814125,0.0260313440369,0.342682808638,-0.0341193526983,0.319771051407,0.0743821188807,0.373207241297,-0.0788674652576
2017/07/09/10:22:20.521778,532519,1499566943,328937807,,0.738035298378,-0.0734249812982,-0.038724739965,0.739987532137,0.671759632459,0.0279150632203,0.019447306379,0.0441503739516,-0.0162148496367,-0.0715405755242,-0.0606432170448,-0.250416494732,0.0251574333375,0.54191416502,-0.384739667177,0.262817710638,0.125170588493,0.415252357721,-0.0474786087871
2017/07/09/10:22:20.532007,532520,1499566943,338940370,,0.738322469576,-0.0731686029262,-0.0394587518693,0.740256229278,0.671418545803,0.0285160059226,0.0201168778239,0.0418966394903,-0.00573976842474,-0.0786186663717,-0.0511988605129,-0.239010042984,0.0463590475886,0.803558290005,0.333095729351,0.402264297009,0.00725320726633,0.535984277725,-0.0872369855642
2017/07/09/10:22:20.542514,532521,1499566943,348953828,,0.738815925032,-0.0739281232053,-0.0400394480882,0.740455377122,0.671118815555,0.0293064048898,0.0215987159606,0.0405759892327,-0.0152776606841,-0.0714470043337,-0.0460040433363,-0.243041857176,-0.0232403233246,1.39923548698,-0.575886189938,0.322911947966,0.211098074913,0.80257332325,-0.0719250887632
2017/07/09/10:22:20.552094,532522,1499566943,358945595,,0.739046912935,-0.0731673040908,-0.041158364993,0.74006164193,0.671517068746,0.0299475796425,0.0218342620658,0.0222368812454,-0.0103093246149,-0.0771533361937,-0.0474654657686,-0.19742072381,-0.0203064351267,0.517925143242,0.268592894077,0.216001316905,-0.054769448936,0.466672420502,-0.108854986727
2017/07/09/10:22:20.561912,532523,1499566943,368939817,,0.73970785413,-0.073388990122,-0.0414224954526,0.740128915977,0.671370805936,0.0306812180733,0.0230019896618,0.0361095249643,0.00149319016469,-0.0682625844454,-0.0333381182649,-0.213113580665,0.0174740707755,0.075787961483,0.566307604313,0.469791769981,-0.0584891140461,0.112109132111,-0.0546100735664
2017/07/09/10:22:20.571898,532524,1499566943,378942564,,0.7400915076,-0.0737451633284,-0.0419901234772,0.740143917438,0.671293997228,0.0312187198929,0.0240154594631,0.0332665709333,-0.0042074858559,-0.0620470547944,-0.0286138231241,-0.211994555539,-0.00348088121773,-0.484468996525,0.601871788502,0.32278111577,-0.3805975914,-0.229258164763,-0.135301277041
2017/07/09/10:22:20.581864,532525,1499566943,388940095,,0.740326750883,-0.0739326298399,-0.0428744715964,0.739806029162,0.671604814938,0.0318986323216,0.0248291969946,0.0424197288098,-0.000591257249086,-0.0631412980384,-0.0480870770897,-0.226721237652,0.0136517022247,-0.983666539192,0.137536585331,-0.149473011494,-0.161680698395,-0.490277260542,-0.0909042134881
2017/07/09/10:22:20.592251,532526,1499566943,398945844,,0.74096975721,-0.0738300357459,-0.0431843493999,0.739503593031,0.6718540002,0.0326750385033,0.0260572479114,0.0521206128949,-0.00251969837812,-0.0642083127167,-0.0500809678041,-0.252781327864,0.0347279069367,0.176583409309,-0.602442622185,-0.0384938344359,0.260357320309,-0.137960836291,-0.0150870643556
2017/07/09/10:22:20.601973,532527,1499566943,408938029,,0.741326085919,-0.0743719038905,-0.0434059749863,0.740119444005,0.6711038331,0.0332136684068,0.0271975372877,0.0567578675192,-0.00144356315935,-0.0516000050503,-0.0579484186586,-0.273888233248,0.0199505469269,0.831926941872,-1.0602710247,-0.179465785623,0.436518013477,0.161331877112,0.0167963132262
2017/07/09/10:22:20.611786,532528,1499566943,418942657,,0.741774470065,-0.073949423393,-0.0443978596399,0.739361063258,0.67187067699,0.0339282625705,0.0279979380912,0.0504560802609,-0.0175768359399,-0.0585528469342,-0.0685223986209,-0.266119451062,0.00814169285106,1.10696732998,-1.1953587532,-0.247283965349,0.470121711493,0.300806313753,-0.00388798862696
2017/07/09/10:22:20.621852,532529,1499566943,428939058,,0.741981092335,-0.0740397323824,-0.0449373953571,0.73933044038,0.671839148627,0.0346468239866,0.0286750045769,0.0393328813809,-0.0137747772765,-0.0639131332272,-0.059042705637,-0.229382242095,-0.0103886950589,0.35660046339,-0.302047163248,-0.288601458073,0.155065193772,0.0482662394643,-0.0653081610799
2017/07/09/10:22:20.631745,532530,1499566943,438946218,,0.742859052151,-0.0737985864015,-0.0454288935906,0.739072897598,0.672034947562,0.035315860777,0.0298842980342,0.05150697475,0.00659511946449,-0.0545453394277,-0.047867098436,-0.23959383043,0.0357582356542,-0.353241711855,0.170021161437,-0.204823449254,-0.112758293748,-0.134681254625,-0.0934911817312
2017/07/09/10:22:20.642119,532531,1499566943,448938432,,0.743018186453,-0.0743159967825,-0.0456879705898,0.739336017944,0.671674737276,0.0359945926623,0.0306543500128,0.0571432273136,0.00551991996892,-0.0468015391055,-0.046000816605,-0.244815551656,0.0192923935202,-0.0494155213237,-0.348954349756,-0.295196980238,0.155341297388,0.164681583643,-0.0557327009737
2017/07/09/10:22:20.651867,532532,1499566943,458937173,,0.743462045255,-0.0738571007758,-0.0462301331423,0.739216979789,0.671738372592,0.0366002238094,0.0314044454995,0.0416082369308,0.00672325846323,-0.0385573312037,-0.0318325923064,-0.219189508751,0.00214061212795,0.212751880288,-0.502028822899,-0.28238645196,0.214298948646,0.30218026042,-0.0622159466147
2017/07/09/10:22:20.661960,532533,1499566943,468946089,,0.743552570099,-0.074315390543,-0.0466899444601,0.739458086511,0.671426812244,0.0367971683563,0.0321518660997,0.0361804795424,0.0174273528541,-0.0503194846802,-0.0196515006676,-0.187013882612,0.0186161407082,0.980770051479,-1.41923475266,-0.671190261841,0.511346578598,0.604397237301,-0.0109373629093
2017/07/09/10:22:20.671818,532534,1499566943,478945786,,0.743726961464,-0.0735975014997,-0.0469578288223,0.738890859799,0.672029764758,0.0370028051255,0.0323586927557,0.0224357291575,0.0141510759393,-0.0438800657951,-0.0390516413032,-0.139554836201,0.0507567308068,1.42149722576,-0.234345570207,-0.740302443504,0.126996099949,0.674476325512,-0.0954440832138
2017/07/09/10:22:20.681859,532535,1499566943,488941919,,0.743646993752,-0.0736850061105,-0.0476239597107,0.739081788644,0.671781219479,0.0375041057953,0.0325813581508,0.00526580070937,0.00540148421256,-0.0398223734456,-0.0335706172265,-0.0914624876056,0.0337381233067,0.786056756973,-0.48212480545,-0.959978222847,0.167913466692,0.350767940283,-0.043860539794
2017/07/09/10:22:20.692167,532536,1499566943,498946092,,0.743055758666,-0.0730879710563,-0.0484541598224,0.738794809694,0.672117380504,0.0373961704206,0.0322797526425,0.00544465553649,0.0015819588052,-0.0434776474569,-0.0172987982397,-0.104634246299,0.0171569884577,0.23529805243,-0.065569549799,-1.50806057453,0.124556705356,0.159371763468,-0.0716536641121
2017/07/09/10:22:20.701729,532537,1499566943,508941880,,0.744136312958,-0.07320622976,-0.0482940491839,0.738571852474,0.672252738156,0.0384628066403,0.0332939526,0.00899394506353,0.00536063637872,-0.040165977666,-0.00442265450393,-0.107926294449,-0.00569597867981,0.227039590478,-0.216585785151,-0.440758347511,0.177870482206,0.0896099507809,-0.0521816760302
2017/07/09/10:22:20.711911,532538,1499566943,518942457,,0.743954356015,-0.0734276765994,-0.048465945519,0.738650053612,0.672160951596,0.0380986004916,0.0338267658699,0.00727584251719,0.0114688824293,-0.0376052570776,-0.00674772271464,-0.0922116230516,0.0181869264371,0.622639417648,-0.867447197437,-0.127986088395,0.394729912281,0.278880387545,0.00801911950111
2017/07/09/10:22:20.721833,532539,1499566943,528965549,,0.744068213926,-0.0730740216173,-0.0489230284435,0.738611179187,0.672163319679,0.0387944891886,0.0338376309261,0.00178668967867,0.0270636658719,-0.0364222333756,0.00790492468092,-0.0621530071166,0.0250915688803,0.873340845108,-0.471353620291,-0.247867614031,0.234230235219,0.373294949532,-0.0729005560279
2017/07/09/10:22:20.731669,532540,1499566943,538943297,,0.743586711196,-0.0736565840766,-0.0492017967782,0.739002227246,0.671738232153,0.0386891455984,0.0338615652675,-0.00674986994914,0.00244791464582,-0.0362196339841,-0.00941981267588,-0.0460315778268,0.0185957439417,0.687515437603,-0.716451406479,-0.576950311661,0.242366030812,0.365640580654,-0.0439289361238
2017/07/09/10:22:20.742080,532541,1499566943,548941698,,0.743983988445,-0.0735726110789,-0.0493660960386,0.738603126546,0.672142935351,0.0389471897369,0.0342405071026,-0.0106318748789,0.000127526303409,-0.0345084650877,-0.00573358515592,-0.0247448830241,0.00514238357041,0.404645830393,-0.984621882439,-0.20053486526,0.33175778389,0.21799133718,-0.0270864292979
2017/07/09/10:22:20.751883,532542,1499566943,558943635,,0.743844673939,-0.0732850654366,-0.0497607982125,0.73844621789,0.672318863179,0.0388852050349,0.0342413540302,0.0111116406094,0.00623361184529,-0.0156304576678,-0.0155320498209,-0.0541841619597,0.0275253758031,-0.101385228336,-0.803674459457,0.0805316716433,0.276128381491,0.0762016624212,-0.0199132338166
2017/07/09/10:22:20.761938,532543,1499566943,568946452,,0.744182941663,-0.0726880166176,-0.0496056911422,0.73860878712,0.672115225652,0.0393776358846,0.0341699404039,-0.00241340174999,0.0264554025313,-0.0257399400322,0.0252065461988,-0.0150210227849,0.0151376002337,0.766929268837,-1.00787436962,-0.322145402431,0.386432290077,0.363659530878,-0.0190546885133
2017/07/09/10:22:20.771946,532544,1499566943,578939240,,0.743779822344,-0.0721665599161,-0.050122949401,0.738237177876,0.672563564725,0.0390855613733,0.0337111183307,-0.0102454091513,0.0144487780742,-0.0191921263637,0.0207540587099,0.00609071607845,-0.02243440753,0.571692049503,-0.323937773705,-0.418397158384,0.198684602976,0.299878209829,-0.0646226331592
2017/07/09/10:22:20.781848,532545,1499566943,588943083,,0.743197662769,-0.0729969180999,-0.0501931611723,0.738758405636,0.672016698252,0.0386917449347,0.0336529975866,-0.0229181462463,-0.0102956567523,-0.0138299257175,-0.0117097080741,0.0355968365901,-0.00250560134836,0.742911636829,-0.940148055553,-0.26100230217,0.380832105875,0.379720658064,-0.0143678486347
2017/07/09/10:22:20.792053,532546,1499566943,598943008,,0.742562163953,-0.0724118498575,-0.0508660069079,0.738304378668,0.672580955056,0.0382398000615,0.0328514996092,-0.0231576065545,0.0137515996044,-0.0143504031903,0.017079376542,0.0505550267532,0.0023144580516,0.072105564177,-0.403502374887,-0.284609466791,0.16334952414,0.0756606012583,-0.0514465793967
2017/07/09/10:22:20.802000,532547,1499566943,608945799,,0.743415796754,-0.0719413767447,-0.0504171589458,0.738248372138,0.672598060887,0.0386103099041,0.0333231675471,-0.0206555271387,0.0212982417926,-0.00927228510982,0.0342328279326,0.0537598360137,0.0161017687534,0.314479351044,-0.430767059326,0.0850963518023,0.121466785669,0.0610654167831,-0.0643589124084
2017/07/09/10:22:20.811856,532548,1499566943,618956496,,0.743079877474,-0.0718721062093,-0.050075388469,0.738342651078,0.672525342018,0.0383359400204,0.0330174142589,-0.0177333543997,0.0221648020364,-0.00777246329063,0.0347543714871,0.0488643757284,0.00360545705336,2.08422517776,-0.909517586231,-0.896770477295,0.267687320709,0.7113327384,-0.0587184764445
2017/07/09/10:22:20.821841,532549,1499566943,628952111,,0.742406038669,-0.0722724058424,-0.0505055740811,0.738462643807,0.672420172277,0.0381979394997,0.0326336181625,-0.00693316072815,0.00285299378468,0.00534711762097,-0.0058953551895,0.0284915168425,0.00176923125026,0.251443088055,-0.892136335373,-0.417990326881,0.218694090843,0.0542389713228,-0.0462973155081
2017/07/09/10:22:20.831751,532550,1499566943,638960345,,0.743272976204,-0.0718789488421,-0.049761181744,0.738202324537,0.672656399092,0.0386488188322,0.0331204711959,-0.0116205464496,0.00583879652121,0.00989741509448,-0.000723662876678,0.0292713145979,0.0183212414635,1.07545721531,-0.546315610409,-0.533932745457,0.181623116136,0.190690621734,-0.0593019798398
2017/07/09/10:22:20.841879,532551,1499566943,648941191,,0.742988042184,-0.071912294518,-0.0503364077127,0.738559957783,0.672289770418,0.0385736470806,0.0326760937321,-0.0111522591366,0.00764462726845,-0.00189478593855,0.019832330408,0.0202278038824,-0.00112467050077,1.26413393021,-0.925134837627,-0.431876242161,0.225467041135,0.203999653459,-0.0376076474786
2017/07/09/10:22:20.852078,532552,1499566943,658938522,,0.743531093706,-0.0724244902014,-0.0496872525266,0.738494981477,0.672317565719,0.0386473634732,0.0334758787065,-0.00631085833465,0.00333838435634,0.000583406780559,0.00696807218736,0.0193934961151,0.00717726317994,1.34440493584,-1.04074525833,-0.493153840303,0.301057696342,0.167355000973,-0.0253993943334
2017/07/09/10:22:20.861926,532553,1499566943,668953274,,0.743093436892,-0.0719491367395,-0.0497796916596,0.738267371223,0.672602644687,0.0384227536586,0.0330251865794,0.00600693168194,0.00694004789751,0.00713579829919,0.00381010010241,-0.00718563304134,0.013561991081,1.16139006615,-1.11050391197,-0.660913646221,0.323269456625,0.140523940325,-0.0287032425404
2017/07/09/10:22:20.871793,532554,1499566943,678965649,,0.743101971129,-0.0716612962357,-0.0497405750637,0.738202078881,0.672679953134,0.0384922186216,0.0328286535356,-0.0118068458438,0.01026103928,-0.000957416160313,0.00759574330473,0.0305525452512,0.0158242700122,0.946892499924,-0.826113402843,-0.818301737309,0.245341971517,0.045786511153,-0.0103342980146
2017/07/09/10:22:20.881568,532555,1499566943,688939297,,0.742897170001,-0.0724206261646,-0.0497141070783,0.738695727949,0.672137362262,0.038369067121,0.0329818503076,0.00300048792827,0.0169924750548,0.00402279558261,0.0081211937457,0.00595436999478,0.044977851917,0.924154937267,-1.2938131094,-1.01962256432,0.370122909546,0.0919825509191,-0.0278879702091
2017/07/09/10:22:20.892190,532556,1499566943,698938858,,0.743132658118,-0.0722687412423,-0.0499469745258,0.73824169061,0.672624039986,0.0383786814682,0.0332142121185,0.00992373121367,-0.00584555648955,0.0146641865404,-0.00397861068726,-0.0249593717744,-0.00161635935541,1.23214960098,-1.33496129513,-1.25807416439,0.391429841518,0.153970912099,-0.0125046521425
2017/07/09/10:22:20.901920,532557,1499566943,708938447,,0.742980492123,-0.0727006476581,-0.0492207596443,0.738225039974,0.672649857145,0.0381765593986,0.0332942990609,-0.00235495784315,0.00709608538359,0.0039337763972,0.00603914200901,0.00708342476069,0.00247100847408,1.47709608078,-1.66888594627,-1.20191943645,0.395526409149,0.277873009443,-0.0327469781041
2017/07/09/10:22:20.912016,532558,1499566943,718946014,,0.742665157684,-0.071656945363,-0.0496890901326,0.738439825189,0.672450659751,0.03825822303,0.0324506262804,-0.000202580041533,-0.00807440315573,0.00932996426732,-0.0178896068239,0.000476276322777,-0.00520797452339,1.42342281342,-0.873983502388,-1.24896204472,0.354163318872,0.166235283017,-0.0216615870595
2017/07/09/10:22:20.921788,532559,1499566943,728944910,,0.742578199724,-0.0717988400789,-0.0496838165667,0.738508078472,0.672371537053,0.0383858732895,0.0323860915252,-0.00280355674356,0.00683141015927,0.00608718538532,0.00519759162068,0.012863926081,0.00184714426698,2.02060437202,-1.76895070076,-1.60145843029,0.4837859869,0.413685232401,-0.00637287646532
2017/07/09/10:22:20.931762,532560,1499566943,738946065,,0.742467735257,-0.0718879444375,-0.0500477553586,0.738086562319,0.672838417528,0.0381888745881,0.0325315274921,-0.00714950768937,-0.00735457843649,-0.00354842715188,-0.00199729452914,0.0111027474379,-0.0143067307765,1.6468231678,-1.39104676247,-1.76967835426,0.307627350092,0.279033333063,-0.072306804359
2017/07/09/10:22:20.942281,532561,1499566943,748948977,,0.742525169976,-0.0716093810635,-0.0497029829512,0.738057227642,0.672883892584,0.0381467816846,0.0323050905281,-0.00410498095689,-0.00498890456448,0.00362334484347,-0.00629880627792,0.00340049671995,0.0260366232134,1.80436122417,-1.40132069588,-1.55920624733,0.448065072298,0.264401137829,0.002660818398
2017/07/09/10:22:20.952149,532562,1499566943,758945281,,0.742979592395,-0.0710389645948,-0.0496323048178,0.738051364525,0.672865047182,0.038553425305,0.0323488021493,-0.0105368761385,0.00130385017115,-0.00451343238669,-0.000372896480913,0.0178683856728,0.0174965039486,2.02066445351,-1.14331054688,-1.63241314888,0.325726956129,0.389135688543,-0.0474228933454
2017/07/09/10:22:20.961976,532563,1499566943,768939849,,0.742538533182,-0.0719166846115,-0.0496882419572,0.738052855666,0.67287531249,0.0382275282867,0.0324877232933,-0.000110165669476,0.00967181778981,0.00145399462493,0.00722216048578,0.00386339692643,0.0125225761638,2.04185366631,-1.59148263931,-1.67641985416,0.452237248421,0.33960083127,-0.00215288996696
2017/07/09/10:22:20.971771,532564,1499566943,778946501,,0.742905556157,-0.0716394696566,-0.0493846921311,0.738162771325,0.672740197146,0.0383040786665,0.0326978245615,-0.00140745925565,0.00189851220165,-0.00391700558686,0.0113579319859,-0.000439026915988,-0.0164853076971,2.06318759918,-1.3141502142,-1.57030010223,0.448781877756,0.358723968267,-0.00875476747751
2017/07/09/10:22:20.981727,532565,1499566943,788944856,,0.742516778622,-0.0714598218951,-0.0495703611087,0.73834543654,0.672564616721,0.0382669066039,0.0322257123153,0.000282742371171,-0.00485941842881,0.00376973557254,-0.0129151782418,-0.00365520041845,-0.00235934695951,2.0793068409,-1.25061810017,-1.34270274639,0.417123198509,0.429767280817,-0.0160232037306
2017/07/09/10:22:20.992346,532566,1499566943,798946781,,0.743071677347,-0.0714921794013,-0.0496619831765,0.738044130319,0.672858150946,0.0384372256717,0.0327925309985,0.00830476141785,0.0106683828071,-0.000405677375142,0.0105433475902,-0.0104439392858,-0.018694757764,2.21649265289,-1.59578752518,-1.65597426891,0.571045458317,0.416546702385,0.00648827105761
