time,.header.seq,.header.stamp.secs,.header.stamp.nsecs,.header.frame_id,.quat,.acc
2017/07/09/10:22:00.401599,16053,1499566920,401325941,0, -12392, -8971, 4504, 3757 , 288, 1664, 481 
2017/07/09/10:22:00.424111,16054,1499566920,423888921,0, -12395, -8965, 4527, 3735 , 499, 1619, 496 
2017/07/09/10:22:00.446434,16055,1499566920,446324110,0, -12396, -8972, 4523, 3717 , 447, 1863, 508 
2017/07/09/10:22:00.461237,16056,1499566920,461121082,0, -12415, -8959, 4507, 3708 , 379, 1847, 494 
2017/07/09/10:22:00.484291,16057,1499566920,484011888,0, -12424, -8964, 4474, 3704 , 390, 1859, 576 
2017/07/09/10:22:00.506675,16058,1499566920,506417036,0, -12417, -8988, 4429, 3723 , 410, 1932, 521 
2017/07/09/10:22:00.521373,16059,1499566920,521115064,0, -12412, -9018, 4352, 3759 , 337, 2090, 496 
2017/07/09/10:22:00.544132,16060,1499566920,543951988,0, -12411, -9043, 4270, 3796 , 205, 2060, 480 
2017/07/09/10:22:00.566175,16061,1499566920,566073894,0, -12423, -9051, 4186, 3831 , 269, 2106, 535 
2017/07/09/10:22:00.581966,16062,1499566920,581563949,0, -12468, -9031, 4069, 3857 , 360, 2208, 678 
2017/07/09/10:22:00.604094,16063,1499566920,603847980,0, -12477, -9038, 3928, 3956 , -75, 2001, 515 
2017/07/09/10:22:00.626431,16064,1499566920,626275062,0, -12478, -9060, 3813, 4015 , 120, 1916, 671 
2017/07/09/10:22:00.641737,16065,1499566920,641401052,0, -12449, -9116, 3684, 4098 , 17, 2021, 598 
2017/07/09/10:22:00.665544,16066,1499566920,665281057,0, -12416, -9178, 3556, 4171 , 37, 2106, 595 
2017/07/09/10:22:00.686568,16067,1499566920,686352014,0, -12384, -9237, 3414, 4254 , -73, 2027, 579 
2017/07/09/10:22:00.701596,16068,1499566920,701369047,0, -12349, -9296, 3271, 4341 , -120, 2008, 600 
2017/07/09/10:22:00.723903,16069,1499566920,723717927,0, -12314, -9349, 3125, 4434 , -148, 1970, 603 
2017/07/09/10:22:00.746857,16070,1499566920,746521949,0, -12276, -9402, 2980, 4526 , -186, 1938, 580 
2017/07/09/10:22:00.761539,16071,1499566920,761284112,0, -12231, -9461, 2839, 4612 , -251, 1914, 585 
2017/07/09/10:22:00.783789,16072,1499566920,783596992,0, -12175, -9526, 2702, 4708 , -261, 1921, 561 
2017/07/09/10:22:00.814827,16073,1499566920,814575910,0, -12131, -9573, 2561, 4805 , -266, 1906, 588 
2017/07/09/10:22:00.821410,16074,1499566920,821152925,0, -12096, -9609, 2427, 4888 , -307, 1841, 568 
2017/07/09/10:22:00.843623,16075,1499566920,843533039,0, -12057, -9647, 2296, 4975 , -373, 1802, 532 
2017/07/09/10:22:00.866567,16076,1499566920,866377115,0, -12006, -9686, 2172, 5075 , -403, 1833, 542 
2017/07/09/10:22:00.881309,16077,1499566920,881014108,0, -11954, -9725, 2055, 5172 , -375, 1859, 540 
2017/07/09/10:22:00.904303,16078,1499566920,904072046,0, -11914, -9754, 1939, 5253 , -379, 1811, 530 
2017/07/09/10:22:00.927070,16079,1499566920,926698923,0, -11881, -9773, 1826, 5333 , -444, 1778, 551 
2017/07/09/10:22:00.941554,16080,1499566920,941375970,0, -11846, -9788, 1712, 5420 , -478, 1774, 557 
2017/07/09/10:22:00.964238,16081,1499566920,963901042,0, -11810, -9803, 1601, 5505 , -542, 1822, 552 
2017/07/09/10:22:00.986198,16082,1499566920,986061096,0, -11781, -9809, 1492, 5587 , -557, 1784, 548 
2017/07/09/10:22:01.001089,16083,1499566921,969886,0, -11756, -9809, 1387, 5666 , -555, 1740, 566 
2017/07/09/10:22:01.024132,16084,1499566921,23914098,0, -11736, -9803, 1281, 5743 , -609, 1744, 551 
2017/07/09/10:22:01.046798,16085,1499566921,46489953,0, -11710, -9801, 1183, 5819 , -672, 1787, 535 
2017/07/09/10:22:01.061501,16086,1499566921,61367034,0, -11693, -9787, 1089, 5896 , -625, 1794, 522 
2017/07/09/10:22:01.083971,16087,1499566921,83831071,0, -11688, -9762, 993, 5962 , -629, 1731, 572 
2017/07/09/10:22:01.106314,16088,1499566921,106162071,0, -11677, -9746, 903, 6026 , -707, 1669, 613 
2017/07/09/10:22:01.129387,16089,1499566921,129004955,0, -11655, -9738, 822, 6091 , -774, 1784, 543 
2017/07/09/10:22:01.144160,16090,1499566921,143846988,0, -11641, -9722, 750, 6153 , -794, 1808, 570 
2017/07/09/10:22:01.168682,16091,1499566921,168451070,0, -11638, -9693, 684, 6212 , -753, 1782, 589 
2017/07/09/10:22:01.190316,16092,1499566921,190028905,0, -11647, -9652, 617, 6266 , -721, 1681, 623 
2017/07/09/10:22:01.204223,16093,1499566921,203990936,0, -11649, -9618, 558, 6319 , -822, 1651, 587 
2017/07/09/10:22:01.226260,16094,1499566921,226057052,0, -11636, -9597, 513, 6379 , -886, 1698, 558 
2017/07/09/10:22:01.249044,16095,1499566921,248773097,0, -11630, -9567, 483, 6437 , -804, 1753, 607 
2017/07/09/10:22:01.264202,16096,1499566921,264056921,0, -11639, -9522, 453, 6489 , -745, 1604, 679 
2017/07/09/10:22:01.286516,16097,1499566921,286360979,0, -11646, -9479, 423, 6541 , -831, 1577, 633 
2017/07/09/10:22:01.313563,16098,1499566921,313400983,0, -11647, -9441, 408, 6594 , -880, 1635, 634 
2017/07/09/10:22:01.323985,16099,1499566921,323757886,0, -11648, -9409, 405, 6639 , -834, 1643, 600 
2017/07/09/10:22:01.346457,16100,1499566921,346173048,0, -11663, -9362, 405, 6680 , -819, 1648, 665 
2017/07/09/10:22:01.368918,16101,1499566921,368700027,0, -11686, -9302, 408, 6721 , -850, 1542, 708 
2017/07/09/10:22:01.385382,16102,1499566921,385268926,0, -11692, -9262, 424, 6766 , -894, 1501, 704 
2017/07/09/10:22:01.406639,16103,1499566921,406404018,0, -11699, -9221, 455, 6809 , -806, 1639, 684 
2017/07/09/10:22:01.428914,16104,1499566921,428695917,0, -11726, -9160, 486, 6842 , -793, 1609, 646 
2017/07/09/10:22:01.443969,16105,1499566921,443609952,0, -11759, -9090, 521, 6876 , -797, 1503, 727 
2017/07/09/10:22:01.466583,16106,1499566921,466365098,0, -11778, -9030, 558, 6920 , -802, 1456, 749 
2017/07/09/10:22:01.497315,16107,1499566921,497071981,0, -11786, -8981, 615, 6965 , -802, 1627, 727 
2017/07/09/10:22:01.503785,16108,1499566921,503597021,0, -11803, -8927, 683, 6999 , -700, 1658, 763 
2017/07/09/10:22:01.526854,16109,1499566921,526532888,0, -11853, -8835, 734, 7025 , -696, 1626, 793 
2017/07/09/10:22:01.548912,16110,1499566921,548707008,0, -11912, -8725, 769, 7059 , -791, 1523, 834 
2017/07/09/10:22:01.563702,16111,1499566921,563535928,0, -11949, -8633, 819, 7105 , -810, 1423, 870 
2017/07/09/10:22:01.586921,16112,1499566921,586585998,0, -11963, -8571, 896, 7146 , -697, 1568, 856 
2017/07/09/10:22:01.611491,16113,1499566921,611227035,0, -11999, -8496, 965, 7167 , -640, 1714, 955 
2017/07/09/10:22:01.623766,16114,1499566921,623676061,0, -12057, -8392, 1011, 7185 , -654, 1622, 875 
2017/07/09/10:22:01.654653,16115,1499566921,654485940,0, -12110, -8281, 1048, 7220 , -728, 1504, 926 
2017/07/09/10:22:01.669187,16116,1499566921,668965101,0, -12148, -8191, 1105, 7250 , -645, 1533, 1006 
2017/07/09/10:22:01.683953,16117,1499566921,683691978,0, -12188, -8110, 1157, 7265 , -586, 1677, 1042 
2017/07/09/10:22:01.706273,16118,1499566921,706167936,0, -12243, -8010, 1191, 7279 , -619, 1578, 1010 
2017/07/09/10:22:01.729221,16119,1499566921,729002952,0, -12298, -7894, 1208, 7310 , -632, 1550, 1056 
2017/07/09/10:22:01.743881,16120,1499566921,743783950,0, -12338, -7803, 1237, 7335 , -644, 1535, 1063 
2017/07/09/10:22:01.774678,16121,1499566921,774344921,0, -12375, -7720, 1277, 7355 , -576, 1554, 1126 
2017/07/09/10:22:01.788671,16122,1499566921,788547039,0, -12415, -7634, 1311, 7371 , -565, 1658, 1101 
2017/07/09/10:22:01.804624,16123,1499566921,803993940,0, -12467, -7526, 1325, 7390 , -581, 1531, 1147 
2017/07/09/10:22:01.828370,16124,1499566921,828233957,0, -12514, -7430, 1350, 7403 , -526, 1463, 1203 
2017/07/09/10:22:01.848811,16125,1499566921,848704099,0, -12553, -7348, 1375, 7415 , -396, 1495, 1176 
2017/07/09/10:22:01.871458,16126,1499566921,871247053,0, -12602, -7254, 1389, 7423 , -424, 1555, 1211 
2017/07/09/10:22:01.886249,16127,1499566921,886054992,0, -12653, -7153, 1390, 7433 , -546, 1428, 1192 
2017/07/09/10:22:01.909706,16128,1499566921,909296035,0, -12694, -7066, 1400, 7444 , -506, 1345, 1212 
2017/07/09/10:22:01.923948,16129,1499566921,923753023,0, -12724, -7000, 1431, 7449 , -405, 1381, 1215 
2017/07/09/10:22:01.946209,16130,1499566921,946052074,0, -12764, -6932, 1452, 7441 , -330, 1456, 1250 
2017/07/09/10:22:01.969148,16131,1499566921,969012975,0, -12815, -6852, 1452, 7428 , -364, 1411, 1269 
2017/07/09/10:22:01.983784,16132,1499566921,983571052,0, -12854, -6788, 1449, 7418 , -504, 1312, 1273 
2017/07/09/10:22:02.006764,16133,1499566922,6427049,0, -12879, -6754, 1476, 7402 , -409, 1414, 1300 
2017/07/09/10:22:02.037369,16134,1499566922,37209987,0, -12927, -6699, 1479, 7368 , -269, 1414, 1284 
2017/07/09/10:22:02.043791,16135,1499566922,43652057,0, -12981, -6641, 1463, 7328 , -379, 1261, 1235 
2017/07/09/10:22:02.066755,16136,1499566922,66446065,0, -13016, -6612, 1455, 7293 , -444, 1315, 1322 
2017/07/09/10:22:02.088893,16137,1499566922,88578939,0, -13042, -6607, 1456, 7252 , -459, 1540, 1344 
2017/07/09/10:22:02.103649,16138,1499566922,103564977,0, -13087, -6576, 1430, 7204 , -408, 1470, 1355 
2017/07/09/10:22:02.126700,16139,1499566922,126451015,0, -13137, -6536, 1388, 7158 , -439, 1283, 1313 
2017/07/09/10:22:02.150702,16140,1499566922,150511980,0, -13175, -6506, 1360, 7120 , -463, 1334, 1332 
2017/07/09/10:22:02.165469,16141,1499566922,165357112,0, -13204, -6493, 1360, 7077 , -424, 1409, 1352 
2017/07/09/10:22:02.186520,16142,1499566922,186209917,0, -13233, -6498, 1359, 7018 , -408, 1553, 1303 
2017/07/09/10:22:02.208789,16143,1499566922,208554983,0, -13276, -6471, 1324, 6968 , -383, 1503, 1259 
2017/07/09/10:22:02.231771,16144,1499566922,231406927,0, -13321, -6423, 1284, 6936 , -410, 1253, 1360 
2017/07/09/10:22:02.246397,16145,1499566922,246237039,0, -13344, -6406, 1269, 6908 , -465, 1277, 1342 
2017/07/09/10:22:02.269002,16146,1499566922,268799066,0, -13354, -6429, 1282, 6866 , -422, 1566, 1247 
2017/07/09/10:22:02.291591,16147,1499566922,291348934,0, -13387, -6415, 1269, 6817 , -330, 1535, 1251 
2017/07/09/10:22:02.306342,16148,1499566922,306119918,0, -13431, -6372, 1233, 6776 , -382, 1241, 1337 
2017/07/09/10:22:02.328875,16149,1499566922,328641891,0, -13457, -6351, 1206, 6750 , -390, 1223, 1369 
2017/07/09/10:22:02.351533,16150,1499566922,351300001,0, -13472, -6356, 1192, 6717 , -330, 1496, 1312 
2017/07/09/10:22:02.367670,16151,1499566922,367527961,0, -13508, -6332, 1158, 6675 , -296, 1409, 1298 
2017/07/09/10:22:02.389133,16152,1499566922,388760089,0, -13545, -6302, 1112, 6635 , -378, 1270, 1343 
2017/07/09/10:22:02.411484,16153,1499566922,411129951,0, -13572, -6292, 1078, 6596 , -391, 1285, 1351 
2017/07/09/10:22:02.427761,16154,1499566922,427664041,0, -13590, -6297, 1048, 6558 , -416, 1384, 1301 
2017/07/09/10:22:02.449341,16155,1499566922,449054002,0, -13608, -6293, 1028, 6527 , -411, 1346, 1396 
2017/07/09/10:22:02.479456,16156,1499566922,479302883,0, -13622, -6298, 1016, 6496 , -483, 1312, 1386 
2017/07/09/10:22:02.486318,16157,1499566922,486229896,0, -13630, -6321, 1011, 6458 , -429, 1448, 1295 
2017/07/09/10:22:02.509194,16158,1499566922,508929967,0, -13650, -6320, 1002, 6417 , -395, 1473, 1261 
2017/07/09/10:22:02.523949,16159,1499566922,523636102,0, -13676, -6300, 989, 6384 , -502, 1309, 1409 
2017/07/09/10:22:02.546573,16160,1499566922,546350002,0, -13688, -6298, 992, 6360 , -483, 1335, 1467 
2017/07/09/10:22:02.569216,16161,1499566922,568907976,0, -13693, -6307, 996, 6339 , -426, 1465, 1373 
2017/07/09/10:22:02.591305,16162,1499566922,591192960,0, -13705, -6298, 997, 6321 , -401, 1468, 1327 
2017/07/09/10:22:02.614238,16163,1499566922,613990068,0, -13719, -6282, 1001, 6306 , -414, 1386, 1338 
2017/07/09/10:22:02.628680,16164,1499566922,628546953,0, -13730, -6275, 1018, 6288 , -322, 1361, 1384 
2017/07/09/10:22:02.651237,16165,1499566922,651084899,0, -13737, -6276, 1029, 6269 , -427, 1309, 1393 
2017/07/09/10:22:02.667072,16166,1499566922,666698932,0, -13738, -6289, 1041, 6251 , -418, 1377, 1449 
2017/07/09/10:22:02.688763,16167,1499566922,688597917,0, -13740, -6296, 1045, 6239 , -453, 1431, 1453 
2017/07/09/10:22:02.711301,16168,1499566922,711196899,0, -13744, -6289, 1053, 6235 , -411, 1387, 1367 
2017/07/09/10:22:02.726718,16169,1499566922,726350069,0, -13747, -6284, 1070, 6230 , -342, 1397, 1357 
2017/07/09/10:22:02.757263,16170,1499566922,757005929,0, -13749, -6289, 1085, 6221 , -335, 1333, 1395 
2017/07/09/10:22:02.772073,16171,1499566922,771753072,0, -13746, -6305, 1096, 6208 , -361, 1365, 1376 
2017/07/09/10:22:02.786673,16172,1499566922,786362886,0, -13746, -6312, 1096, 6200 , -406, 1405, 1376 
2017/07/09/10:22:02.808675,16173,1499566922,808491945,0, -13746, -6314, 1096, 6199 , -412, 1406, 1358 
2017/07/09/10:22:02.831666,16174,1499566922,831310033,0, -13748, -6309, 1094, 6200 , -368, 1407, 1423 
2017/07/09/10:22:02.846106,16175,1499566922,845994949,0, -13748, -6309, 1092, 6201 , -414, 1326, 1411 
2017/07/09/10:22:02.870320,16176,1499566922,868932962,0, -13741, -6321, 1095, 6203 , -401, 1400, 1314 
2017/07/09/10:22:02.891559,16177,1499566922,891295909,0, -13737, -6331, 1100, 6202 , -362, 1432, 1326 
2017/07/09/10:22:02.906652,16178,1499566922,906403064,0, -13740, -6328, 1099, 6196 , -343, 1355, 1378 
2017/07/09/10:22:02.929183,16179,1499566922,928898096,0, -13746, -6319, 1083, 6195 , -382, 1259, 1423 
2017/07/09/10:22:02.951381,16180,1499566922,951095104,0, -13740, -6326, 1080, 6204 , -373, 1455, 1348 
2017/07/09/10:22:02.966322,16181,1499566922,966080904,0, -13734, -6333, 1087, 6208 , -371, 1415, 1332 
2017/07/09/10:22:02.989255,16182,1499566922,988985061,0, -13734, -6333, 1092, 6207 , -330, 1434, 1346 
2017/07/09/10:22:03.012149,16183,1499566923,11751890,0, -13739, -6320, 1091, 6208 , -353, 1333, 1334 
2017/07/09/10:22:03.033972,16184,1499566923,33751964,0, -13737, -6318, 1094, 6215 , -418, 1291, 1335 
2017/07/09/10:22:03.049351,16185,1499566923,49072027,0, -13728, -6330, 1110, 6222 , -387, 1377, 1377 
2017/07/09/10:22:03.071298,16186,1499566923,71183919,0, -13719, -6339, 1124, 6229 , -381, 1400, 1375 
2017/07/09/10:22:03.088008,16187,1499566923,87857961,0, -13716, -6339, 1133, 6233 , -329, 1410, 1380 
2017/07/09/10:22:03.109221,16188,1499566923,108939886,0, -13719, -6324, 1128, 6243 , -329, 1374, 1378 
2017/07/09/10:22:03.131654,16189,1499566923,131414890,0, -13724, -6302, 1118, 6256 , -405, 1244, 1434 
2017/07/09/10:22:03.148420,16190,1499566923,148159027,0, -13718, -6305, 1123, 6266 , -396, 1306, 1391 
2017/07/09/10:22:03.168904,16191,1499566923,168589115,0, -13711, -6311, 1134, 6272 , -374, 1423, 1358 
2017/07/09/10:22:03.191575,16192,1499566923,191274881,0, -13714, -6300, 1140, 6275 , -339, 1355, 1383 
2017/07/09/10:22:03.206909,16193,1499566923,206566095,0, -13719, -6286, 1140, 6280 , -339, 1268, 1411 
2017/07/09/10:22:03.228807,16194,1499566923,228707075,0, -13719, -6284, 1139, 6281 , -359, 1251, 1392 
2017/07/09/10:22:03.259960,16195,1499566923,259546041,0, -13718, -6289, 1139, 6277 , -308, 1396, 1354 
2017/07/09/10:22:03.273809,16196,1499566923,273577928,0, -13724, -6285, 1132, 6270 , -361, 1355, 1336 
2017/07/09/10:22:03.288726,16197,1499566923,288574934,0, -13728, -6281, 1130, 6266 , -399, 1283, 1431 
2017/07/09/10:22:03.313727,16198,1499566923,313584089,0, -13722, -6294, 1139, 6264 , -379, 1435, 1396 
2017/07/09/10:22:03.326626,16199,1499566923,326374053,0, -13722, -6295, 1141, 6263 , -277, 1442, 1324 
2017/07/09/10:22:03.348926,16200,1499566923,348726987,0, -13732, -6279, 1132, 6259 , -354, 1332, 1312 
2017/07/09/10:22:03.371639,16201,1499566923,371354103,0, -13737, -6269, 1137, 6257 , -346, 1251, 1363 
