time,.header.seq,.header.stamp.secs,.header.stamp.nsecs,.header.frame_id,.pose.position.x,.pose.position.y,.pose.position.z,.pose.orientation.x,.pose.orientation.y,.pose.orientation.z,.pose.orientation.w,.twist.linear.x,.twist.linear.y,.twist.linear.z,.twist.angular.x,.twist.angular.y,.twist.angular.z,.wrench.force.x,.wrench.force.y,.wrench.force.z,.wrench.torque.x,.wrench.torque.y,.wrench.torque.z
2017/07/09/10:17:13.763138,501843,1499566636,569530584,,0.781459794443,0.401532317179,0.167004684559,0.622075556965,0.780290979633,0.0571646417018,0.0300032043068,-0.00164568529864,0.00130057992366,-0.00508950232003,0.00496633165004,0.00702685887229,0.00125254922685,6.3947634697,1.67277431488,-1.14280128479,-0.662898361683,2.42600536346,-0.12680092454
2017/07/09/10:17:13.773592,501844,1499566636,579561995,,0.780863158799,0.401650372737,0.166271062261,0.62216308205,0.780283604044,0.0567477139592,0.0291597934674,-0.00628458044712,0.00325902151832,-0.0127858075685,-0.0077248834294,0.0242663324867,0.0192384405658,7.04866313934,1.80270576477,-1.24766612053,-0.770689070225,2.65716767311,-0.140480101109
2017/07/09/10:17:13.783309,501845,1499566636,589542316,,0.781511726704,0.40172891502,0.166990928068,0.622177467318,0.780193441159,0.0575260473638,0.0297346163356,-0.00810932694239,-0.00709386282856,-0.0218258850878,0.00108229559435,0.034636424637,-0.00899892178843,6.86163711548,2.01980733871,-1.22287416458,-0.810606896877,2.5769982338,-0.130091443658
2017/07/09/10:17:13.793200,501846,1499566636,599531516,,0.781385150325,0.401483638229,0.166462875462,0.622321533888,0.780110749981,0.0572115408502,0.0294951829452,-0.00546052539339,-0.0267940742536,-0.0219944824485,-0.00912338026398,0.0383736979771,-0.0266290358347,7.14006614685,2.06047487259,-1.18235456944,-0.889524936676,2.69342207909,-0.203264191747
2017/07/09/10:17:13.803172,501847,1499566636,609540490,,0.780730751076,0.401682538059,0.16589222562,0.622146089679,0.780310589582,0.0566466415696,0.0289962908389,-0.0176402540136,-0.00173195438835,-0.0176172741215,-0.00896551820557,0.0440321024648,0.0165644311093,6.79069185257,2.08605074883,-0.975773632526,-0.910288095474,2.55660104752,-0.184601008892
2017/07/09/10:17:13.813244,501848,1499566636,619553804,,0.781368907,0.40141585512,0.166431235884,0.622270425074,0.780157741314,0.0572594459571,0.0292364942322,0.00131972033209,-0.00932177347806,-0.00891968643609,-0.00728749809467,0.0092115516634,-0.00732084836155,6.70476770401,2.16807985306,-0.83040869236,-0.966495037079,2.53506708145,-0.203149944544
2017/07/09/10:17:13.823211,501849,1499566636,629528406,,0.780840288298,0.401251958588,0.165930478189,0.622129124987,0.780321584354,0.0566231723418,0.029110018699,0.0154611970278,-0.0187572020033,-0.0141657474614,0.0169154782436,-0.00281711362818,-0.0474541248088,7.13792037964,2.29253482819,-0.705611884594,-1.03749287128,2.72201132774,-0.190298810601
2017/07/09/10:17:13.833225,501850,1499566636,639526446,,0.78084674565,0.401788324103,0.165976364649,0.62213380081,0.780313865934,0.0568570521218,0.0287590011102,0.00297138699849,-0.0281397584576,-0.0246683782363,0.00228461367811,0.0193413767815,-0.0458803572989,6.68702220917,2.36827731133,-0.825747251511,-1.05655407906,2.51574635506,-0.234705090523
2017/07/09/10:17:13.843395,501851,1499566636,649528107,,0.781340800253,0.400053800288,0.165843757541,0.622898017339,0.779711407264,0.0564877658551,0.0292799195167,-0.0106366522261,-0.038362616053,-0.0324565976935,-0.00733804897394,0.054511640397,-0.059592965767,6.70678949356,2.39014911652,-0.894420981407,-1.05615818501,2.52257394791,-0.200595900416
2017/07/09/10:17:13.853429,501852,1499566636,659534545,,0.780794151196,0.400735837756,0.165107092886,0.622646394704,0.779948991931,0.056324278465,0.0286114103638,-0.0128682121059,-0.0176173995837,-0.0261111375576,-0.00864679962612,0.0573133219047,-0.0234370456773,6.64988708496,2.73690605164,-0.594655096531,-1.22529983521,2.52717041969,-0.251787960529
2017/07/09/10:17:13.863247,501853,1499566636,669528238,,0.781035581291,0.40100720112,0.164770674561,0.622695807344,0.779893650941,0.0565837058307,0.0285325949292,-0.00616124175088,-0.0098291679382,-0.0197289229041,0.00373161479478,0.0385232418247,-0.0221543788137,6.21592187881,2.64372563362,-0.543601810932,-1.24516737461,2.31778025627,-0.280220687389
2017/07/09/10:17:13.873247,501854,1499566636,679555207,,0.781047127813,0.400780379642,0.165073549678,0.622852443294,0.779763680958,0.0566156674768,0.0286024813046,-0.00912575696043,-0.0124566147424,-0.0320541650377,-0.000179026265287,0.0492096896537,-0.0183239532093,5.72410392761,2.38721561432,-0.335678577423,-1.10462474823,2.1687772274,-0.229178830981
2017/07/09/10:17:13.883250,501855,1499566636,689534976,,0.780583318328,0.40060119014,0.16447141868,0.623174985028,0.779570518784,0.0559995192104,0.0280499220388,-0.00136372347097,-0.0209770251563,-0.0240097517377,-0.00458117469896,0.0254231354124,-0.0232083497616,5.40644645691,2.54418849945,-0.181469649076,-1.18841385841,2.05737519264,-0.268210411072
2017/07/09/10:17:13.893079,501856,1499566636,699542587,,0.780983317342,0.400121318504,0.164549678903,0.623490275072,0.779283525545,0.0563964052236,0.028222494268,-0.0060831762479,-0.0210367735301,-0.0233755875885,-0.00013027476833,0.0388097559568,-0.0365329842449,5.24370670319,2.39943480492,0.0375414006412,-1.11738932133,2.00201058388,-0.232026308775
2017/07/09/10:17:13.903085,501857,1499566636,709528159,,0.780086085078,0.400195226079,0.1635425931,0.623078496862,0.779705316667,0.0553780984009,0.027678008015,-0.00375753462997,-0.0262199405046,-0.0202622907586,-0.0134886206344,0.0301143836068,-0.0360252255722,5.42193222046,2.52737283707,0.207455605268,-1.15097343922,2.08836483955,-0.21994741261
2017/07/09/10:17:13.913116,501858,1499566636,719528824,,0.780807248258,0.398932138785,0.163581187701,0.623903342094,0.779021568697,0.0554287975629,0.0282429394433,-0.0124042846285,-0.0258507035065,-0.0277918167276,-0.0110984617602,0.0474339999287,-0.0330986457224,5.85174560547,2.44697284698,0.105060055852,-1.15217518806,2.2330391407,-0.240108072758
2017/07/09/10:17:13.923004,501859,1499566636,729533565,,0.780337135819,0.398912686394,0.163092404303,0.623783038501,0.779165895478,0.0550174537043,0.0277183692024,-0.00507613785724,-0.0446652688836,-0.0364129506644,-0.0255571813482,0.0591108430039,-0.0505296717755,6.48614358902,2.60149693489,-0.00888570025563,-1.07804906368,2.49217367172,-0.164018973708
2017/07/09/10:17:13.933164,501860,1499566636,739536341,,0.78041263701,0.398007273757,0.163150770978,0.624203506199,0.778839264443,0.0548288916386,0.0278060362677,-0.00541298249595,-0.0626377797336,-0.0347904561198,-0.0173606579398,0.062072263538,-0.0736942064576,6.17358732224,2.37817621231,-0.112889893353,-0.930153012276,2.34332799911,-0.1446352005
2017/07/09/10:17:13.943017,501861,1499566636,749532581,,0.780747426234,0.396837879543,0.162981450228,0.624729644836,0.778425496899,0.0545713510489,0.0280817429196,-0.00223368120781,-0.060022112974,-0.029439178194,-0.0327842997136,0.0440443724035,-0.0670557107952,6.24844408035,2.57036113739,-0.03943836689,-1.00526964664,2.39974141121,-0.149919494987
2017/07/09/10:17:13.953270,501862,1499566636,759528009,,0.780298022275,0.397230558298,0.162282007925,0.624414653731,0.778712636122,0.0542965315278,0.0276560520241,0.0127183462163,-0.0633870557806,-0.0208932611982,-0.0265018698914,0.00669856779716,-0.0828702933486,5.83855772018,2.30224394798,0.216169834137,-0.795209467411,2.28926849365,-0.0976852178574
2017/07/09/10:17:13.963094,501863,1499566636,769531887,,0.780916357599,0.396917937992,0.162718129034,0.624758133173,0.77837756261,0.0549657875189,0.0280072715809,0.00422948441242,-0.0534500780211,-0.0283363920683,-0.0141882558457,0.0280739820099,-0.0715905869641,5.77384281158,2.35668349266,0.427658110857,-0.878192901611,2.2644238472,-0.121154688299
2017/07/09/10:17:13.973186,501864,1499566636,779536232,,0.780744034848,0.395049780693,0.162344212628,0.625429241931,0.777905999616,0.0540650031523,0.0278835889628,0.00975486390524,-0.0833861162161,-0.00793483066124,-0.0298823697226,0.0163999143079,-0.10109525979,5.77159547806,2.25138664246,0.455037415028,-0.800352692604,2.28152513504,-0.0989736914635
2017/07/09/10:17:13.983186,501865,1499566636,789526270,,0.780612348037,0.395466881927,0.162250645958,0.625326839889,0.777982398905,0.0542687513135,0.0276519970129,0.00610704646503,-0.0922221875817,-0.0202669376699,-0.0324055037772,0.0272475221443,-0.116979046506,5.4763007164,2.27658247948,0.36151316762,-0.765139818192,2.16169714928,-0.0686111524701
2017/07/09/10:17:13.992944,501866,1499566636,799530840,,0.780171976756,0.394373709982,0.16117914734,0.62618039407,0.777367540445,0.0535414556806,0.0270394835179,-0.00700476772018,-0.0551816812358,-0.0305821877893,-0.00888072848246,0.0548107690483,-0.0701421865407,6.46891307831,2.50824689865,0.151139736176,-0.881873428822,2.52158093452,-0.0610146075487
2017/07/09/10:17:14.003198,501867,1499566636,809535064,,0.780425791609,0.393481870521,0.161549169746,0.626627319251,0.777009094735,0.0535939592697,0.0268841402594,-0.0117085920188,-0.0582838491352,-0.0466196591998,0.00885074480257,0.0804787626786,-0.0803526015695,6.2997379303,2.40911841393,0.197555691004,-0.809930801392,2.43493938446,-0.0477939993143
2017/07/09/10:17:14.013256,501868,1499566636,819530632,,0.780728835805,0.392898573949,0.161245687227,0.627027570196,0.776666987874,0.0537955119135,0.0270344050906,0.00616571555801,-0.0771312759447,-0.0198991502071,0.00275734435123,0.0355836633185,-0.120126214673,5.92732572556,2.27581048012,0.342430621386,-0.836260437965,2.26537847519,-0.105265438557
2017/07/09/10:17:14.023045,501869,1499566636,829529836,,0.780629536022,0.392017688149,0.160396048567,0.627373093493,0.776440442389,0.0530835817297,0.0269327743382,0.00365787170621,-0.0832210564691,-0.014708380859,0.00703015616346,0.0413248604255,-0.114523383141,3.96304488182,3.11027598381,1.09546685219,-1.44098591805,1.46267569065,-0.311679244041
2017/07/09/10:17:14.033109,501870,1499566636,839534391,,0.780168185711,0.39120843046,0.160307035274,0.627672911051,0.776240575402,0.052659263191,0.0265384218081,0.00510779143664,-0.0902729938937,-0.0298161396706,-0.00495704091974,0.0450233827363,-0.141780020696,4.71015024185,3.93418049812,0.701374828815,-1.82602345943,1.69191455841,-0.373101830482
2017/07/09/10:17:14.042838,501871,1499566636,849529310,,0.780705400046,0.390610558142,0.160288387906,0.628272545292,0.775722796089,0.0530045919557,0.0268004793098,-0.012987202314,-0.106995858874,-0.0452213161802,-0.0363031849347,0.0868334319161,-0.148592851054,4.2017159462,3.20696806908,0.340519547462,-1.3928103447,1.53491187096,-0.234676674008
2017/07/09/10:17:14.053237,501872,1499566636,859541633,,0.780404184542,0.389024641777,0.16011870348,0.628867044034,0.775294280986,0.0521970788697,0.0268418284761,-0.00341082201104,-0.111412165872,-0.0381923863353,-0.042759474833,0.0580214876201,-0.129695580426,3.44764614105,2.03102421761,0.124722450972,-0.847584664822,1.29364490509,-0.159561038017
2017/07/09/10:17:14.063284,501873,1499566636,869528760,,0.780926400918,0.38787827401,0.160154980256,0.629402932279,0.774831760888,0.0523947377929,0.0272485340828,0.0103801837949,-0.122915868996,-0.025489991808,-0.0572617353478,0.0300513345593,-0.138632917671,3.64181256294,1.79955327511,0.311435550451,-0.571617722511,1.4521638155,-0.0456982962787
2017/07/09/10:17:14.073144,501874,1499566636,879534475,,0.781050988917,0.386050924695,0.159516914778,0.630346635613,0.774105061616,0.0517855242396,0.0272531104873,0.0128106120893,-0.139158157553,-0.0332798022526,-0.0446026793938,0.0267445941153,-0.165009087742,4.08678770065,1.87826037407,0.622762978077,-0.732277989388,1.64402353764,-0.121749401093
2017/07/09/10:17:14.082935,501875,1499566636,889532439,,0.781130890282,0.384186550508,0.15916017477,0.631275170727,0.773368834605,0.0514356715167,0.0273253761485,0.00932897599371,-0.126888819799,-0.0298106195737,-0.0259219338406,0.0303968395674,-0.169773283929,4.68371295929,2.13844251633,0.76046204567,-0.913618028164,1.81721115112,-0.174651935697
2017/07/09/10:17:14.093178,501876,1499566636,899531799,,0.78080741299,0.382808481036,0.158435766598,0.632203452226,0.772668152464,0.050905047146,0.0266720328639,-0.00305863989233,-0.153640755512,-0.0298385317386,-0.062423112391,0.0640264583427,-0.182776883461,3.56923151016,1.83977949619,0.778980195522,-0.820512831211,1.38243830204,-0.192212998867
2017/07/09/10:17:14.102866,501877,1499566636,909532844,,0.780975283351,0.381131951444,0.158480280735,0.632919722043,0.772103289657,0.050524561821,0.026765728124,0.0114478996286,-0.145610153622,-0.0151053214526,-0.0373738256402,0.0296975819658,-0.198312396844,2.84303951263,1.72928786278,0.686718165874,-0.742461919785,1.08267462254,-0.178494006395
2017/07/09/10:17:14.113308,501878,1499566636,919541549,,0.780895860849,0.379654030507,0.158153455447,0.633259847519,0.771842207695,0.0500343112669,0.0271687253483,0.00116647684714,-0.156406916435,-0.0346994868192,-0.0313316515362,0.0605057149345,-0.212378813046,3.48613142967,1.75118851662,0.725654482841,-0.594297945499,1.41131591797,-0.0544086992741
2017/07/09/10:17:14.123024,501879,1499566636,929530309,,0.781019266024,0.377986310216,0.158103307592,0.634271934856,0.771028135293,0.049763075834,0.027172845359,0.00709284485531,-0.16565482917,-0.0320153361275,-0.0484398039558,0.0384128274824,-0.218320093957,3.99704194069,1.94392800331,0.793043375015,-0.727905094624,1.62016320229,-0.118932515383
2017/07/09/10:17:14.133282,501880,1499566636,939543148,,0.78120679907,0.376708694204,0.157712592167,0.63534568086,0.770142513867,0.0499132980327,0.0269265078735,0.00292254399502,-0.216119484021,-0.0508094225864,-0.0588061848624,0.0781910917957,-0.254276595301,3.32274222374,0.853478074074,0.910094916821,-0.21883790195,1.41675567627,-0.024876460433
2017/07/09/10:17:14.143187,501881,1499566636,949528196,,0.78101684106,0.374085715768,0.157080986119,0.636392814471,0.769339179778,0.0490215953884,0.0268010323444,0.013342918407,-0.207167245596,-0.0219024413216,-0.041899976522,0.0285286878751,-0.258716827989,2.98199057579,-0.0722789317369,1.02507638931,0.234374836087,1.31348252296,0.0258617326617
2017/07/09/10:17:14.153270,501882,1499566636,959534980,,0.781365203239,0.371945636396,0.156613745235,0.637198746085,0.768685097082,0.0487177845034,0.0269732642408,0.00877575926114,-0.220600174884,-0.0254374760341,-0.0537345625331,0.0489820419995,-0.275907162001,2.45326304436,-0.722911953926,0.956289947033,0.457112908363,1.10069489479,0.0327555984259
2017/07/09/10:17:14.163083,501883,1499566636,969529598,,0.781298484807,0.370651438797,0.156696437262,0.637955065704,0.768070853891,0.048600253222,0.0268050915378,0.0164625525281,-0.220845135076,-0.0231221050777,-0.0403880584997,0.0413589493815,-0.278329336559,2.21045041084,-0.538286268711,1.06458711624,0.347233772278,1.00030946732,0.0212581902742
2017/07/09/10:17:14.173242,501884,1499566636,979527978,,0.781074420739,0.369125613442,0.156605774455,0.638768518733,0.767407942777,0.0484606802328,0.0266719198644,0.00318829998196,-0.179090204606,-0.0248407654295,-0.00998805520525,0.0534190591925,-0.247501173339,2.316583395,0.219706237316,1.10568916798,0.0162912532687,1.02572357655,-0.0356290191412
2017/07/09/10:17:14.183026,501885,1499566636,989538737,,0.781747064977,0.366884363273,0.15640686335,0.640021346349,0.766349492152,0.048660741447,0.026707009167,9.05937372475e-05,-0.182758059461,-0.0228140877017,0.0117566844124,0.0548043186795,-0.269095356483,2.41673398018,1.22914803028,1.14197707176,-0.525823235512,1.04644906521,-0.134130686522
2017/07/09/10:17:14.193027,501886,1499566636,999534427,,0.781739114699,0.365073490711,0.156353657164,0.640947930746,0.765590166646,0.0483487067629,0.0268300085918,-0.00822451254545,-0.193144157756,-0.0517963946759,0.0099829629201,0.0911488025017,-0.265509667195,2.31863427162,1.58132243156,1.13517963886,-0.706905841827,1.04099869728,-0.212965905666
2017/07/09/10:17:14.203017,501887,1499566637,9530114,,0.781539005504,0.361799703812,0.155594919377,0.642739451861,0.764145522852,0.0475689871801,0.0265482275499,0.0109604455463,-0.231221975956,-0.0281445514925,-0.0308767710503,0.0403304301745,-0.298050296876,1.94681191444,1.42743659019,1.17530655861,-0.599004626274,0.923866093159,-0.146667122841
2017/07/09/10:17:14.213147,501888,1499566637,19535298,,0.781657924443,0.360711086904,0.155503154339,0.643179460406,0.763771148088,0.0476454719753,0.0265277978614,0.0095581744522,-0.233108215161,-0.0319335730601,-0.0214622194829,0.0431577313538,-0.312063400217,2.29280042648,1.46394383907,1.10926103592,-0.639788985252,1.10528600216,-0.170473471284
2017/07/09/10:17:14.223370,501889,1499566637,29528247,,0.781742966864,0.357322522632,0.155098156068,0.644611109193,0.762600805879,0.0469170695791,0.0267454175284,0.000514362280305,-0.228505804278,-0.0353159763352,-0.0292724090909,0.0590919842732,-0.297691131968,1.79401040077,1.28927087784,1.03656589985,-0.458626329899,0.938506364822,-0.12122771889
2017/07/09/10:17:14.233385,501890,1499566637,39547342,,0.781657657693,0.355886252684,0.155122671315,0.645783077402,0.761615607191,0.0469039780764,0.0265687911755,0.00920632295425,-0.227450580965,-0.0250129033296,-0.0276051061976,0.0350408348625,-0.288798765689,2.06539320946,1.32556951046,1.00715720654,-0.44834291935,1.06381225586,-0.0971541032195
2017/07/09/10:17:14.243287,501891,1499566637,49528424,,0.78185227743,0.35280435567,0.15453476805,0.64707625658,0.760550088051,0.0464514281029,0.0264224632359,0.0193639056938,-0.248012003841,-0.0105059101403,-0.0195421674323,0.00702887732269,-0.316793070361,2.29165744781,1.11442661285,1.23794519901,-0.383914113045,1.18027949333,-0.106244854629
2017/07/09/10:17:14.252993,501892,1499566637,59531695,,0.781936784203,0.351045928748,0.154875508334,0.64776254108,0.759956036407,0.0465025369184,0.0266087797986,0.00568087273935,-0.249135574457,-0.0212446997026,0.00716953166481,0.0549237919682,-0.357977275218,1.82893717289,0.875472187996,1.0624935627,-0.268905699253,0.980512201786,-0.0754841044545
2017/07/09/10:17:14.263198,501893,1499566637,69531328,,0.782162462902,0.349315962964,0.15456128532,0.648978315837,0.758911320898,0.0467300174675,0.0264018570055,0.0102985835747,-0.248335540629,-0.0120663023961,0.00177191381045,0.0391954870532,-0.339965441662,1.96173202991,0.784112989902,1.08736312389,-0.262948274612,1.02538311481,-0.0918335467577
2017/07/09/10:17:14.273463,501894,1499566637,79530902,,0.781576776203,0.346100743237,0.153814070496,0.650840412869,0.757394292077,0.0458391272504,0.0256791300287,0.00297796221615,-0.249226417829,-0.0232213016914,0.0019472645813,0.0544628835187,-0.34225369401,1.49473917484,0.795329213142,1.11597132683,-0.21893876791,0.845479846001,-0.0490780249238
2017/07/09/10:17:14.283155,501895,1499566637,89527270,,0.782262628451,0.34345196816,0.154019596929,0.652357923376,0.756055679851,0.0460345340662,0.02626348125,0.00195814238832,-0.26185024138,-0.0253565365838,-0.0114237623397,0.0593667354462,-0.348178624521,1.71474456787,0.695227622986,0.904827415943,-0.278573691845,0.908652186394,-0.111821316183
2017/07/09/10:17:14.293182,501896,1499566637,99531896,,0.782157413659,0.341633338784,0.153716986862,0.653410530659,0.755159573796,0.0462346697186,0.0255157175937,0.00929643677757,-0.267132901335,-0.0158415217139,-0.000398581715011,0.0349685563977,-0.367209838101,1.60052073002,0.637451171875,1.06195485592,-0.250532180071,0.90881896019,-0.0934205055237
2017/07/09/10:17:14.303127,501897,1499566637,109532080,,0.782353097437,0.338463303812,0.153868730037,0.654626361905,0.754115149077,0.0457025718984,0.0261905164579,0.0110959132054,-0.263426710709,-0.01771418404,0.00633979370696,0.0260751485671,-0.361935326076,1.41150248051,0.731666564941,0.949425637722,-0.230989694595,0.832908093929,-0.0722783431411
2017/07/09/10:17:14.313103,501898,1499566637,119534964,,0.782469257189,0.335056013337,0.153599385598,0.656500253765,0.75249510059,0.0456145126204,0.0260356799999,0.00419523680863,-0.282457097221,-0.0217540518033,-0.00981154295647,0.0360956516211,-0.375896818696,1.80458068848,0.880597829819,0.898749411106,-0.390358299017,0.995741426945,-0.153602719307
2017/07/09/10:17:14.323272,501899,1499566637,129529172,,0.782440086247,0.332748306155,0.153175843165,0.657567005211,0.751592325095,0.0451312600437,0.0260342060086,0.00969965620675,-0.30495075631,-0.0213364525568,-0.0246182015575,0.0261769875821,-0.399572655185,1.55046224594,0.765438616276,0.866881787777,-0.276213884354,0.914189696312,-0.0749459937215
2017/07/09/10:17:14.333071,501900,1499566637,139534428,,0.7834270875,0.329498284646,0.153751318939,0.658761329874,0.750480313763,0.0456209094224,0.0270470245968,0.0256961598231,-0.303610517379,0.00158987802275,-0.0177162533388,-0.0095752447603,-0.408975609206,2.1471824646,0.739108920097,0.66346514225,-0.242704987526,1.09571969509,-0.0999313592911
2017/07/09/10:17:14.343107,501901,1499566637,149529493,,0.783397588244,0.327001464053,0.153505363739,0.6605941393,0.748890160626,0.0455384657005,0.0265548221953,0.0129030693401,-0.294916369972,-0.0123474327883,-0.0117535677372,0.0169895146304,-0.382694898015,1.71821796894,0.795501589775,0.577336013317,-0.253693789244,0.894882082939,-0.0919063389301
2017/07/09/10:17:14.352949,501902,1499566637,159538524,,0.783729420013,0.324667621959,0.153865558945,0.661740571486,0.747851109365,0.0458162308785,0.0268143106997,0.0127850734806,-0.28882678773,-0.0176345998827,0.0115869602549,0.0197254259206,-0.397962073402,2.01556515694,0.648685455322,0.390509784222,-0.202416181564,0.955862462521,-0.0868840590119
2017/07/09/10:17:14.363164,501903,1499566637,169535294,,0.783732625204,0.321158083019,0.153017591909,0.663747594798,0.74610569432,0.0454602474795,0.0264346212821,0.0205619144094,-0.29187991893,-0.0102242760413,0.00653506488405,-0.0130168589946,-0.413565253516,2.0698094368,0.887151002884,0.440031349659,-0.360632896423,0.977936029434,-0.157595291734
2017/07/09/10:17:14.373327,501904,1499566637,179535371,,0.783997285656,0.317497618235,0.153204484232,0.665425547771,0.744586051993,0.0454898511087,0.0270393231815,0.0099808288974,-0.307188598109,-0.0269604598809,0.0171938579416,0.0188962453586,-0.431020468432,2.09866023064,0.866362333298,0.199214681983,-0.392301261425,0.952902197838,-0.154100567102
2017/07/09/10:17:14.383138,501905,1499566637,189526793,,0.783874623351,0.315368674792,0.152503703164,0.666651625719,0.743505264207,0.0455658761553,0.0264439587347,0.00860266327729,-0.304468353366,-0.0127329802644,0.0387541723712,0.00719520598349,-0.440627611284,1.79106664658,0.710291028023,0.321556717157,-0.298784971237,0.847977459431,-0.124848872423
2017/07/09/10:17:14.392998,501906,1499566637,199528117,,0.784576194827,0.311878835124,0.152622698863,0.668690736134,0.741635300674,0.0459814313815,0.0267486106287,0.0319662726104,-0.316011054744,0.00564424531525,0.0202080828513,-0.040941121997,-0.452160667136,1.52263045311,-0.362613499165,0.336476415396,-0.0799153968692,0.722009956837,-0.0873682945967
2017/07/09/10:17:14.403243,501907,1499566637,209532330,,0.784322751272,0.308963481422,0.152463463745,0.670161378553,0.740331585579,0.0455982110336,0.0267146633908,0.0395557550267,-0.317487970618,-0.00157714114479,0.0209187428493,-0.0550864354069,-0.46075206197,1.42420363426,-0.0462404638529,0.103189520538,-0.216367334127,0.676027655602,-0.134746029973
2017/07/09/10:17:14.413281,501908,1499566637,219535375,,0.785050348243,0.305181886761,0.152518540982,0.671752983166,0.73884896417,0.0457715810942,0.0274790850606,0.0295263313541,-0.329430352583,-0.0115121201545,0.00319350321782,-0.0404339423478,-0.436381651684,1.26034677029,0.23194283247,0.176450803876,-0.419582635164,0.652789235115,-0.172397151589
2017/07/09/10:17:14.423183,501909,1499566637,229533295,,0.785260114748,0.302683590657,0.152772618179,0.673249805769,0.73746970794,0.0460422685086,0.0274451892535,0.01541774604,-0.338176703092,-0.0224043168627,-0.0186676162261,-0.00632649104838,-0.436528949772,1.46568310261,0.339213699102,0.147211104631,-0.493397295475,0.743606865406,-0.182804778218
2017/07/09/10:17:14.433149,501910,1499566637,239535032,,0.785600712907,0.298814947635,0.152155215787,0.674760472892,0.736091706956,0.0456662280084,0.0279624532576,0.0141005313718,-0.348215708826,-0.0229182242525,-0.013799090663,-0.00503948186631,-0.464585101095,1.00278353691,0.410688877106,0.257831275463,-0.45734244585,0.519271552563,-0.190023779869
2017/07/09/10:17:14.442984,501911,1499566637,249529560,,0.785210735812,0.296990500451,0.152034897999,0.675775569922,0.735178887737,0.0456038499038,0.0275621297584,0.0134092882474,-0.315713872887,-0.00776256548264,-0.0096126154149,-0.0120440470534,-0.42664194944,0.945419490337,0.206199511886,0.269467145205,-0.321266025305,0.465156763792,-0.163106545806
2017/07/09/10:17:14.453175,501912,1499566637,259527097,,0.785095025829,0.293647586007,0.152126991228,0.677953478167,0.733182418843,0.0455783206871,0.0272990627147,-0.00234128792909,-0.3293739278,-0.0173288302697,0.000278708837317,0.0312099560193,-0.458452920782,1.04718911648,0.172694504261,0.361805945635,-0.353102743626,0.465590536594,-0.193462714553
2017/07/09/10:17:14.462970,501913,1499566637,269527466,,0.785139894977,0.28963510573,0.151254939136,0.679797391216,0.731501807191,0.0450604288292,0.0273892447176,-0.0119053349457,-0.333061094379,-0.0254569313073,0.0172023997365,0.0562166129445,-0.48860875471,1.43938851357,-0.263047605753,0.709034919739,-0.227342128754,0.588161945343,-0.141249895096
2017/07/09/10:17:14.473167,501914,1499566637,279534757,,0.785147896047,0.286455390229,0.151360232066,0.681353324059,0.730051875776,0.045066635714,0.0274026424688,0.00502716972765,-0.349815426678,-0.0186926970658,0.0205173180376,0.020588156913,-0.508357974109,1.49326741695,-0.0408038049936,0.533553123474,-0.311961203814,0.587038338184,-0.177422210574
2017/07/09/10:17:14.483168,501915,1499566637,289528551,,0.785433026051,0.283282036826,0.151422230154,0.682866863324,0.728619864619,0.0451462307408,0.0277084410725,0.0122778763159,-0.343497813382,-0.0141935542321,0.010532948049,-0.000899129267126,-0.483090791192,1.50343263149,-0.0955511331558,1.03401720524,-0.330497264862,0.628463566303,-0.169862776995
2017/07/09/10:17:14.493118,501916,1499566637,299534853,,0.785025618028,0.279624787801,0.151184051072,0.684875127566,0.726781880693,0.0446305391994,0.0272446785289,0.00856487042147,-0.32395812802,-0.0140679456109,0.020514569924,0.00757032244383,-0.446208084176,0.248106449842,-0.319749772549,0.731989264488,-0.18038713932,0.139935791492,-0.142885029316
2017/07/09/10:17:14.503237,501917,1499566637,309530471,,0.785548911081,0.275988158986,0.151111235936,0.686436867028,0.725294366077,0.0444071978299,0.027937625222,0.00763404939063,-0.343510052842,-0.00589988940947,-0.00289555330137,0.00388414437858,-0.47235974469,0.0605164021254,-0.493088275194,0.714884102345,-0.166739970446,0.0739594325423,-0.144426018
2017/07/09/10:17:14.513293,501918,1499566637,319535022,,0.785534808186,0.273101430831,0.151324266057,0.687665457544,0.724116045974,0.0445217387192,0.0281066761783,0.00745697753414,-0.341090668771,-0.00712213113288,-0.00270991624852,-0.00215650779447,-0.471932437831,0.350545227528,-0.427706897259,0.540499687195,-0.153168573976,0.19919860363,-0.147406548262
2017/07/09/10:17:14.523040,501919,1499566637,329541916,,0.785193878371,0.26978706952,0.150671314017,0.689557703346,0.722357282585,0.0442128733762,0.0274836656799,-0.00240676715972,-0.34941589,-0.0196750584729,-0.011360686895,0.0223944658055,-0.475286305589,0.117473885417,-0.891914606094,0.54014724493,0.0193693861365,0.190566256642,-0.107130520046
2017/07/09/10:17:14.533037,501920,1499566637,339535122,,0.785890540679,0.26689512615,0.151010619513,0.691429597246,0.720509208018,0.0448583374764,0.0279163531389,-0.00180386033387,-0.361997465602,-0.0236523196128,-0.000448969228807,0.0331032241817,-0.503894698657,1.19888150692,0.363004684448,0.385286003351,-0.654299616814,0.558029830456,-0.256717503071
2017/07/09/10:17:14.543061,501921,1499566637,349529738,,0.785760754698,0.263744336657,0.150634139627,0.693011946823,0.719014296459,0.0446077657481,0.0276230027764,-0.0028059989903,-0.335002298882,-0.0211849677762,0.00672655086634,0.0260734073323,-0.464884061769,0.943741202354,1.64003062248,0.095689073205,-1.24538815022,0.426293760538,-0.384709775448
2017/07/09/10:17:14.552969,501922,1499566637,359570527,,0.786002885986,0.259529402767,0.150688865078,0.694570894216,0.717492950895,0.0442616285907,0.0285665286292,-0.00203244925506,-0.321638053953,-0.0239765468976,-0.00164168933837,0.0318749658994,-0.432434397766,0.342804282904,1.57410514355,0.187692299485,-1.29325175285,0.177678912878,-0.387259155512
2017/07/09/10:17:14.563299,501923,1499566637,369530245,,0.785733191417,0.257430961457,0.150073359501,0.695861497015,0.716282664442,0.0441168845655,0.0277420635391,-0.000434809030045,-0.348667137302,-0.0139091969697,-0.0225339473956,0.0156265755659,-0.47711951403,-0.577850162983,1.82891523838,0.0905977785587,-1.21033871174,-0.177231132984,-0.366712272167
2017/07/09/10:17:14.573253,501924,1499566637,379535421,,0.785656477331,0.252691430823,0.149838471968,0.697903997874,0.714304218052,0.0436408805201,0.0281951657358,-0.00669859161876,-0.399485076012,-0.0208729184645,-0.0515812908517,0.0278683458554,-0.526272460096,-1.97676885128,0.394942164421,-0.123252347112,-0.541490197182,-0.729992687702,-0.255173921585
2017/07/09/10:17:14.583023,501925,1499566637,389530916,,0.786006784996,0.249326477562,0.150085471259,0.699659997062,0.712551791755,0.0438426493017,0.0286993846533,0.00673986796256,-0.377773684308,-0.00647633402472,-0.0206115560965,-0.0122411867745,-0.516759563787,-2.38899421692,-0.300321400166,-0.0635246634483,-0.107516862452,-0.83275949955,-0.152755230665
2017/07/09/10:17:14.593167,501926,1499566637,399526259,,0.785696914231,0.246178340065,0.149802068939,0.701331449324,0.710934989602,0.0435584096666,0.0284306822924,0.000660943500583,-0.355088933061,-0.00901152630074,-0.0275723732517,-0.00804123942938,-0.469917725807,-2.47605609894,-0.284488946199,-0.0270460620522,-0.0158494487405,-0.814312338829,-0.163529142737
2017/07/09/10:17:14.603159,501927,1499566637,409533235,,0.785210998908,0.242298541238,0.149009873582,0.703003378597,0.709324167645,0.0429586791552,0.0282847443296,-0.0139673177083,-0.333913092428,-0.0261852062682,-0.0136088903216,0.0305263684931,-0.452473395404,-2.51035475731,-0.657157421112,0.0121871996671,0.0350212529302,-0.799452066422,-0.141038507223
2017/07/09/10:17:14.613413,501928,1499566637,419556831,,0.785250609745,0.239465409459,0.148987648148,0.70488753512,0.707459836062,0.0429449064575,0.0281047718761,-0.0207567478469,-0.339753636957,-0.0254648489454,0.0220474205177,0.0446533306606,-0.483085721763,-2.77567386627,-0.330833733082,0.041084010154,-0.197867482901,-0.916531264782,-0.181094616652
2017/07/09/10:17:14.623154,501929,1499566637,429528412,,0.785302970551,0.236562360053,0.149052670866,0.706036356135,0.706293775281,0.0432320021987,0.0281560082537,-0.0169290265601,-0.35445238566,-0.0259012608015,0.0381883483438,0.0365298210279,-0.509815782854,-2.34023785591,0.209837272763,-0.100723728538,-0.307172000408,-0.80004298687,-0.174905315042
2017/07/09/10:17:14.633347,501930,1499566637,439546954,,0.784729543383,0.232952800629,0.148151068009,0.70773314742,0.70464860941,0.0425405190228,0.0278286460522,-0.016958071312,-0.322740804355,-0.0366402012919,0.0336794401703,0.0374865250789,-0.466870511101,-3.32781100273,-0.164767727256,-0.338656067848,-0.252363473177,-1.16039097309,-0.190829485655
2017/07/09/10:17:14.643150,501931,1499566637,449526012,,0.784799897795,0.229595508613,0.148348053299,0.709533444696,0.702818165635,0.0427176423151,0.0280021418276,-0.0244232246281,-0.330534492632,-0.0357198856641,0.0131954416947,0.0527136243325,-0.457696718008,-4.01939916611,-0.318655908108,-0.323296964169,-0.0673839822412,-1.42204451561,-0.140008687973
2017/07/09/10:17:14.653019,501932,1499566637,459535944,,0.784939454698,0.227242191118,0.148317750043,0.710838985527,0.701476940861,0.0430739231019,0.0279763336471,-0.0268215401259,-0.360139205789,-0.0440924772998,-0.000215203399501,0.0571456902672,-0.492312704364,-3.85429334641,0.0313376635313,0.0411702543497,-0.118181429803,-1.32682991028,-0.16970589757
2017/07/09/10:17:14.663276,501933,1499566637,469536310,,0.783959433286,0.223403362782,0.147215980954,0.712618206193,0.699755284555,0.0420041087427,0.0274497502294,-0.0212827307164,-0.329798036151,-0.0397959885798,0.0012272860861,0.0426579230659,-0.456966117371,-4.64158248901,-0.000329911708832,-0.227416902781,-0.150399208069,-1.61465525627,-0.195439293981
2017/07/09/10:17:14.673287,501934,1499566637,479535847,,0.783886735405,0.220277878233,0.146760439191,0.714312248606,0.698037458542,0.0419588592508,0.0272244760001,-0.0214489279559,-0.328723230263,-0.0451138752782,0.0196699074496,0.0501095135553,-0.464821351065,-5.27084732056,-0.370243668556,-0.0889073982835,-0.105696998537,-1.83958268166,-0.208737790585
2017/07/09/10:17:14.682896,501935,1499566637,489531238,,0.783874062049,0.218227703181,0.146279832703,0.715166322246,0.697165558021,0.0420011897679,0.0270779669171,-0.0137087964402,-0.32530339692,-0.042022865451,0.0312010762266,0.0258937334082,-0.478197598163,-5.79268741608,0.529154717922,-0.240248009562,-0.401563882828,-2.01568651199,-0.264566987753
2017/07/09/10:17:14.693161,501936,1499566637,499532370,,0.783548950955,0.214417853986,0.146011972943,0.717151502371,0.695138602277,0.0417512099314,0.0270718071037,-0.0195499495812,-0.314334167022,-0.0467822389564,0.0220271512521,0.0400064151676,-0.445445822263,-6.54403114319,0.396295189857,-0.329867303371,-0.375730484724,-2.34836030006,-0.23649983108
2017/07/09/10:17:14.702848,501937,1499566637,509530118,,0.783708718013,0.211444843666,0.145374755346,0.718461451614,0.693782250864,0.0416608133872,0.0272710021664,-0.0218997160527,-0.311720082695,-0.0569527464231,0.0247243044046,0.0533723996365,-0.443745575683,-6.39091825485,0.525441765785,-0.924606859684,-0.377102971077,-2.26587510109,-0.247713491321
2017/07/09/10:17:14.712925,501938,1499566637,519537171,,0.783473591128,0.208464655399,0.14501439678,0.720288228176,0.691896300263,0.0416986547647,0.0269369676242,-0.0403894099878,-0.31292375862,-0.071932241208,0.0351951528391,0.0997405970306,-0.459483156833,-6.047123909,0.498708128929,-0.573245704174,-0.352840512991,-2.1607105732,-0.24131526053
2017/07/09/10:17:14.723269,501939,1499566637,529530654,,0.783110121339,0.205079387255,0.144297499508,0.721891583887,0.690263673401,0.0411855338361,0.0266899624948,-0.0373007900534,-0.314776554283,-0.0612893021477,0.0258900735766,0.0876059363872,-0.451482362722,-6.20799589157,0.0562209784985,-0.694178342819,-0.208356454968,-2.20652246475,-0.221568420529
2017/07/09/10:17:14.733172,501940,1499566637,539527979,,0.782805718092,0.202922174123,0.143266131952,0.723124840582,0.689004472699,0.0411681521579,0.025855072674,-0.0343909593776,-0.3260218053,-0.0604732591808,0.0111189267997,0.0879803023358,-0.452836782395,-6.90827274323,0.0841481238604,-0.296860605478,-0.0186705812812,-2.51837611198,-0.178580582142
2017/07/09/10:17:14.743277,501941,1499566637,549529321,,0.782218899488,0.199936957343,0.142724156515,0.724344455164,0.68777865625,0.040475187226,0.0254438499177,-0.0255962450981,-0.309695939136,-0.0663339227714,0.0253165004414,0.0855747099563,-0.429883554845,-6.79923439026,-0.273777782917,-0.238868817687,0.0562099888921,-2.49588036537,-0.165958940983
2017/07/09/10:17:14.753086,501942,1499566637,559528816,,0.782606381594,0.196061582072,0.142677096184,0.726273209702,0.68570719509,0.0405934620169,0.0261732365729,-0.0157982600461,-0.297171588852,-0.0553747209463,0.0219407142673,0.066890986273,-0.4107782796,-7.56520605087,-0.295373678207,-0.00433076173067,0.0131152495742,-2.86305379868,-0.210828840733
2017/07/09/10:17:14.762993,501943,1499566637,569530277,,0.782250358606,0.194036822671,0.141591778709,0.727418124714,0.684542906991,0.0403869124919,0.0251550715824,-0.00920048930853,-0.302412422345,-0.0631721237064,0.0328594025042,0.055640752086,-0.434660036632,-8.14473724365,-0.208673253655,-0.199476823211,-0.0164745673537,-3.11541724205,-0.201898992062
2017/07/09/10:17:14.773111,501944,1499566637,579535115,,0.781637612506,0.190580938625,0.140387743066,0.728978955792,0.682944322304,0.0395828952653,0.0246967416161,-0.0180229704181,-0.304527561344,-0.0762446459232,0.0389561850926,0.084764288031,-0.451083675028,-7.83997011185,0.166337698698,-0.484320521355,-0.125805154443,-3.04193353653,-0.209357321262
2017/07/09/10:17:14.783278,501945,1499566637,589530014,,0.781850776915,0.187296810649,0.139950717508,0.730605852416,0.681193364312,0.039643607097,0.0248811826317,-0.0186036953409,-0.288152237938,-0.0821483964972,0.0377469962726,0.0873318319671,-0.42465492915,-7.64053535461,0.0799178481102,-0.52603071928,-0.0734608620405,-3.00877857208,-0.179288178682
2017/07/09/10:17:14.793281,501946,1499566637,599534387,,0.781859869947,0.185089017705,0.139169565515,0.731837479429,0.679879436332,0.0398032690198,0.0243629951342,-0.00828813260786,-0.311777720958,-0.0825060636529,0.0415296352046,0.0678170249614,-0.450826224759,-7.37841033936,0.0815266445279,-0.316099047661,0.0549165643752,-2.94789242744,-0.113524578512
2017/07/09/10:17:14.803378,501947,1499566637,609537680,,0.782205228885,0.182267039134,0.138694499795,0.733442507998,0.678144395265,0.0399073357098,0.0242831461969,0.00942390952561,-0.314154524074,-0.0677725492732,0.0413453609445,0.0267265261014,-0.470052299176,-7.340031147,0.644260406494,-0.395263165236,-0.110389351845,-2.9272916317,-0.174093514681
2017/07/09/10:17:14.813135,501948,1499566637,619562664,,0.782751991685,0.179172458771,0.138037472895,0.734594596645,0.676878676023,0.0400527719634,0.0245318564867,0.00106914531127,-0.30119323977,-0.0808894690824,0.0504687438087,0.0570583820615,-0.457522453687,-6.73454380035,0.332971394062,-0.786792337894,-0.0786861330271,-2.7737326622,-0.187836140394
2017/07/09/10:17:14.823171,501949,1499566637,629532513,,0.781932814832,0.176240668072,0.136741464446,0.736333927513,0.67507022244,0.0391352966745,0.0236848162959,0.0162454071328,-0.293941326708,-0.0780340900336,0.0356381674916,0.0227069986727,-0.424216432364,-7.29713582993,0.245066255331,-1.11391735077,-0.0386591292918,-2.95579338074,-0.164960220456
2017/07/09/10:17:14.833094,501950,1499566637,639536998,,0.782502508458,0.174699886324,0.13554199432,0.737166765167,0.674152934613,0.0396311492142,0.0230727782764,0.0235800776252,-0.284034119664,-0.0829528366854,0.0459728618288,0.0245958534889,-0.40507317646,-6.85131788254,0.699983477592,-1.35106158257,-0.124909706414,-2.85042095184,-0.171406507492
2017/07/09/10:17:14.843437,501951,1499566637,649532097,,0.783005550712,0.172316368189,0.135472231507,0.738674025574,0.672482872654,0.0399241291619,0.0230983514448,0.0379912394407,-0.269488705187,-0.0739224379989,0.0862424438611,0.00268101889965,-0.426572612991,-6.52635192871,0.69411700964,-1.02075970173,-0.161619067192,-2.74715542793,-0.178949266672
2017/07/09/10:17:14.853251,501952,1499566637,659532972,,0.783178992741,0.169029227745,0.134378212657,0.740038529336,0.670991463726,0.0397506954982,0.023093568649,0.0240434496163,-0.27711584119,-0.0911347124761,0.0704166518015,0.0399475348983,-0.423681148378,-6.40276861191,0.444513052702,-1.09329044819,-0.203478515148,-2.70230054855,-0.178083121777
2017/07/09/10:17:14.863134,501953,1499566637,669526617,,0.783916885159,0.166118435975,0.133945717315,0.741199681638,0.669683869069,0.0399144819278,0.0235240638622,0.0246156892723,-0.287509193556,-0.0786401324568,0.031955889273,0.0263637807608,-0.405455611509,-7.16909837723,0.316833913326,-0.805034935474,-0.244725704193,-3.05916404724,-0.183032229543
2017/07/09/10:17:14.873184,501954,1499566637,679527360,,0.783561964063,0.163201843671,0.132568301537,0.742530933382,0.668268692702,0.0393345725609,0.0227499170633,0.034419413144,-0.27657487498,-0.0945390895394,0.0164271385548,0.0267524153585,-0.382661548921,-7.02761173248,-0.0567688047886,-0.996792733669,-0.144125491381,-3.01719069481,-0.165459424257
2017/07/09/10:17:14.883175,501955,1499566637,689532601,,0.784684032142,0.160938927169,0.132191943669,0.74353742671,0.667096863481,0.0397786330149,0.0234846794995,0.0413831619381,-0.279146422606,-0.0927865091919,0.000322629133287,0.0180434691098,-0.338474566164,-6.61320877075,0.100571393967,-1.03351843357,-0.20310986042,-2.9587469101,-0.197563052177
2017/07/09/10:17:14.893163,501956,1499566637,699546438,,0.785077378763,0.158581875786,0.131519718103,0.744614423278,0.665902541401,0.0396878854896,0.0234102060683,0.0476156120801,-0.271735884635,-0.07659340197,-0.0145700106375,0.00397101553842,-0.34127404135,-6.82159948349,0.105953589082,-0.983986020088,-0.0291348397732,-3.09242129326,-0.147284030914
2017/07/09/10:17:14.903055,501957,1499566637,709532226,,0.785228583499,0.156056009868,0.130217948037,0.745600141348,0.664833641395,0.0391924383478,0.0232510487427,0.0587552201022,-0.288947987232,-0.0704426900658,-0.0428742158954,-0.0211372407714,-0.36405340584,-6.08540773392,0.271807551384,-1.69811534882,-0.050138451159,-2.83585572243,-0.134547054768
2017/07/09/10:17:14.913423,501958,1499566637,719532410,,0.785552291451,0.152610056273,0.129354690993,0.747074000783,0.663197693463,0.0386753086453,0.0235260970252,0.0518246955853,-0.28266841768,-0.0788038550898,-0.0555849699913,-0.00602265795983,-0.334673283785,-5.4888715744,0.142810165882,-1.86227703094,-0.0999011471868,-2.63626766205,-0.187089249492
2017/07/09/10:17:14.923059,501959,1499566637,729529853,,0.786721028348,0.149678910959,0.129036391087,0.747951158276,0.662155867971,0.0389836144882,0.0244734375746,0.0586679694638,-0.287873986815,-0.087442398782,-0.0498985528995,-0.0167406454987,-0.335658435987,-5.34923934937,0.344855725765,-1.52346217632,-0.183310598135,-2.60304403305,-0.188688024879
2017/07/09/10:17:14.933269,501960,1499566637,739538276,,0.786996162851,0.148107091234,0.12771705676,0.748259157072,0.661845523911,0.0383714697443,0.0244206193139,0.0689207029452,-0.285022268677,-0.0827167820179,-0.0886217852864,-0.0380077509315,-0.289175327695,-5.5822057724,1.10500299931,-1.35244786739,-0.394564330578,-2.69451141357,-0.215560749173
2017/07/09/10:17:14.943183,501961,1499566637,749535081,,0.788236824142,0.145428713136,0.127603690499,0.749435510911,0.660448165977,0.0389080013575,0.0253140765824,0.0718149651492,-0.276696635141,-0.0826395661067,-0.0782643125576,-0.0409618897204,-0.278376396472,-5.24240207672,0.982637882233,-0.942547678947,-0.447358250618,-2.54161810875,-0.245680481195
2017/07/09/10:17:14.953261,501962,1499566637,759531937,,0.788781193729,0.141499807589,0.126788742441,0.75054518474,0.659182774579,0.0383793658318,0.0262110595012,0.0665969376245,-0.280048152447,-0.0717524042308,-0.06792137661,-0.0433891843444,-0.325306922416,-5.24230766296,0.0671268478036,-1.00559413433,-0.230593174696,-2.53853297234,-0.154965445399
2017/07/09/10:17:14.963297,501963,1499566637,769532143,,0.789429708612,0.139231735636,0.12581098459,0.751634963498,0.657930632922,0.0385036463758,0.0262608668192,0.0715346626714,-0.30581402718,-0.0666644758367,-0.113488587448,-0.0577837061846,-0.330109958156,-5.25495386124,0.138177961111,-1.24424576759,-0.198175251484,-2.53869700432,-0.210039913654
2017/07/09/10:17:14.973215,501964,1499566637,779531972,,0.789546075873,0.136300310901,0.12505052101,0.752392828182,0.657098190335,0.0376481257061,0.0266386746759,0.063341861574,-0.279864161545,-0.0842503880204,-0.0889591953127,-0.0253725036658,-0.295996959441,-4.43955564499,-0.32557284832,-1.54334414005,0.0663435459137,-2.26627087593,-0.114489518106
2017/07/09/10:17:14.982998,501965,1499566637,789530780,,0.790581528344,0.134687398207,0.123966755856,0.752880415532,0.656521647167,0.0375934503269,0.0271503075855,0.0655433839949,-0.295439982611,-0.0800217248205,-0.146107756805,-0.0246495220294,-0.265481655517,-3.85397267342,0.324768304825,-2.0948176384,-0.0943559408188,-2.0951256752,-0.143537789583
2017/07/09/10:17:14.993225,501966,1499566637,799534990,,0.791663028009,0.131454023529,0.124087316082,0.753865674368,0.655341710626,0.0375661411629,0.0283297080971,0.0835324378477,-0.287528115414,-0.0731830571709,-0.136110914554,-0.0676271685649,-0.276395508088,-2.6817150116,0.333089441061,-1.86577284336,-0.0909014567733,-1.66655445099,-0.186546623707
2017/07/09/10:17:15.003089,501967,1499566637,809554310,,0.79225627393,0.127962839921,0.122978568546,0.754902533455,0.654143131158,0.0368537015358,0.0293382621163,0.0935045706192,-0.279265430977,-0.0631419119878,-0.139809765141,-0.0936330194948,-0.249250196833,-2.8839263916,0.164792448282,-1.98113703728,-0.0999660789967,-1.71722865105,-0.135818079114
2017/07/09/10:17:15.013178,501968,1499566637,819534579,,0.793065915168,0.125827915463,0.122400624612,0.755459979106,0.653477117462,0.0368954131967,0.0297759199203,0.0761430068522,-0.303038710477,-0.0622964198067,-0.168740594984,-0.0534086108924,-0.264246748474,-3.77068543434,-0.0597410202026,-1.52944362164,-0.107803441584,-2.01135230064,-0.182437300682
2017/07/09/10:17:15.023274,501969,1499566637,829532012,,0.793719872901,0.123022744616,0.121616008687,0.756245755473,0.652568871237,0.0362450833912,0.0305371831056,0.0828075320626,-0.286261843096,-0.0670978300669,-0.167127855492,-0.0595409347745,-0.241253976497,-4.04741954803,0.139421001077,-1.17160093784,-0.160258963704,-2.08359098434,-0.151256740093
2017/07/09/10:17:15.033190,501970,1499566637,839532575,,0.794581669285,0.120495555003,0.120963325278,0.757070478773,0.651583268915,0.0360772904761,0.0313362880951,0.0925551866432,-0.28156209646,-0.046055475178,-0.169059271168,-0.0845531594215,-0.243823547221,-4.24902153015,0.767705380917,-1.24405384064,-0.321105122566,-2.1660554409,-0.167683660984
2017/07/09/10:17:15.043069,501971,1499566637,849533164,,0.795419836549,0.116864071467,0.12078468513,0.75786972075,0.650615640381,0.0356853236197,0.0325473891518,0.0760822355786,-0.283884665459,-0.0551463842885,-0.176804142537,-0.0508704007229,-0.227534587326,-3.61775326729,-0.235381960869,-1.19165468216,-0.182606875896,-1.90775322914,-0.154799237847
2017/07/09/10:17:15.052964,501972,1499566637,859526123,,0.796504163354,0.115063753579,0.120655724194,0.757762205216,0.650694742456,0.0354012629839,0.0337571187289,0.0596593109283,-0.293682851906,-0.0607363843418,-0.191895384258,-0.0115758711506,-0.23201847847,-2.89617347717,0.627960264683,-1.57506811619,-0.30401724577,-1.7607614994,-0.162148147821
2017/07/09/10:17:15.063245,501973,1499566637,869536102,,0.79647066265,0.11089369475,0.119902751073,0.759168133425,0.649081777295,0.0340416888885,0.0346085971049,0.0857585182379,-0.278897677682,-0.0450168291609,-0.199893956771,-0.0636864709887,-0.198151372234,-2.84556818008,-0.460816144943,-2.07469177246,-0.0924504101276,-1.57891690731,-0.12386726588
2017/07/09/10:17:15.073160,501974,1499566637,879533117,,0.796885161702,0.108791398935,0.11892878462,0.759677383608,0.648513191923,0.0336274778418,0.0344979052971,0.0460343276421,-0.300427132735,-0.0744030233122,-0.215835830747,0.024830450321,-0.236492623027,-1.89736676216,0.150211691856,-2.72473216057,-0.23664355278,-1.32118844986,-0.162466734648
2017/07/09/10:17:15.083049,501975,1499566637,889529245,,0.797529271514,0.106749251396,0.118194856997,0.759718403498,0.648466606208,0.0327990877258,0.0352594365166,0.0395996021401,-0.271872526319,-0.0788661057976,-0.185763181884,0.0587428536362,-0.202895330152,-2.1845831871,0.469462990761,-2.23604607582,-0.366337776184,-1.44733452797,-0.190667465329
2017/07/09/10:17:15.093089,501976,1499566637,899533602,,0.797839218753,0.103748889915,0.117939961921,0.760609500613,0.647418454096,0.0319762218037,0.0360562631622,0.0716968923551,-0.275933318069,-0.0457080590392,-0.199696733908,-0.023296947312,-0.202714341757,-2.75052309036,0.505870521069,-1.66294062138,-0.359899520874,-1.60884356499,-0.170120209455
2017/07/09/10:17:15.102776,501977,1499566637,909530182,,0.798518398262,0.100945955693,0.117522646623,0.761343590016,0.646533667153,0.0314776626062,0.0368688477713,0.0483671586846,-0.274082631869,-0.0571365661036,-0.199917270561,0.0199163004208,-0.21556890594,-3.42606472969,0.299542665482,-1.32409143448,-0.380475074053,-1.85681283474,-0.187059402466
2017/07/09/10:17:15.113312,501978,1499566637,919546419,,0.798562215287,0.0987459085596,0.116477616095,0.761851770525,0.645973277587,0.030276200042,0.0371988723286,0.0453378014233,-0.289751191603,-0.0550544598784,-0.221921266582,0.02836742388,-0.23362160719,-3.00984525681,0.560112416744,-1.38998365402,-0.357893139124,-1.64060294628,-0.155918926001
2017/07/09/10:17:15.123046,501979,1499566637,929531931,,0.799130787725,0.0958354425508,0.115852939975,0.762270678701,0.645471962062,0.0292984330943,0.0380914741602,0.0436777870305,-0.281459807354,-0.0559181929956,-0.230152295089,0.0315710507997,-0.196368855169,-2.80368900299,0.558575987816,-1.2676422596,-0.367893397808,-1.59645044804,-0.126428455114
2017/07/09/10:17:15.133126,501980,1499566637,939535287,,0.799242079798,0.0931897029947,0.115355640482,0.763146966036,0.644437700611,0.0284840655553,0.0386706124984,0.0373719975354,-0.28131504447,-0.0506068730804,-0.230979364986,0.0480482923458,-0.180591030428,-2.33534574509,0.107251256704,-1.17356097698,-0.319713950157,-1.4031842947,-0.175757408142
2017/07/09/10:17:15.143031,501981,1499566637,949530591,,0.799469191639,0.0911505066458,0.115081307836,0.763734600179,0.643772283958,0.0279041441746,0.0385754537849,0.041521231531,-0.265506896076,-0.0458925804649,-0.223167275846,0.040304109098,-0.168392599567,-1.41910970211,0.562536180019,-1.60702705383,-0.379765599966,-1.04854142666,-0.169857159257
2017/07/09/10:17:15.153134,501982,1499566637,959535528,,0.800201651185,0.0881631573658,0.114876806748,0.763943978348,0.643477114421,0.0269562371317,0.0400020304615,0.0369091366308,-0.25351462052,-0.0572126171821,-0.176031724168,0.059189839071,-0.205787907838,-1.11114764214,0.303066551685,-1.33899116516,-0.376566082239,-1.02026379108,-0.178168877959
2017/07/09/10:17:15.166248,501983,1499566637,969533438,,0.800107999049,0.0854501357353,0.114095018218,0.765064102653,0.642187629391,0.0257128286665,0.0401349963231,0.0174921790776,-0.255937271869,-0.0510737161556,-0.184487961691,0.0956599213769,-0.227292562111,-1.45356655121,-0.0960053354502,-1.40815365314,-0.281493186951,-1.13366162777,-0.130565851927
2017/07/09/10:17:15.173112,501984,1499566637,979535503,,0.800809033841,0.0841994318722,0.11375382101,0.765212956342,0.641997043158,0.0251765841302,0.0406825224726,0.0277232882696,-0.246770541862,-0.0457020406363,-0.190173285631,0.0807206176446,-0.191856612048,-0.866084337234,1.02550804615,-1.60833835602,-0.506444573402,-0.958787739277,-0.188601762056
2017/07/09/10:17:15.182883,501985,1499566637,989528574,,0.800635916532,0.0815605211877,0.112742746935,0.765815901161,0.641315828968,0.024046207531,0.0407650947268,0.0214739034285,-0.253154358716,-0.0483871806891,-0.187932614296,0.0798303929277,-0.198600677034,-1.7899979353,0.686479449272,-1.70006465912,-0.464258223772,-1.1852440834,-0.178748458624
2017/07/09/10:17:15.193296,501986,1499566637,999572573,,0.800938838845,0.0792123867475,0.11280768456,0.766501411685,0.640490312808,0.0232720803685,0.0413056335043,0.0300776154166,-0.255516792231,-0.0442545825252,-0.187324388997,0.0631274328547,-0.208869010151,-1.25907158852,0.537742197514,-1.23022568226,-0.444441854954,-0.959533572197,-0.177726149559
2017/07/09/10:17:15.203212,501987,1499566638,9526404,,0.80047754525,0.0764703018303,0.11194295367,0.76744761547,0.639409165349,0.0218461733968,0.0412652576163,0.00375678481337,-0.227812610055,-0.0615971301319,-0.156413665214,0.133251926995,-0.187000540267,-0.940026521683,-0.390747845173,-1.46591818333,-0.204480201006,-0.83271086216,-0.133494228125
2017/07/09/10:17:15.213342,501988,1499566638,19534988,,0.801314011845,0.0749665682549,0.111784568147,0.767385616374,0.639448849189,0.0213898828153,0.0420351991221,0.012078969228,-0.226380612385,-0.0460992079703,-0.149331819211,0.0990485504745,-0.189358594437,-0.386506319046,0.0499031245708,-0.714818179607,-0.266263782978,-0.71319270134,-0.114843167365
2017/07/09/10:17:15.223104,501989,1499566638,29527383,,0.801050462126,0.0720769312382,0.11156900473,0.768352669116,0.638307835453,0.0201018380784,0.0423461824546,0.00534703508036,-0.221499765597,-0.0467260673445,-0.139631014807,0.119122552577,-0.201202303242,-0.0397458858788,-0.448333263397,-1.40403652191,-0.146289870143,-0.496206134558,-0.125245332718
2017/07/09/10:17:15.233390,501990,1499566638,39529087,,0.800881852956,0.0706229433119,0.110845028937,0.768924665139,0.637674970481,0.0194285278824,0.0418093729699,-0.0144352439302,-0.241595012574,-0.0535308656271,-0.160015288909,0.159661284428,-0.223503152804,0.117809176445,-0.217844843864,-1.36974871159,-0.244551122189,-0.449812501669,-0.124809801579
2017/07/09/10:17:15.243398,501991,1499566638,49537776,,0.800828445081,0.068459598995,0.110328398626,0.769531807124,0.636956790444,0.0183393605997,0.0420774617088,-0.00755933748448,-0.236736266929,-0.0432976492171,-0.169559577401,0.148399710463,-0.19539100519,0.789508700371,0.476498663425,-1.76893222332,-0.351749062538,-0.155173674226,-0.161855086684
2017/07/09/10:17:15.253528,501992,1499566638,59535357,,0.800818605587,0.0674510668343,0.109573846051,0.769219145056,0.637374044514,0.017150825302,0.0419771777359,-0.015845311169,-0.208292084703,-0.0546985865152,-0.133713597126,0.16173114644,-0.170701936333,0.45953553915,1.13295423985,-1.54356384277,-0.492226868868,-0.251209497452,-0.192395150661
2017/07/09/10:17:15.262945,501993,1499566638,69528168,,0.801023451801,0.0647890008108,0.109845987646,0.770200410509,0.636169401212,0.0165649680493,0.042490262951,-0.0220240481262,-0.206724401752,-0.0559558911709,-0.126884457303,0.17140970909,-0.184146831818,0.493401050568,0.173195213079,-0.673301458359,-0.302380740643,-0.220642983913,-0.179070398211
2017/07/09/10:17:15.273259,501994,1499566638,79559132,,0.799929920153,0.0620263983993,0.108706509371,0.771063973844,0.635204802774,0.0149779947461,0.041843356061,-0.0205386230823,-0.19815163764,-0.0516335845332,-0.116257256715,0.160579892757,-0.198437666699,-0.147908776999,-0.396539449692,-1.21704626083,-0.0473829805851,-0.269400209188,-0.136026635766
2017/07/09/10:17:15.283134,501995,1499566638,89529192,,0.80031237443,0.0612800057346,0.108598798882,0.771497746002,0.634689929254,0.0144967578969,0.0418301999501,-0.0248458334518,-0.197897718431,-0.0455282618086,-0.10024212817,0.165779365468,-0.200803083292,0.677249193192,0.240609675646,-0.806505382061,-0.126830086112,-0.0398734360933,-0.114483326674
2017/07/09/10:17:15.293140,501996,1499566638,99531712,,0.799406167426,0.0586030334256,0.107936310684,0.772345418193,0.63371363464,0.0130780562099,0.0414553822014,-0.0260312079943,-0.190508164491,-0.0554125941912,-0.0997277702059,0.171277528509,-0.165432980161,1.2041028738,-0.119066849351,-0.819540739059,-0.104109659791,0.269397705793,-0.125817343593
2017/07/09/10:17:15.302932,501997,1499566638,109527435,,0.798977678523,0.0576720811425,0.10695487743,0.772635581625,0.633427668056,0.012172979417,0.0406874172107,-0.0334492430569,-0.173511318158,-0.0523341903616,-0.0574152463875,0.192482035834,-0.194836485932,1.80964505672,0.314563333988,-1.28977119923,-0.193605810404,0.479065775871,-0.153969421983
2017/07/09/10:17:15.315394,501998,1499566638,119536684,,0.799119280152,0.055938589454,0.107109964572,0.773699606647,0.632137845418,0.0117411724328,0.0406547406123,-0.0568136959512,-0.164225780692,-0.0574348260748,-0.0390189339912,0.243541606498,-0.221948762411,2.27587175369,-0.222566813231,-1.06088089943,-0.10647790134,0.597452044487,-0.159349858761
2017/07/09/10:17:15.323016,501999,1499566638,129526806,,0.798370187068,0.0544557463676,0.106340446252,0.773887025239,0.631969724991,0.0102455143182,0.0401019737501,-0.0539172461814,-0.172503953545,-0.0525632630807,-0.0445247669078,0.228033378754,-0.228150853524,1.97788977623,0.089992672205,-1.3165358305,-0.077679656446,0.490370064974,-0.127522394061
2017/07/09/10:17:15.333137,502000,1499566638,139530863,,0.797650647204,0.0525217180119,0.105420840239,0.774646868904,0.631091655117,0.00903094561079,0.0395473559098,-0.0679686991059,-0.165296633251,-0.0676811672469,-0.0482616582351,0.26344378485,-0.189570026608,1.87711858749,-0.375932872295,-1.26777684689,0.0799726992846,0.45754173398,-0.105640813708
2017/07/09/10:17:15.343065,502001,1499566638,149528246,,0.796680780379,0.0513557538635,0.105115582995,0.775161658267,0.630533926948,0.00794041490184,0.0385787549136,-0.0624011489491,-0.16685904389,-0.0507818434608,-0.065150187957,0.23990515908,-0.177529036334,1.22285735607,-0.591366231441,-0.987478852272,0.10269933939,0.252640396357,-0.120796948671
2017/07/09/10:17:15.353303,502002,1499566638,159566462,,0.795849858643,0.0499803417384,0.103914226185,0.775528800636,0.630146636742,0.00675176810826,0.0377453204236,-0.0565086159978,-0.143818731774,-0.0526610188916,-0.0321337973078,0.22395465554,-0.185945678054,1.31231975555,-0.384948074818,-1.35955691338,0.0271535888314,0.285360127687,-0.140032112598
2017/07/09/10:17:15.363147,502003,1499566638,169529510,,0.795742875243,0.0481944213687,0.104286054999,0.776692743314,0.628732849866,0.00651931147819,0.0374283924387,-0.046930303346,-0.141347001105,-0.0475369782862,0.0093004867605,0.197740769133,-0.212992510132,2.04822540283,-0.37697905302,-0.764372587204,-0.0719961896539,0.597235023975,-0.197902530432
2017/07/09/10:17:15.373338,502004,1499566638,179568844,,0.795197920751,0.0471222427534,0.10321039759,0.77726253272,0.628080291446,0.00574071339373,0.0366762448655,-0.0544240952433,-0.134035656291,-0.0552498956994,0.0303533462575,0.199595405522,-0.200941564305,2.24523115158,-0.294506728649,-1.07827007771,-0.0241952724755,0.733416080475,-0.142488628626
2017/07/09/10:17:15.383095,502005,1499566638,189527977,,0.795011918524,0.0460778513881,0.103083885736,0.777476372223,0.627837044366,0.00539755609121,0.0363593556693,-0.0445994784485,-0.138693017269,-0.0497766823179,0.00350902871564,0.176777338444,-0.212945141056,2.94647312164,0.053349994123,-0.971819400787,-0.0803125202656,0.972292900085,-0.166727110744
2017/07/09/10:17:15.393106,502006,1499566638,199525894,,0.794578610332,0.0449359722427,0.102363672391,0.778034978572,0.627181055607,0.00455600173912,0.0358432483891,-0.0449672497332,-0.136952418994,-0.0495870485671,0.00687535323378,0.166263914244,-0.190850973369,2.55388879776,0.384160816669,-0.720463871956,-0.137044101954,0.904423356056,-0.174874156713
2017/07/09/10:17:15.403332,502007,1499566638,209528259,,0.794061942192,0.0430462897433,0.102111817411,0.778889464725,0.626150248604,0.00411012754206,0.0353578105382,-0.0543466174906,-0.134238676656,-0.0511194578662,0.010133408082,0.181254056571,-0.194182078567,1.81597697735,-0.348682761192,-0.751630306244,0.00607101619244,0.743250787258,-0.151739358902
2017/07/09/10:17:15.413145,502008,1499566638,219535087,,0.793529673014,0.0423245555495,0.101401312546,0.779483052449,0.625474934387,0.00365648719457,0.0342623335318,-0.0660471815533,-0.126993622255,-0.0661977452148,0.0468923197318,0.206973040882,-0.210632176511,2.37404918671,-0.2206043154,-0.797472178936,0.145278573036,0.846701145172,-0.140702277422
2017/07/09/10:17:15.423300,502009,1499566638,229550533,,0.792997977226,0.0412728553361,0.100866435467,0.78054326644,0.624195092315,0.00328681259853,0.0334946683529,-0.0671167790915,-0.118551310054,-0.0687783451363,0.0726021054724,0.204524537762,-0.214932700202,2.58250904083,-0.0423786193132,-0.781075716019,0.00213479995728,0.922379016876,-0.158664643764
2017/07/09/10:17:15.433288,502010,1499566638,239562016,,0.792027693221,0.0401493479243,0.100230454609,0.780923985444,0.623769158824,0.00224174781079,0.0326303543471,-0.0710989362524,-0.100843703588,-0.0643669050488,0.0877992014657,0.210211680367,-0.2280900131,2.22822237015,-0.32894963026,-0.440294653177,0.103559046984,0.801531612873,-0.149097234011
2017/07/09/10:17:15.443120,502011,1499566638,249527148,,0.791506320733,0.039080217675,0.0993648729738,0.781512428709,0.623073794791,0.00167349959868,0.0318523063015,-0.0760596170713,-0.131029208164,-0.0572031471062,0.0466137513106,0.200093304657,-0.241259796566,2.50709891319,0.278386235237,-0.726038396358,-0.137558490038,0.816869139671,-0.199292674661
2017/07/09/10:17:15.453128,502012,1499566638,259530488,,0.790413557491,0.0383674256536,0.0985990446116,0.78196708596,0.62257467766,0.00128419336839,0.0304400732429,-0.0571839165354,-0.112327624832,-0.0508905216864,0.0714437173945,0.146495378019,-0.221399130192,2.37117028236,-0.0861805677414,-0.680304527283,-0.020787473768,0.804126799107,-0.1619528234
2017/07/09/10:17:15.462836,502013,1499566638,269532465,,0.789877751801,0.0372320673417,0.0977227108187,0.78275079863,0.621625498012,0.00096788551503,0.0296983276231,-0.0574010987841,-0.109516573844,-0.0525191987146,0.0701799157566,0.141490742365,-0.203743037676,1.9223344326,0.231764435768,-0.340951681137,-0.153738677502,0.604055643082,-0.193703889847
2017/07/09/10:17:15.473116,502014,1499566638,279532097,,0.789433555009,0.0362417739325,0.0971936188676,0.783180825075,0.621100936715,0.000433244359506,0.0293467876711,-0.0481244247079,-0.114312528221,-0.0629169951374,0.0658821779503,0.117876914451,-0.1981530787,1.66592717171,0.29449224472,-0.561946809292,-0.0894545614719,0.555647313595,-0.133035242558
2017/07/09/10:17:15.483125,502015,1499566638,289529695,,0.789453774436,0.0349397541639,0.096728808199,0.783859474491,0.620251024922,0.000570326763293,0.0292004291298,-0.0423771500351,-0.122190400142,-0.061017401599,0.0481702012127,0.0966501268237,-0.20328298372,2.99394392967,0.192641168833,-1.39147734642,-0.121332854033,1.15245616436,-0.205894842744
2017/07/09/10:17:15.493265,502016,1499566638,299534636,,0.789196506101,0.0342433703415,0.0964693597512,0.784338807853,0.619670060285,0.000787418679153,0.0286536359711,-0.0239389716494,-0.103582956774,-0.0527752922843,0.0593794792885,0.0483162986065,-0.177391885557,3.38091659546,0.263587772846,-1.06714510918,-0.0465558990836,1.3560372591,-0.177722513676
2017/07/09/10:17:15.503349,502017,1499566638,309531825,,0.788811597329,0.03266674713,0.0958567622412,0.785171770843,0.618622061654,0.000758007884202,0.0284861462864,-0.0418411263413,-0.127640881937,-0.0663980947841,0.0491889705531,0.0615809699221,-0.208321898347,3.27369189262,-0.366072446108,-0.46965265274,0.16633310914,1.34700930119,-0.162895858288
2017/07/09/10:17:15.512870,502018,1499566638,319527025,,0.788504113488,0.0310246864798,0.0953304414939,0.785852195756,0.617757795446,0.000621802161003,0.0284823797083,-0.0316135166769,-0.126077555356,-0.0490049871033,0.0474609422159,0.0290051016932,-0.206219299494,2.36830091476,-0.43300318718,-0.657602488995,0.115948647261,0.974138200283,-0.150329008698
2017/07/09/10:17:15.523520,502019,1499566638,329527294,,0.78828849464,0.0297342595596,0.0949294034484,0.786416106841,0.617046838781,0.000702189826994,0.0283268879407,-0.0422799378641,-0.134766727254,-0.0639388715882,0.0310839464316,0.0496358273572,-0.193472148826,0.854546546936,-0.420710802078,0.258739501238,0.0455278679729,0.383880764246,-0.154871955514
2017/07/09/10:17:15.533122,502020,1499566638,339539423,,0.787634443107,0.0284188655614,0.0941657068096,0.787085067968,0.616218440909,0.000457984345425,0.0277798329065,-0.0311259477418,-0.128122207422,-0.0511669814683,0.0388622302413,0.0208743642737,-0.205114694129,0.736791312695,-0.140251457691,-0.03249219805,-0.142128884792,0.374645709991,-0.179841190577
2017/07/09/10:17:15.543415,502021,1499566638,349531941,,0.787312861607,0.0277033513082,0.0936165391839,0.787514295317,0.615676612096,0.000292388397231,0.0276307527595,-0.0394148732071,-0.131995230568,-0.0639894039499,0.0334793885215,0.0324661348957,-0.195165896904,2.82084226608,0.563140869141,-0.485441088676,-0.252230107784,1.14894688129,-0.211980670691
2017/07/09/10:17:15.553148,502022,1499566638,359535554,,0.786667140258,0.0262636891463,0.0929753997718,0.788176981268,0.61485041964,0.000271103137671,0.0271281066667,-0.0301037617478,-0.108890451179,-0.0546296819905,0.0388817552617,0.0158486179801,-0.1829754021,1.22583389282,0.176700875163,-0.204634130001,-0.18557280302,0.682290732861,-0.188943326473
2017/07/09/10:17:15.562973,502023,1499566638,369533236,,0.786322357339,0.0251774796433,0.0923816937752,0.788843338858,0.61400824995,0.000396002656532,0.0268309320493,-0.0645080804375,-0.117228957064,-0.0782355508858,0.0654061615337,0.0826044906682,-0.185361167008,3.19391131401,0.145287185907,-0.68367010355,-0.0611191391945,1.30810129642,-0.184490248561
2017/07/09/10:17:15.573202,502024,1499566638,379535241,,0.785728983679,0.0245639500191,0.0914717239334,0.789051589795,0.613763561354,0.000158971246775,0.0263031200467,-0.0528461110749,-0.115810382324,-0.070855588264,0.0448795375994,0.0625522661558,-0.160274281624,1.96152508259,-0.0183177888393,-0.75849622488,0.00111755728722,0.94423365593,-0.192231193185
2017/07/09/10:17:15.583067,502025,1499566638,389533306,,0.785075816588,0.0232135302563,0.0912582764315,0.789623138685,0.613033272059,-0.000204471962014,0.0261813749422,-0.0689154745834,-0.131210592025,-0.0591264310616,0.0362302021024,0.0817304010445,-0.205012955721,1.58629155159,-0.0472674369812,-0.436155498028,-0.0587411336601,0.801002442837,-0.204652935266
2017/07/09/10:17:15.593228,502026,1499566638,399534385,,0.784463484651,0.02206089011,0.0908329490461,0.790124093012,0.612404766695,-0.00040072817391,0.0257712783557,-0.061415112475,-0.103043330921,-0.0642146096939,0.039714435138,0.0827193621446,-0.150634826611,0.825766801834,0.271277844906,0.0399544201791,-0.140922948718,0.474834799767,-0.181194514036
2017/07/09/10:17:15.603262,502027,1499566638,409535305,,0.783082430777,0.020308136659,0.0896626829095,0.790895794869,0.611442521155,-0.00112294937659,0.0249123255859,-0.0692308232466,-0.14120815083,-0.0617716881015,0.031226258333,0.0673170134767,-0.212691541393,0.696658670902,-0.180029958487,-0.30663651228,-0.0260791257024,0.460777580738,-0.187649220228
2017/07/09/10:17:15.613072,502028,1499566638,419527819,,0.782771216914,0.0195279954766,0.0886010250652,0.791233177896,0.611019935451,-0.00106010994738,0.0245677195602,-0.0751635689128,-0.128016519112,-0.0672087674714,0.0488576994842,0.0899827977994,-0.188208381404,1.46843111515,-0.0487340241671,-0.679746747017,-0.189682722092,0.748899698257,-0.224813193083
2017/07/09/10:17:15.623403,502029,1499566638,429527775,,0.782365991839,0.019077477503,0.0880277027418,0.791641397561,0.610509963501,-0.00093899617118,0.0240956514742,-0.0793216655208,-0.110170152465,-0.0813677009827,0.0512347865491,0.113445552785,-0.161094197291,2.42992758751,0.221149772406,-0.848803520203,-0.1129187271,1.09613990784,-0.269135892391
2017/07/09/10:17:15.633152,502030,1499566638,439530344,,0.781624534049,0.0173108266543,0.0877467292267,0.792340829785,0.609607189333,-0.00142203397235,0.0239387131846,-0.0914054038548,-0.120164917887,-0.0790813199991,0.0627997480622,0.128160018686,-0.183501526224,2.63556480408,-0.197322905064,-0.253889173269,-0.00645434856415,1.09934055805,-0.239697560668
2017/07/09/10:17:15.643255,502031,1499566638,449528930,,0.780879364678,0.0162465046461,0.0869687068008,0.793082326648,0.608667148684,-0.00153380483765,0.0232888967893,-0.0736990475256,-0.0995158502481,-0.0767221716699,0.0607085691849,0.100445516303,-0.164216436897,2.74485349655,0.0557395666838,-0.106678806245,-0.0815618485212,1.16273856163,-0.269555032253
2017/07/09/10:17:15.653229,502032,1499566638,459541289,,0.779535133596,0.0146407821178,0.0857199251536,0.793453856376,0.608201885119,-0.00240847594182,0.0227077956597,-0.075265627233,-0.115152771351,-0.0748553839773,0.0592976295428,0.0952984834277,-0.188792373639,1.75599622726,-1.08711922169,-0.286330223083,0.120273426175,0.884224295616,-0.237427949905
2017/07/09/10:17:15.662959,502033,1499566638,469530203,,0.77931207185,0.0146413398148,0.0854022568245,0.793881523112,0.60767106845,-0.00204297873226,0.0219960466519,-0.0901015905283,-0.135059105126,-0.0782486491783,0.0440958139287,0.115771607293,-0.186749905471,2.27094268799,-0.0184150338173,-0.0582765676081,-0.012481495738,0.941836833954,-0.23899435997
2017/07/09/10:17:15.673290,502034,1499566638,479538992,,0.778564169268,0.0125423210399,0.084736192502,0.794801868018,0.606472827999,-0.00219446726111,0.0218147612301,-0.0768534926455,-0.110160898072,-0.0754688831341,0.0653696212033,0.100650179768,-0.183646430995,2.29146194458,-0.883123517036,0.333539634943,0.096484452486,0.999520242214,-0.267423450947
2017/07/09/10:17:15.682966,502035,1499566638,489532956,,0.778141851545,0.011772688929,0.0841378516462,0.79488235619,0.60638299563,-0.0022040350394,0.0213739246975,-0.0810571725801,-0.128007795516,-0.0720532880207,0.0663458544143,0.0936692199809,-0.184331508167,2.8011610508,-0.594583570957,0.334518373013,0.0786237567663,1.16406047344,-0.247155770659
2017/07/09/10:17:15.693197,502036,1499566638,499528429,,0.777221887163,0.0103845260684,0.084158121977,0.795364910066,0.605765184791,-0.00223973194043,0.0209328529399,-0.059393984387,-0.105738128984,-0.0610069180871,0.0537838650865,0.0606162803317,-0.151904878024,2.15785050392,-0.842467963696,0.949271261692,0.0469607710838,0.985684394836,-0.265649199486
2017/07/09/10:17:15.703205,502037,1499566638,509527445,,0.775905221533,0.0106173933907,0.0824620310118,0.79570415805,0.60536925458,-0.00319187855652,0.019307262447,-0.0799288434726,-0.122525797266,-0.061675920318,0.0499884025178,0.0967075084008,-0.18225577308,2.16973567009,0.306200474501,-0.10234271735,-0.166555017233,1.00909864902,-0.270566254854
2017/07/09/10:17:15.713263,502038,1499566638,519528110,,0.776092300801,0.00850582940843,0.0824668278386,0.796337772032,0.604504362457,-0.00295628540954,0.0202950482312,-0.0675314829941,-0.104447457957,-0.0630762746032,0.0539456508163,0.0859417770495,-0.16961717366,2.40173220634,-0.231817990541,0.170948177576,-0.0266814380884,1.01468062401,-0.272098660469
2017/07/09/10:17:15.723095,502039,1499566638,529537231,,0.775371041846,0.00832795856773,0.0814660666973,0.796657575657,0.604115638686,-0.003126054498,0.0192673305556,-0.0596473724845,-0.098851086388,-0.0764434602102,0.0596610585301,0.0733447346928,-0.156272346988,2.76203560829,0.168775856495,-0.338618278503,-0.126962915063,1.21622252464,-0.321972370148
2017/07/09/10:17:15.732998,502040,1499566638,539535027,,0.774829156586,0.00705480400169,0.0809580181483,0.797120323058,0.603511422029,-0.00316873731601,0.019055528108,-0.0633023489875,-0.0867639869656,-0.0763035853474,0.0487014846114,0.0914440584727,-0.140412594546,2.63933777809,-0.0365533232689,0.130739033222,-0.016724139452,1.08947241306,-0.287214964628
2017/07/09/10:17:15.743029,502041,1499566638,549532331,,0.774009914396,0.00622534333403,0.0798364893807,0.797713740675,0.602749740425,-0.00332888544538,0.0182881622263,-0.0747935647812,-0.10845654508,-0.0824118360937,0.0643675054747,0.0930214976891,-0.173083108077,2.08167815208,-0.360750705004,-0.0834029838443,-0.00315299630165,0.951226651669,-0.304027855396
2017/07/09/10:17:15.752940,502042,1499566638,559525854,,0.773469833145,0.0055421139955,0.0793160788614,0.798246516399,0.602062504095,-0.00321758685345,0.0176886221409,-0.0730436583729,-0.103874882455,-0.0864523680842,0.0707854105394,0.0916098843573,-0.18621243862,2.13371276855,0.179975494742,0.488907337189,-0.0489174127579,0.974170207977,-0.29382455349
2017/07/09/10:17:15.763177,502043,1499566638,569528458,,0.772500040548,0.00312417399195,0.0783660995584,0.798898607334,0.601190401976,-0.00398746404667,0.017754320645,-0.0774146587911,-0.109547427982,-0.0888584579913,0.0594495126854,0.0980973699624,-0.148087872129,2.04154801369,-1.0341771841,0.188792929053,0.125717997551,0.980904817581,-0.31242159009
2017/07/09/10:17:15.773182,502044,1499566638,579526759,,0.772003019109,0.00331262005514,0.0776214634342,0.799132648332,0.6009076341,-0.00393540685072,0.0167791007852,-0.071914584639,-0.0860215487384,-0.0970564398085,0.060569911332,0.109882638716,-0.122580128025,2.49072194099,-0.00902658700943,0.697989106178,-0.0280098617077,1.10520422459,-0.302685052156
2017/07/09/10:17:15.783008,502045,1499566638,589530662,,0.771216647703,0.00172531666162,0.0768227213086,0.799631390846,0.600246932529,-0.00432422321175,0.0165698478221,-0.0759544096437,-0.0880399485641,-0.0822931071085,0.0611942785331,0.11361681412,-0.138204646668,2.83516645432,-0.715023756027,-0.0122802406549,0.0495856106281,1.29747068882,-0.364209890366
2017/07/09/10:17:15.793003,502046,1499566638,599534024,,0.770503800659,0.00115170765795,0.0757961228407,0.799981123434,0.59979756559,-0.00463222346493,0.0158626910379,-0.0769384638788,-0.100847397528,-0.0851783485163,0.0704081949936,0.107714775079,-0.159497893233,2.42838597298,-0.386638909578,-0.131422176957,0.0804074406624,1.1160941124,-0.316869080067
2017/07/09/10:17:15.803247,502047,1499566638,609528638,,0.769396165416,0.000651915712829,0.0749203571479,0.800069870168,0.599709858681,-0.00483338458273,0.0145920061459,-0.0677271942,-0.0900991270053,-0.0866087694389,0.0813922044988,0.0901992530501,-0.118948851618,3.12877607346,-0.624701619148,-0.133848816156,0.144591793418,1.39286017418,-0.3024777174
2017/07/09/10:17:15.813098,502048,1499566638,619525837,,0.769211963965,-0.000236507016875,0.074255825565,0.800021148631,0.599771723993,-0.00498060719408,0.0146708688518,-0.0573191173724,-0.0706571038243,-0.07998961187,0.0781084204551,0.079345297806,-0.0771912341523,2.40609693527,-0.65097951889,0.118882358074,0.0996563434601,1.09837543964,-0.328765690327
2017/07/09/10:17:15.823115,502049,1499566638,629536945,,0.768036003477,-0.000655784838529,0.0730936493528,0.80034269197,0.599363524384,-0.00564972903507,0.0135285479271,-0.0715019492575,-0.0850746077965,-0.092445634346,0.0869196229521,0.0994899858726,-0.0763379042292,2.93507266045,-0.378583997488,-0.406811833382,0.0505753457546,1.32045257092,-0.304923564196
2017/07/09/10:17:15.833168,502050,1499566638,639531426,,0.767817082782,-0.00135361736503,0.0723255962969,0.800520442895,0.599137712777,-0.00523018942107,0.0131782682311,-0.0698676473894,-0.0440830792237,-0.0888091921738,0.0941366424229,0.126413183911,0.00677028232243,3.2498319149,-1.21246767044,-0.315793931484,0.286537766457,1.43479990959,-0.276018917561
2017/07/09/10:17:15.843393,502051,1499566638,649531946,,0.766934978593,-0.00217338232421,0.0710924994054,0.800154765245,0.599636246128,-0.00576092014923,0.0124713986316,-0.0758627693153,-0.0862556106594,-0.0904837534377,0.0762315291183,0.110457393013,-0.0388520664114,3.37258696556,-0.950705885887,-0.369181275368,0.267624735832,1.45829379559,-0.260888308287
2017/07/09/10:17:15.853130,502052,1499566638,659543003,,0.76709256476,-0.00229768274308,0.0706212986656,0.799882382814,0.600006322055,-0.00526389506064,0.0123644072595,-0.0684515891636,-0.0847006807947,-0.0952100401785,0.0567340399027,0.0957248045021,0.00737482311056,3.75344991684,-0.73709577322,-0.106055319309,0.258026242256,1.57191884518,-0.224951460958
2017/07/09/10:17:15.863200,502053,1499566638,669532269,,0.766809670403,-0.0031013939699,0.0701208484382,0.799833509756,0.600076219453,-0.00528250378921,0.0121236410266,-0.0559650243573,-0.0825144475758,-0.0889205635325,0.0683439643726,0.0708238268074,0.0309468969392,3.68991303444,-0.97524189949,-0.0957698076963,0.25511521101,1.5204795599,-0.218882873654
2017/07/09/10:17:15.873049,502054,1499566638,679574827,,0.765386012588,-0.00376239665873,0.0687455333501,0.799902661564,0.600006075711,-0.00579777673638,0.010715732263,-0.0523988660769,-0.0657212882996,-0.0914610905865,0.063950401811,0.0775363866408,0.0709987568883,3.58217549324,-0.754552662373,-0.403320491314,0.182053565979,1.58462512493,-0.172745198011
2017/07/09/10:17:15.882985,502055,1499566638,689527490,,0.764870746577,-0.00520096836633,0.0680724773134,0.799770545118,0.600181021236,-0.00592200750791,0.0107119903419,-0.056942721937,-0.0647159431261,-0.0852878535513,0.0930213874133,0.0779271514605,0.0639944587629,3.11691451073,-1.01384496689,0.00212256237864,0.110775604844,1.42737364769,-0.213832691312
2017/07/09/10:17:15.893275,502056,1499566638,699535485,,0.764589617939,-0.00524994402825,0.0672279603195,0.799450690454,0.600608110411,-0.00629603130571,0.0104331793342,-0.0565353321055,-0.0546589020996,-0.0899297632985,0.0689287059631,0.0928206607142,0.10043701692,2.4036796093,-0.483973920345,0.176382362843,0.052450530231,1.09650611877,-0.172458708286
2017/07/09/10:17:15.903193,502057,1499566638,709544092,,0.763448551863,-0.00629316327948,0.0659978108466,0.799774496609,0.600184061593,-0.00693250314843,0.00958056280706,-0.0641278019057,-0.0827422410483,-0.089594208139,0.0539919006475,0.0904384912572,-0.0130317058679,2.89506340027,-0.742712378502,-0.00420127436519,0.106109336019,1.28620064259,-0.175600141287
2017/07/09/10:17:15.913306,502058,1499566638,719529223,,0.762711648742,-0.00723920585605,0.065225769439,0.800315609721,0.599470233928,-0.00690719742208,0.00909142970174,-0.0672631206877,-0.0733187985659,-0.100342344085,0.0530148361404,0.104996274531,-0.0802334129812,2.76344251633,-1.17107403278,0.103430144489,0.292708694935,1.30586564541,-0.167053744197
2017/07/09/10:17:15.922976,502059,1499566638,729527846,,0.762370013989,-0.00758197740494,0.0642070475757,0.800542508584,0.599173013114,-0.00694653603182,0.00866821453741,-0.057291051657,-0.0803336697451,-0.0869299131121,0.0514567085849,0.0743605479472,-0.129529080931,2.99299502373,-0.63620531559,0.0276004392654,0.155936971307,1.33014321327,-0.171906337142
2017/07/09/10:17:15.933261,502060,1499566638,739541339,,0.762377914306,-0.00744620056918,0.0637351053661,0.800756284385,0.598902517149,-0.00639642049028,0.00801459760203,-0.0409018052142,-0.0356941972275,-0.0899851214014,0.0715114055963,0.0657929742583,-0.0741746791475,2.93411111832,-0.298557579517,0.44243362546,0.0295959413052,1.26536607742,-0.157543033361
2017/07/09/10:17:15.942952,502061,1499566638,749530141,,0.761973765827,-0.00893960880324,0.0633687672972,0.80125796064,0.598223492959,-0.00672764583065,0.00831094245707,-0.0530946233651,-0.0711323163507,-0.0879491404983,0.0563967880304,0.0662193554337,-0.123513450572,3.68122720718,-0.92820763588,0.748935341835,0.169867753983,1.53235673904,-0.192062109709
2017/07/09/10:17:15.953293,502062,1499566638,759558275,,0.761829282734,-0.00900920882995,0.0619700565498,0.800827496102,0.59880671271,-0.00668396752509,0.00782092577128,-0.0528104136594,-0.0708422616359,-0.08431921843,0.0499481262189,0.0663350273788,-0.111090385517,3.48303723335,-0.462091892958,0.0613614618778,0.246615022421,1.37636518478,-0.0797026157379
2017/07/09/10:17:15.963219,502063,1499566638,769529152,,0.761074726276,-0.00950710211784,0.0611955787831,0.800944607385,0.598659904114,-0.00664443168601,0.00706446277921,-0.0396877499639,-0.0509235392945,-0.0753079062166,0.071646032255,0.0438971557857,0.0139801444763,2.94387245178,-0.927438557148,0.396930992603,0.402689576149,1.21251213551,-0.0661491379142
2017/07/09/10:17:15.972904,502064,1499566638,779534800,,0.759931536311,-0.0106799581876,0.0603116574583,0.800693208062,0.598991263575,-0.00751760486751,0.006583186251,-0.0559146711299,-0.0544389077573,-0.0891967955378,0.0605920538617,0.0925545925499,0.0869535194121,3.03821063042,-1.56151819229,0.107260279357,0.371746897697,1.39305877686,-0.114550471306
2017/07/09/10:17:15.983341,502065,1499566638,789529208,,0.760420873875,-0.0103735964943,0.0600043442674,0.800457113183,0.599321422641,-0.00648655134253,0.00633774166495,-0.0530524383128,-0.0859826150571,-0.0808525223429,0.0330769347723,0.0660833742519,0.0508261417076,3.74665975571,-1.09858417511,0.4843544662,0.411402761936,1.52283573151,-0.0675557255745
2017/07/09/10:17:15.993065,502066,1499566638,799547474,,0.759295478097,-0.0119339109723,0.0589151043286,0.800871175983,0.598762020498,-0.0073336627512,0.00596822242984,-0.0526484774344,-0.0506868985718,-0.0876527077176,0.0477177185846,0.0855464314062,0.0525764893159,4.87092065811,-1.37515509129,-0.192876711488,0.409509569407,1.98648583889,-0.0355525165796
2017/07/09/10:17:16.002984,502067,1499566638,809527292,,0.758866830884,-0.0123043640929,0.0583672576433,0.800825556343,0.598822444168,-0.00761846416315,0.00566283259661,-0.0597574803316,-0.064268881905,-0.0883708728559,0.0678464147933,0.083051838343,-0.0259466276065,3.46382236481,-1.05960309505,0.765157699585,0.423177987337,1.38683903217,0.000890768133104
2017/07/09/10:17:16.013191,502068,1499566638,819535274,,0.75817970753,-0.0122214981028,0.0570905447235,0.800893396406,0.598740375757,-0.00769538374759,0.00452891822879,-0.0510669428731,-0.0460036211211,-0.0764132963931,0.0705454176364,0.0745173150301,-0.0429204111717,4.73500299454,-0.745511293411,-0.200555190444,0.353735357523,1.92788696289,-0.0146995168179
2017/07/09/10:17:16.023218,502069,1499566638,829533799,,0.757875653649,-0.0131571461432,0.0568808701665,0.80101704656,0.598575420559,-0.007643781658,0.00455297984064,-0.0476394652,-0.0278031592896,-0.0722752368405,0.0607315109619,0.0887140636442,-0.0189843535563,3.79489541054,-1.26057314873,0.292136728764,0.386366695166,1.58822262287,-0.054414127022
2017/07/09/10:17:16.033009,502070,1499566638,839531822,,0.757035576073,-0.0138004671567,0.0559931608849,0.801405945013,0.59805269892,-0.00809984998439,0.00398409873556,-0.0613706333076,-0.0794475380184,-0.0687187738176,0.0389974070823,0.0781114843383,-0.0751515870293,3.40604376793,-1.68548607826,0.323635131121,0.598694145679,1.41264295578,-0.0134564684704
2017/07/09/10:17:16.043186,502071,1499566638,849529023,,0.756329849781,-0.0146942377531,0.0550211117778,0.802001794973,0.597253106668,-0.00830883920598,0.00357919353353,-0.0614976941258,-0.0452223101267,-0.0795560320884,0.0601552017493,0.100790021496,-0.0846191637061,3.5337407589,-1.60489535332,0.0415045507252,0.581172883511,1.50081193447,-0.0502844452858
2017/07/09/10:17:16.053127,502072,1499566638,859536448,,0.755999250956,-0.0149279460054,0.0547203032413,0.802080177325,0.597157086692,-0.00790928411806,0.00287161636979,-0.0667307149344,-0.0586761146134,-0.0802722092642,0.0729951528804,0.0888924818061,-0.112624397111,3.91602945328,-1.94778358936,0.433715820312,0.723699271679,1.5633225441,-0.056287676096
2017/07/09/10:17:16.063209,502073,1499566638,869528369,,0.755626671544,-0.0151517650816,0.0538001653665,0.802075009925,0.597154542518,-0.00864468250857,0.00272034339366,-0.0393833599036,-0.053986981087,-0.0689192529301,0.0593679297335,0.0462690702686,-0.11161400301,4.34760189056,-1.29060006142,-0.0048651592806,0.541873812675,1.74574625492,-0.0505717620254
2017/07/09/10:17:16.072839,502074,1499566638,879527065,,0.755195236564,-0.0148329317996,0.0531179452942,0.802198291152,0.596993645304,-0.00855671771432,0.00180878995779,-0.052989798801,-0.0661188603159,-0.0623469681867,0.0432514843705,0.0696590130797,-0.106390886256,4.92747974396,-0.370187997818,-0.221014127135,0.291425526142,1.950709939,-0.0870684832335
2017/07/09/10:17:16.083317,502075,1499566638,889539389,,0.754896486592,-0.0155584870659,0.0527761101357,0.802437284041,0.596675702949,-0.008341686095,0.00171083726745,-0.0428693184735,-0.0222647750978,-0.0576509934652,0.0760468683486,0.0714737095359,-0.076527331415,4.59686851501,-1.13478982449,0.0152814462781,0.500581681728,1.8224670887,-0.043950971216
2017/07/09/10:17:16.093164,502076,1499566638,899572872,,0.754423420726,-0.0163128003017,0.05218775964,0.802951735863,0.595981589375,-0.00849913092862,0.00148989090097,-0.046506073443,-0.0631831795675,-0.0640842777902,0.0658640058633,0.0493542798544,-0.129874243307,4.91117429733,-1.40292906761,0.0947100743651,0.454421639442,1.96110224724,-0.0771003812551
2017/07/09/10:17:16.103309,502077,1499566638,909550064,,0.753570088352,-0.0162024475628,0.051088158659,0.803187725425,0.595659903199,-0.00886445333067,0.000422984001549,-0.0727508255366,-0.0766848309544,-0.0647711805896,0.0584094227813,0.0940537504003,-0.159934973263,4.03598308563,-0.740967571735,-0.286603540182,0.284669309855,1.70335280895,-0.0820702165365
2017/07/09/10:17:16.113258,502078,1499566638,919534991,,0.753485140349,-0.0165690393034,0.050924635736,0.803159522773,0.595697224045,-0.0089151546189,0.000343893908309,-0.0387157488932,-0.0370329674152,-0.0579001841015,0.0385217647056,0.0565390548518,-0.0587108515866,3.79860949516,-1.15802967548,0.327201664448,0.358553647995,1.56135988235,-0.0698171332479
2017/07/09/10:17:16.123017,502079,1499566638,929529517,,0.752918592498,-0.0174080364748,0.0502462880672,0.803719155958,0.594944193048,-0.00877052452019,-5.83499504283e-05,-0.04034917931,-0.0481049063456,-0.0575019582289,0.0472749473169,0.0499262639047,-0.0761859578112,3.36869430542,-1.49562907219,0.162924334407,0.459962457418,1.38353228569,-0.0772920995951
2017/07/09/10:17:16.132997,502080,1499566638,939532604,,0.75221532653,-0.0182812720245,0.0495417147198,0.803930856355,0.594645862501,-0.00956113532504,-0.00024718682261,-0.0608265252575,-0.0657187638554,-0.0689439212531,0.0513995905477,0.0805022335715,-0.115188814314,3.72476124763,-1.18383741379,0.221004739404,0.455740451813,1.51608669758,-0.0505483374
2017/07/09/10:17:16.145952,502081,1499566638,949527108,,0.751607217295,-0.0196411398983,0.0493292919459,0.804443099787,0.593953433978,-0.00951718976281,-0.000201422688522,-0.0525989653823,-0.051124974302,-0.0695680065739,0.0523791849827,0.0679903359285,-0.0901866357725,3.49877429008,-1.88190329075,0.610588431358,0.502553582191,1.48155629635,-0.0793971940875
2017/07/09/10:17:16.153189,502082,1499566638,959526782,,0.752258288666,-0.0191809771374,0.0486006649112,0.804508754521,0.593877425293,-0.00866988619498,-0.000317331849663,-0.0384176112797,-0.0505726723983,-0.0601118163145,0.0353621749311,0.0399994038552,-0.110469954613,3.76793384552,-0.968831181526,0.746136844158,0.261848986149,1.49492037296,-0.0870816856623
2017/07/09/10:17:16.163015,502083,1499566638,969530443,,0.750492758802,-0.0207809183493,0.0473899648134,0.805175052586,0.592958276541,-0.00957680467271,-0.00137905298399,-0.0358873158033,-0.0623139332527,-0.0685323407652,0.0341542771732,0.0217518298714,-0.102961334102,3.25899410248,-1.72230184078,0.564845919609,0.349453479052,1.40249705315,-0.0895683988929
2017/07/09/10:17:16.173187,502084,1499566638,979534940,,0.751065812432,-0.0200013929785,0.0473804180493,0.805038208919,0.593154906565,-0.00885262736908,-0.0015394761974,-0.0406228752902,-0.0776159617181,-0.0475651927799,0.0282261054665,0.0244957861801,-0.127172331927,3.2716627121,-0.47279894352,0.936248481274,0.130178153515,1.33368563652,-0.0845555439591
2017/07/09/10:17:16.182905,502085,1499566638,989528609,,0.750416279885,-0.0216561038771,0.047091343436,0.805865924761,0.59202681198,-0.00907720412181,-0.00140341409482,-0.0357808567826,-0.0236325654642,-0.0611940345689,0.0697362298905,0.0513107219895,-0.0771970632788,3.03772163391,-2.13732671738,0.612059950829,0.532512485981,1.35455286503,-0.0709085315466
2017/07/09/10:17:16.193072,502086,1499566638,999527158,,0.750038109238,-0.0222457583206,0.0462491653088,0.805885552705,0.591995969194,-0.00932021366895,-0.00154337850665,-0.0274446545567,-0.0578484421187,-0.0490383276135,0.0369058027,0.0121764020434,-0.0863643750785,3.69900989532,-1.60942482948,0.182096138597,0.449016392231,1.53421974182,-0.0981310755014
2017/07/09/10:17:16.203127,502087,1499566639,9531197,,0.749532845776,-0.0220630819506,0.0457887688358,0.806040681964,0.591778624371,-0.00956146226377,-0.00224882086773,-0.0400555508348,-0.0556530281519,-0.0623530524944,0.041176816737,0.0414905623434,-0.0933609684838,3.223082304,-1.36011731625,0.261182636023,0.459407329559,1.32818591595,-0.0680624097586
2017/07/09/10:17:16.212933,502088,1499566639,19532011,,0.748920613119,-0.0230612590501,0.0453303688933,0.80633321923,0.591372289972,-0.0100333720339,-0.002210354303,-0.0412789621259,-0.0470009853795,-0.0510844108504,0.0337800337626,0.0483004995074,-0.103630881868,3.13383102417,-2.03882598877,0.181489259005,0.543940544128,1.35592460632,-0.0861116796732
2017/07/09/10:17:16.222968,502089,1499566639,29528260,,0.748925324849,-0.0236076832561,0.0449011177723,0.806536148112,0.591103983969,-0.00951268997505,-0.00224291216666,-0.0521140022876,-0.0640444465761,-0.0601381568737,0.0383762365978,0.0549422646764,-0.119287729097,3.33385252953,-1.50935900211,0.77325719595,0.46881455183,1.28236293793,-0.0605287440121
2017/07/09/10:17:16.233281,502090,1499566639,39535142,,0.748591604457,-0.0240046704625,0.0443926598699,0.807170720129,0.590239567037,-0.00924414798743,-0.00268845670446,-0.0205707010358,-0.0433882611197,-0.0468679587244,0.0373171967209,-0.00196602324798,-0.0771829847001,2.67741775513,-0.700409770012,0.738041162491,0.185612797737,1.0964717865,-0.0884769931436
2017/07/09/10:17:16.243142,502091,1499566639,49533633,,0.748363465835,-0.0248830876033,0.0440961021652,0.807612924866,0.589637346782,-0.00906596349878,-0.00264029848115,-0.00406338066413,-0.0322857620232,-0.0439634283143,0.00521520650893,-0.0153501398692,-0.0375862645098,3.51344704628,-1.6440141201,0.755519986153,0.379341006279,1.47651100159,-0.0927074104548
2017/07/09/10:17:16.253449,502092,1499566639,59535623,,0.748325231653,-0.0240251334309,0.0431624623713,0.807394594509,0.589936342972,-0.00879061362547,-0.00343585655171,-0.0256497958655,-0.0623626295692,-0.0433351499157,0.0369366673401,-0.00547136617609,-0.130251511085,3.66165709496,-0.763788580894,0.445451468229,0.273065537214,1.47287130356,-0.0711643621325
2017/07/09/10:17:16.263425,502093,1499566639,69532887,,0.747628824802,-0.0252035586168,0.0426245448962,0.80765708583,0.589564736871,-0.00962971537384,-0.00327434405937,-0.0395941539461,-0.0405243243199,-0.0544280200697,0.0511190947732,0.0460042595814,-0.079106266701,3.71751117706,-0.946699738503,0.119703672826,0.374604105949,1.50427496433,-0.0745451450348
2017/07/09/10:17:16.272903,502094,1499566639,79532526,,0.747699270604,-0.0253600552417,0.042621331166,0.807580180479,0.589674494196,-0.009364191901,-0.00324883084643,-0.0372641891768,-0.0562130208384,-0.0620788022379,0.0159640250238,0.0474462256813,-0.0846138320595,4.7175078392,-1.30137360096,0.404934853315,0.52551817894,1.86733162403,-0.0628182217479
2017/07/09/10:17:16.283092,502095,1499566639,89533645,,0.746811990835,-0.0264231326048,0.041827079485,0.808207840764,0.588805473459,-0.00970761045639,-0.0037366900083,-0.044228245212,-0.0579785743554,-0.0519605356419,0.0332776974158,0.0449755164282,-0.0978811050268,3.19945693016,-1.3245793581,0.856241762638,0.453560650349,1.32566094398,-0.0695952698588
2017/07/09/10:17:16.293058,502096,1499566639,99550425,,0.746362498483,-0.0265726127479,0.0408173031632,0.808166521284,0.588854289924,-0.00999581450931,-0.00419318557554,-0.0531568560217,-0.0411521058793,-0.0544618247709,0.0326459436431,0.0826170511026,-0.0473235077076,2.86725449562,-0.7948346138,0.503411352634,0.258050143719,1.21171319485,-0.0780532881618
2017/07/09/10:17:16.303146,502097,1499566639,109528826,,0.746102759883,-0.0267401494002,0.0405639948803,0.808461481284,0.588449779954,-0.00978026332,-0.00460827528849,-0.0425575137382,-0.034481608642,-0.0496203189757,0.022216854721,0.0680434573055,-0.0544901343075,3.22856855392,-1.14931130409,0.643695235252,0.373078584671,1.34327375889,-0.0738622024655
2017/07/09/10:17:16.313248,502098,1499566639,119533367,,0.745301304275,-0.0274587280728,0.0398577058467,0.808732633741,0.58806354915,-0.0103817174069,-0.00500092269756,-0.0351092837792,-0.0406122191602,-0.048655803655,0.035252562445,0.0427856217356,-0.097062925331,3.29760694504,-1.09475684166,0.198251694441,0.342635601759,1.39385354519,-0.105548642576
2017/07/09/10:17:16.322912,502099,1499566639,129531394,,0.745662344157,-0.0268112609855,0.0398498269512,0.808840062467,0.587923373484,-0.00984024285239,-0.00519902686892,-0.0564269444767,-0.0301844660222,-0.0580721045637,0.0667464040859,0.0887312681254,-0.0888905774963,4.11292695999,-1.32691395283,0.555681467056,0.566972732544,1.5940362215,-0.0464669018984
2017/07/09/10:17:16.333062,502100,1499566639,139534565,,0.744927399431,-0.0267800347258,0.0391014235271,0.808719239846,0.588073935695,-0.0102853200811,-0.00603733799173,-0.029524109492,-0.0202891808893,-0.0414178880087,0.0356249620567,0.0484687475898,-0.039548626044,3.70702600479,-0.741862297058,0.316431850195,0.383186936378,1.4762339592,-0.0825824961066
2017/07/09/10:17:16.343704,502101,1499566639,149533504,,0.74436973683,-0.0277209772172,0.0388117983681,0.809122497653,0.587513975713,-0.0104913643598,-0.00616793380144,-0.0355172978624,-0.026641187892,-0.0445684625074,0.0414671361206,0.0504434289942,-0.0599156834991,3.89232492447,-1.63568019867,0.356577843428,0.617960631847,1.57283389568,-0.0652315020561
2017/07/09/10:17:16.353345,502102,1499566639,159528336,,0.744270199095,-0.0275736430354,0.0382176870406,0.809019478686,0.587655613746,-0.0103382298687,-0.00644078742386,-0.0435914089597,-0.0353975308655,-0.0509656265066,0.050132615783,0.0641921949288,-0.0715540877059,4.53477621078,-1.03203499317,-0.0699822753668,0.483036071062,1.72180056572,-0.058095343411
2017/07/09/10:17:16.363249,502103,1499566639,169534325,,0.743576809379,-0.0282848064343,0.0375126958429,0.809482737081,0.587002030175,-0.0109895514412,-0.00674868120197,-0.0289072410412,-0.0127103289249,-0.0437376468996,0.0407429467807,0.0477347258857,-0.0554109978504,4.39939069748,-1.4837038517,-0.0519822537899,0.510617673397,1.74381268024,-0.0909538120031
2017/07/09/10:17:16.373076,502104,1499566639,179552752,,0.743529088626,-0.0288643057985,0.0376407121498,0.809650181104,0.586775941386,-0.0106774194014,-0.0068243361159,-0.0337985716412,-0.032960723766,-0.041305149986,0.0310175235662,0.0417218602565,-0.0509066743367,4.71334075928,-1.85733270645,0.316307514906,0.622324585915,1.90557992458,-0.0757254585624
2017/07/09/10:17:16.383066,502105,1499566639,189531003,,0.743400018705,-0.0280213399548,0.0368766916119,0.809833565212,0.586520873388,-0.0102111769487,-0.00765464578856,-0.0357926094878,-0.0373832167161,-0.0391258613955,0.0411304888265,0.0364232952762,-0.0694052816528,4.73779344559,-1.28252005577,0.187277629972,0.528760075569,1.82435870171,-0.0616084560752
2017/07/09/10:17:16.392854,502106,1499566639,199529270,,0.742981708825,-0.0289559476625,0.036758368381,0.809983282956,0.586307267641,-0.01071680109,-0.00748461204023,-0.0280696307743,-0.0161528039398,-0.0378350333842,0.0462726741119,0.0378066493246,-0.0651461711138,4.94702672958,-1.90927565098,0.510870099068,0.745167315006,1.90588259697,-0.0397419556975
2017/07/09/10:17:16.403091,502107,1499566639,209526433,,0.743242392497,-0.0287303241272,0.0365810607809,0.810033918783,0.586247591616,-0.00996637522055,-0.00771252948279,-0.0248381180382,-0.0110749840615,-0.0295132131303,0.0266504637053,0.0465997596318,-0.0177757163919,4.38740491867,-2.03721261024,0.00366417597979,0.618266224861,1.77126944065,-0.0771286934614
2017/07/09/10:17:16.413197,502108,1499566639,219526903,,0.742248379807,-0.0302277233525,0.036342348213,0.810428586679,0.585685300382,-0.0110404344342,-0.00750623864475,-0.0355148641315,-0.0332733181863,-0.0445367816884,0.033512326243,0.0485139736597,-0.062084459192,4.27915906906,-2.37389159203,0.194279640913,0.857710599899,1.65725457668,-0.0616260208189
2017/07/09/10:17:16.423394,502109,1499566639,229537208,,0.741609111076,-0.0296569459885,0.0353388229866,0.810162752143,0.586034842859,-0.0113021466216,-0.00846991598623,-0.0421243430168,-0.0550214220696,-0.0391120363683,-0.00618157134706,0.0537223846819,-0.0683553200204,4.18666315079,-1.51828789711,-0.166303604841,0.502726078033,1.71990871429,-0.109202042222
2017/07/09/10:17:16.433289,502110,1499566639,239538689,,0.74184250573,-0.0297685886319,0.0351672505677,0.81073706015,0.585244781107,-0.0109989794929,-0.00854329780331,-0.0300588153792,-0.018989563862,-0.0406082901561,0.0365072159518,0.0449389853842,-0.0573200689243,3.99320864677,-1.31541645527,0.100509472191,0.421987563372,1.61110663414,-0.107094474137
2017/07/09/10:17:16.443362,502111,1499566639,249532223,,0.741683009639,-0.0300271501499,0.0346986828492,0.810792803007,0.585169735769,-0.0108963851974,-0.00852524025037,-0.0290128639465,-0.0371320449176,-0.035013639181,0.0101051672756,0.0349245848175,-0.072909007466,3.62673354149,-0.835960626602,0.198805034161,0.267176300287,1.49652647972,-0.109262689948
2017/07/09/10:17:16.452882,502112,1499566639,259530950,,0.741348377047,-0.0300816833305,0.0346626088719,0.810587542212,0.585448313415,-0.010965561697,-0.0088241252224,-0.0242356887621,-0.0222706676046,-0.0218594914929,0.033406578118,0.0229963740041,-0.0492273001802,3.08947992325,-0.460989266634,0.896168410778,0.244329616427,1.25146627426,-0.0951717570424
2017/07/09/10:17:16.463220,502113,1499566639,269532222,,0.741100221751,-0.0294282074626,0.0340352353949,0.8105832253,0.585442689215,-0.0110649190543,-0.00944775490274,-0.0175698269173,-0.0174570318086,-0.0246843847978,0.0235347309599,0.0154266305731,-0.0193396460939,3.49759578705,-0.681375861168,0.568618893623,0.321891009808,1.41380560398,-0.0817512646317
2017/07/09/10:17:16.473278,502114,1499566639,279536958,,0.740979584284,-0.0307485885835,0.033990722165,0.81090807031,0.584999182683,-0.0110828969693,-0.00901261120438,-0.0190680676483,0.00636066137939,-0.0428537777969,0.0335319920782,0.035724943258,-0.00242097990329,3.39694523811,-1.29780864716,0.399257361889,0.422053992748,1.40071678162,-0.0950067713857
2017/07/09/10:17:16.483310,502115,1499566639,289528108,,0.740638012631,-0.0307750024806,0.0339133874046,0.810881394728,0.585028243613,-0.0113008317485,-0.00925251647128,-0.0243817749748,-0.026658875518,-0.0294045189556,0.0234852205715,0.0218219865069,-0.0588739466909,3.75397086143,-1.29773938656,0.358256012201,0.4101139009,1.5637960434,-0.0967655777931
2017/07/09/10:17:16.493287,502116,1499566639,299536250,,0.739837735698,-0.0308794947603,0.0330828305947,0.810826740153,0.58508249719,-0.0119235599462,-0.00981313677176,-0.0470379838347,-0.0100701856358,-0.0380051719688,0.0515941154716,0.0750870012218,-0.0431319328377,3.69719719887,-1.28043115139,0.0682378858328,0.489373803139,1.52341985703,-0.0823436528444
2017/07/09/10:17:16.503120,502117,1499566639,309528338,,0.73997136813,-0.031425495269,0.0332446179912,0.811281620005,0.58446397982,-0.011410643335,-0.00968434583164,-0.0300903657529,-0.0205883887554,-0.0254295974314,0.0230769482328,0.0392371485141,-0.0372797030939,3.6401860714,-1.60422837734,0.347842276096,0.466196388006,1.53499996662,-0.113245554268
2017/07/09/10:17:16.513348,502118,1499566639,319527900,,0.739879952667,-0.0315371871426,0.0333722697041,0.811213530668,0.584557380815,-0.0115857264899,-0.00954186236088,-0.0224494971038,-0.0169468337608,-0.0197966666946,0.00428776970661,0.0319604829454,-0.0231033689,4.24305009842,-1.11864888668,0.683082997799,0.381884455681,1.75100243092,-0.103398233652
2017/07/09/10:17:16.523248,502119,1499566639,329529101,,0.739458849143,-0.0310128321316,0.0327928344302,0.81144097539,0.584225270813,-0.0118047038362,-0.0102481885482,-0.0194863633947,-0.0190530451917,-0.0254203723937,-0.00214316446622,0.0247848624585,-0.0413957125913,4.14404773712,-0.846044957638,0.752293944359,0.468627214432,1.65021848679,-0.0851246938109
2017/07/09/10:17:16.533159,502120,1499566639,339533898,,0.739046318316,-0.0319941686323,0.0325445026623,0.811672231458,0.583898098469,-0.0121976296617,-0.0101201341501,-0.00891028364186,0.000190520475927,-0.0189313669448,0.0399564021103,0.00573334242506,-0.0206014193956,3.54572343826,-1.35682034492,0.824922680855,0.40780967474,1.44561743736,-0.0877284407616
2017/07/09/10:17:16.543083,502121,1499566639,349532323,,0.739574760248,-0.0304865371069,0.0324078117198,0.811290098773,0.584437751722,-0.0113035357962,-0.0106357920675,-0.029908925751,-0.00246883822101,-0.0262126728714,0.0410024729782,0.056302505016,-0.0261259507848,3.57207846642,-0.762488603592,0.148650065064,0.31333771348,1.45897173882,-0.111156955361
2017/07/09/10:17:16.553186,502122,1499566639,359535372,,0.739661793823,-0.0314957239222,0.0324892138203,0.811275942523,0.584463720003,-0.0114853437667,-0.0100792837964,-0.0285739132599,-0.0125842694028,-0.0214944414983,0.00858611472354,0.0492763224634,-0.0315982395908,3.88469791412,-1.33569526672,0.597396433353,0.369138717651,1.48698210716,-0.109091959894
2017/07/09/10:17:16.563171,502123,1499566639,369528001,,0.738602985397,-0.0317365850712,0.0320888301455,0.811420880427,0.584235151316,-0.0123166788508,-0.0106649986222,-0.0238738010512,-0.017080226219,-0.0236538493624,0.00809451252753,0.0384141741022,-0.0302063959663,4.13799762726,-1.23423278332,0.746245145798,0.433849036694,1.65320718288,-0.106520831585
2017/07/09/10:17:16.573119,502124,1499566639,379531013,,0.738384558999,-0.0321485525476,0.0317074457369,0.811835148211,0.583660318236,-0.0122402478274,-0.0107005317165,-0.0348441396773,-0.0333451864474,-0.0150291033576,0.011453764156,0.0376524706571,-0.051246210421,4.12033510208,-1.48047864437,0.414657026529,0.46514493227,1.64653360844,-0.138025790453
2017/07/09/10:17:16.583077,502125,1499566639,389530681,,0.738110065251,-0.0318651317971,0.031588310148,0.81160947238,0.58396458288,-0.012318297729,-0.0111215927297,-0.0352171303674,-0.0179830925636,-0.0171132104166,0.0132623656104,0.0469497966966,-0.0178745040914,4.05707836151,-1.47378146648,-0.165185317397,0.549126505852,1.67505419254,-0.0808720141649
2017/07/09/10:17:16.593060,502126,1499566639,399527860,,0.737706673004,-0.0317997105076,0.0313840443778,0.811844136107,0.583630844532,-0.012232848814,-0.0115971285258,-0.0310921967106,-0.00708158835085,-0.0219487428873,0.0293171951059,0.0408178841819,-0.0194661723707,3.90023970604,-1.02475714684,0.326915323734,0.402283906937,1.60553872585,-0.108108319342
2017/07/09/10:17:16.602926,502127,1499566639,409530787,,0.738124560997,-0.0313988418321,0.0314614395269,0.811418569877,0.584230378695,-0.0121050000385,-0.0113242236965,-0.0145307631243,0.00934020414657,-0.0215901868906,0.0336792050495,0.01312108339,-0.00492006975064,3.65266299248,-0.979667305946,0.313880324364,0.369360268116,1.50919759274,-0.0833590477705
2017/07/09/10:17:16.613139,502128,1499566639,419538440,,0.737205150324,-0.0320643581009,0.0308438188091,0.811655757647,0.583879450996,-0.0128030597841,-0.0116533017817,-0.0239801346668,-0.0161367882918,-0.0150743974356,-0.00217013291986,0.031728819702,-0.0196966409211,2.73777937889,-0.967879772186,0.297822445631,0.283279955387,1.21368157864,-0.116817109287
2017/07/09/10:17:16.623022,502129,1499566639,429528326,,0.737624438682,-0.0313703468554,0.0311323054555,0.811551965752,0.584032185162,-0.0123139125444,-0.0117550473298,-0.0245422432401,-0.0217195562141,-0.0186826039641,-0.0184579166539,0.0347441860921,-0.0192387427856,3.57590675354,-0.614014387131,0.430678635836,0.374452471733,1.47752690315,-0.0877277627587
2017/07/09/10:17:16.632967,502130,1499566639,439531225,,0.73697414838,-0.0320333027539,0.0305938515145,0.81177536778,0.583707408833,-0.0130285528112,-0.0116905923646,-0.0157420361409,-0.0146171012543,-0.0121360095018,-0.00255003203046,0.0109133469131,-0.00620065721246,2.81842255592,-0.869590818882,0.407407611609,0.38598972559,1.28591752052,-0.110898658633
2017/07/09/10:17:16.643180,502131,1499566639,449541914,,0.736816044384,-0.0316045863529,0.0305522481943,0.811725628012,0.583777029122,-0.0125666270844,-0.012164085719,-0.0178941684632,-0.0132314854351,-0.0141659883961,0.00375710039757,0.00949399864848,-0.0203678199617,2.49736690521,-0.934014797211,0.482645869255,0.589662611485,1.07495379448,-0.0485231503844
2017/07/09/10:17:16.653259,502132,1499566639,459533620,,0.736751486362,-0.0324576103092,0.0306329978819,0.812133156252,0.583213855799,-0.0126589261498,-0.0118779842066,0.00292149806655,0.0120129882156,0.00424618482466,0.0435199891872,-0.0232480848535,0.00574256747399,1.99681222439,-1.46952402592,0.289555519819,0.70321315527,0.935965895653,-0.04653929919
2017/07/09/10:17:16.663089,502133,1499566639,469532014,,0.73653736861,-0.0318735146516,0.0302207393587,0.81148343502,0.584103617327,-0.0130597381451,-0.0121260939235,-0.00982169196557,0.00327565618938,-0.010392816962,0.0197880431127,0.00443663368058,0.006142396061,1.3095562458,-1.14964556694,0.293732523918,0.630939364433,0.700698792934,-0.0617208741605
2017/07/09/10:17:16.673554,502134,1499566639,479543162,,0.736835645709,-0.0321810795371,0.030714916668,0.811751770704,0.583747393781,-0.0126639058865,-0.0117332220746,-0.0199430681793,-0.00848850565229,-0.0162279671163,-0.00908835350443,0.029600424238,-0.00949219791037,1.8900680542,-0.863551259041,0.71113473177,0.51780629158,0.80924987793,-0.0557340309024
2017/07/09/10:17:16.683154,502135,1499566639,489529501,,0.736102371829,-0.0320307072656,0.0302317280872,0.811885986438,0.583533651225,-0.0130184682717,-0.0126547381241,-0.0193506911117,-0.00270191911029,-0.0147304130544,-0.00269261530007,0.032030862084,-0.001976153412,1.83628249168,-0.830583333969,0.38598921895,0.50751888752,0.824083268642,-0.0581140592694
2017/07/09/10:17:16.693153,502136,1499566639,499526975,,0.736408357415,-0.0320903399495,0.0301354361146,0.811720072969,0.583777222604,-0.0128917843712,-0.0121852125252,-0.0100357521725,-0.0135943947592,-0.000411763512254,-0.00985592863284,0.00892303471534,-0.0186816446292,2.37736558914,-0.936072349548,0.825429618359,0.477760672569,0.980535268784,-0.0807738676667
2017/07/09/10:17:16.703065,502137,1499566639,509532169,,0.735568161894,-0.032418001534,0.0299828728603,0.812163917261,0.583141073251,-0.0132522519042,-0.0126743049935,-0.0290146145937,0.00163068230514,-0.0107875300373,0.0231222779273,0.0462064793679,-0.0132160299722,1.46212768555,-0.821269035339,0.185778588057,0.379705637693,0.754267096519,-0.0955598056316
2017/07/09/10:17:16.713279,502138,1499566639,519527922,,0.736228573157,-0.0324834394144,0.0306396868492,0.811918052006,0.583507370976,-0.0127481760054,-0.0120709921703,-0.0211374359001,-0.00336737801942,-0.00608407248608,0.012327323559,0.0242963705506,-0.0072250097009,2.54543685913,-0.719024658203,0.383471101522,0.39376911521,1.01037943363,-0.0694388076663
2017/07/09/10:17:16.723272,502139,1499566639,529526830,,0.735006343356,-0.0328495665232,0.0295276295591,0.812213715322,0.583062455635,-0.0133842050868,-0.0129582608954,-0.0298164960123,0.0183360474996,-0.0227430317301,0.0391460353754,0.0534431996347,0.00791139459307,1.82450115681,-1.27826368809,-0.0730082541704,0.418878793716,0.879619479179,-0.0863395258784
2017/07/09/10:17:16.733136,502140,1499566639,539534071,,0.734826477433,-0.0321763215248,0.0297491721226,0.811762541086,0.583675479308,-0.013846889309,-0.013144405669,-0.0369414711092,-0.00507030507559,-0.0297287179895,0.0172740633097,0.0614071882172,-0.0307542896446,2.1100692749,-0.77576816082,-0.00847771111876,0.325257062912,0.909879207611,-0.117397457361
2017/07/09/10:17:16.742998,502141,1499566639,549529962,,0.735154569052,-0.0322808971119,0.0299864094727,0.812250520443,0.5830166499,-0.0129715236457,-0.0131307865055,-0.0349931986473,-0.0129181381438,-0.00875316053688,-0.014439821318,0.0574346076126,0.00433727631738,2.44920992851,-0.588782668114,0.758963763714,0.338528126478,0.948738873005,-0.0836258679628
2017/07/09/10:17:16.753142,502142,1499566639,559529118,,0.734358206478,-0.0329025477252,0.0294548184665,0.812246517739,0.583001114708,-0.0138021427535,-0.0132210258842,-0.00957183072075,0.0110176540396,-0.00701085989433,0.0198367250957,0.0102914869919,0.0226753484177,1.91135632992,-1.21786308289,0.203775078058,0.444885730743,0.900031030178,-0.090613566339
2017/07/09/10:17:16.763193,502143,1499566639,569529115,,0.734573605893,-0.0317329344008,0.0289512519687,0.811784205192,0.5836400826,-0.0134828698189,-0.0137430129186,-0.0171056715588,-0.0104721098755,-0.00880280184945,0.00133637124621,0.0173587256172,-0.015085824196,1.96419978142,-0.468274921179,0.110799476504,0.357543051243,0.850399553776,-0.0588232092559
2017/07/09/10:17:16.773181,502144,1499566639,579535297,,0.734168576032,-0.0324225599702,0.0289970961379,0.811996526206,0.583340218295,-0.0138020633517,-0.0136137502704,-0.0366107349395,0.00267547138256,-0.025100265216,0.0146572187654,0.0692977403651,-0.0125094055433,2.04122209549,-0.948379516602,0.0752751007676,0.382146954536,0.893920063972,-0.0830837786198
2017/07/09/10:17:16.782941,502145,1499566639,589531452,,0.73350965532,-0.0317973897234,0.0290176992084,0.812038852265,0.583257030752,-0.0140379263033,-0.0143901047665,-0.0384144529175,0.00753407477894,-0.0334958800854,0.0259435189425,0.065975167653,-0.015025294304,2.7714984417,-1.0130892992,0.466258734465,0.461349964142,1.11983525753,-0.0907169952989
2017/07/09/10:17:16.793416,502146,1499566639,599540470,,0.733599972267,-0.0319780387182,0.0286790061298,0.812119543228,0.583145870637,-0.0142309416741,-0.0141499598967,-0.0179579355178,-0.00314346517479,-0.00714531488926,0.00760457304345,0.027392517493,0.00771995032497,2.33684778214,-0.940221190453,-0.112890064716,0.400820404291,0.976303100586,-0.0797887295485
2017/07/09/10:17:16.803031,502147,1499566639,609532452,,0.733403278761,-0.0324463336155,0.0288867433544,0.812124213331,0.583143265434,-0.014316417523,-0.0139008736859,-0.0192811545053,0.00280173140964,-0.00628509384099,0.0197455249368,0.0274872658672,-0.0137312048335,2.34320640564,-1.0084053278,0.176986411214,0.386015236378,0.939515411854,-0.0873399600387
2017/07/09/10:17:16.813074,502148,1499566639,619540873,,0.734021941524,-0.0318218418408,0.0290415341183,0.811944900967,0.583408851071,-0.0136697692065,-0.0138826400804,-0.0148530294443,0.00254848944498,-0.0151033438757,0.0209367152325,0.0173873784984,-0.00566459443905,3.14035749435,-0.650998234749,0.461079835892,0.387809157372,1.12420797348,-0.0671304315329
2017/07/09/10:17:16.823335,502149,1499566639,629530940,,0.733822593644,-0.0314431909053,0.0283309099042,0.811769748329,0.58364311144,-0.0137571146436,-0.0141892904307,-0.00867372022521,0.0193668215079,-0.0179977981318,0.0409317495063,0.0104054447312,0.00718676601494,2.93835473061,-1.06015789509,0.189476087689,0.396963119507,1.14201438427,-0.0936398506165
2017/07/09/10:17:16.832957,502150,1499566639,639540959,,0.732930151682,-0.0323024202552,0.0282685891777,0.812229415918,0.582979147515,-0.0144059274633,-0.0145313018777,0.00212064843595,-0.00657955249163,-0.00700513406091,-0.0114940607341,-0.0174352800317,0.00363428956192,2.57440853119,-1.03387308121,0.123593643308,0.322741866112,1.09147703648,-0.118498846889
2017/07/09/10:17:16.843355,502151,1499566639,649534278,,0.733170749485,-0.032376052084,0.0284251101199,0.812024764805,0.58327947767,-0.0140448702254,-0.0142679323415,-0.0169215319942,-0.0143387115444,-0.012058707538,-0.0185239662713,0.0185322102936,0.0020043057546,2.48163175583,-0.940179347992,0.151655554771,0.380187630653,1.04323327541,-0.0998342111707
2017/07/09/10:17:16.853365,502152,1499566639,659530138,,0.733515776631,-0.0326872649862,0.0287479820177,0.812281188697,0.582939214121,-0.0137624866585,-0.0138469162595,0.00662492412538,-0.00934855255884,0.00420323819178,-0.00700023833068,-0.026397344831,-0.0118414949858,2.02484297752,-0.972459614277,0.40196070075,0.288658261299,0.903818070889,-0.103077143431
2017/07/09/10:17:16.863083,502153,1499566639,669533131,,0.73310030297,-0.0317826767981,0.0277998640625,0.811724841937,0.583684485557,-0.0143029676542,-0.014513008618,-0.00986655937439,-0.00117936001507,-0.0195568867058,0.00534705230528,0.0113510191902,0.0169709599787,2.10293602943,-0.423307359219,-0.00472476053983,0.222262993455,0.972890436649,-0.0953650176525
2017/07/09/10:17:16.873340,502154,1499566639,679531731,,0.733313656422,-0.032659274483,0.0279975463774,0.811941332555,0.583399399766,-0.0142609735506,-0.0138937926672,-0.0146007599843,0.0109827421327,-0.0218248638769,-0.000119423066786,0.0358093430862,0.0296076999362,2.5795249939,-1.27581131458,0.535529077053,0.321190059185,1.09370315075,-0.116283372045
2017/07/09/10:17:16.882913,502155,1499566639,689529304,,0.732409151736,-0.0324154772385,0.0272642664569,0.811906299255,0.583417121433,-0.0147263727742,-0.0146886892887,0.00109284935671,-0.0030547377741,-0.0121901628554,-0.00935222165259,-0.00917531661377,-0.0166882440112,2.4551551342,-1.27179014683,-0.163933217525,0.492513448,1.10286700726,-0.0808314085007
2017/07/09/10:17:16.893230,502156,1499566639,699527311,,0.73339716323,-0.0322925342061,0.028116639665,0.811919359657,0.58343773706,-0.0139068992835,-0.0139268999445,-0.0131028025147,-0.0139111212184,-0.0101962295416,0.00542255544529,0.00531156266914,-0.017404728457,2.93170213699,-0.660820305347,0.222020491958,0.276329517365,1.15491461754,-0.107149109244
2017/07/09/10:17:16.903340,502157,1499566639,709530256,,0.733029207786,-0.0322471338896,0.0279157386238,0.811856930861,0.583514016247,-0.0141016797555,-0.0141724833142,-0.00577516488021,0.0182809477802,-0.00468546943075,0.043328653409,-0.00505811565599,0.0055965484917,1.68147337437,-0.842826247215,0.12180095911,0.336035728455,0.663371086121,-0.0592974759638
2017/07/09/10:17:16.913138,502158,1499566639,719535639,,0.733445857738,-0.0313182081679,0.0273982641396,0.811866434674,0.583509602348,-0.0136137860852,-0.0142863937277,0.00252314479822,0.0176901333118,-0.011402236003,0.0094442685964,-0.00766395630463,0.0360674038995,2.01547241211,-0.276685416698,0.0329722128808,0.132408633828,0.793853521347,-0.111403658986
2017/07/09/10:17:16.923223,502159,1499566639,729535327,,0.733318121463,-0.0322169850509,0.0275224394629,0.81194107312,0.583410822512,-0.0137844586581,-0.013910235641,0.00767477210584,0.00823635364074,-0.0137234598516,0.00158900302407,-0.0269899508099,0.00126879046097,1.99772667885,-0.747808456421,0.171165078878,0.385579168797,0.945063591003,-0.0998313426971
2017/07/09/10:17:16.932913,502160,1499566639,739532607,,0.732557942882,-0.0324509717483,0.0274137402684,0.812058093534,0.583229053694,-0.0141356989869,-0.0143424428881,-0.00956207998912,-0.0100561576103,-0.0114683966526,-0.0111980019098,0.00543549141374,-0.00977190811308,2.44287729263,-1.0965898037,0.371191203594,0.503729462624,1.14016330242,-0.0942603498697
2017/07/09/10:17:16.943055,502161,1499566639,749531613,,0.732720957252,-0.0324248495673,0.0271119213129,0.812126836837,0.583138233602,-0.0141081085327,-0.0141690745712,-0.0161743999058,-0.00119755467155,-0.0222550854106,0.00149066636375,0.0215618156804,-0.00167469245611,2.36864113808,-0.821446716785,0.367787718773,0.457541465759,1.03200376034,-0.0938525795937
2017/07/09/10:17:16.953228,502162,1499566639,759534960,,0.732913777263,-0.0327997288408,0.0271866674243,0.812119947735,0.583158199903,-0.0140270288098,-0.0138183515337,0.00308093951277,0.000374487961717,-0.00157376164265,-0.0138597326022,-0.0105702459567,0.0127883074966,1.68254709244,-1.18745875359,0.525993645191,0.413641750813,0.768543541431,-0.0977121591568
2017/07/09/10:17:16.963001,502163,1499566639,769527090,,0.733099511443,-0.0323893788084,0.026972904573,0.812089627561,0.583203750258,-0.0136872375607,-0.0140172044564,-0.00344045604465,-0.00534123091678,-0.0106362986266,-0.0138272175891,0.00710167514382,0.0015835223125,1.2815912962,-0.912406027317,0.275908708572,0.266054391861,0.64467638731,-0.105034485459
2017/07/09/10:17:16.973215,502164,1499566639,779543099,,0.73269462432,-0.0323572787702,0.026984587842,0.811982142841,0.583340080315,-0.0140843529538,-0.0141767911689,-0.00451628329159,-0.0188195132782,-0.00495171789894,-0.0220867604129,-0.0104806277297,-0.00824034683773,1.22595834732,-0.908586859703,0.348326206207,0.39194303751,0.572216272354,-0.0793702453375
2017/07/09/10:17:16.983082,502165,1499566639,789531408,,0.733401745951,-0.033196673573,0.0277145491047,0.812252774949,0.582998793622,-0.0136477596676,-0.0130986594254,0.000886941632843,-0.00794796099478,-0.00329894596465,0.00235645439342,-0.0210769982944,-0.0181998221537,2.27790474892,-0.772960662842,0.526651084423,0.392221778631,0.861577272415,-0.0784864127636
2017/07/09/10:17:16.993158,502166,1499566639,799545261,,0.733181567625,-0.0322672337027,0.026670689064,0.812093185092,0.583203781959,-0.0136732220413,-0.0138220995325,0.00662814827798,-0.00983066317971,0.00434613921785,-0.00371222253764,-0.0329248446534,0.00271159458996,1.5423835516,-0.700611829758,-0.166529417038,0.353657960892,0.66789740324,-0.0925885885954
2017/07/09/10:17:17.003525,502167,1499566639,809534093,,0.732855824014,-0.0323195926287,0.0272741020813,0.812291185895,0.582918353947,-0.0137365985356,-0.0141607842346,0.00368182065217,0.0087181054477,-0.00564235742454,0.00509656385618,-0.00723204518446,0.00772764087982,1.70614397526,-0.730040371418,0.370358347893,0.406236231327,0.715581655502,-0.0797141492367
2017/07/09/10:17:17.013322,502168,1499566639,819535220,,0.733530195144,-0.0329595351594,0.0274536248616,0.812114553799,0.583198874085,-0.0133412504412,-0.0130780659973,0.00692999097088,-0.00958080980977,0.00477736853191,-0.0157430606443,-0.0238346822075,0.0178637542651,2.06615638733,-0.873341023922,0.356102406979,0.364476799965,0.794249296188,-0.0943980291486
2017/07/09/10:17:17.023018,502169,1499566639,829529351,,0.733294719934,-0.033113029359,0.0271641288957,0.812289467047,0.582947502285,-0.0135536074981,-0.0132034475856,0.00720735201452,0.00601105640101,-0.0117027024219,0.00467433732293,-0.0258851083483,0.0168311203809,2.19825196266,-0.67089253664,0.680104851723,0.44391053915,0.830231964588,-0.0737299770117
2017/07/09/10:17:17.032914,502170,1499566639,839531755,,0.733632840203,-0.0328042721439,0.0271993017586,0.811853517725,0.583562098426,-0.0134262239821,-0.0129953663732,0.0147816301676,0.00326418828744,-0.00571850162154,-0.00598982107983,-0.0346892348543,0.00971368300293,2.05645108223,-0.613509714603,0.386017858982,0.431994259357,0.837805569172,-0.0529458597302
2017/07/09/10:17:17.043274,502171,1499566639,849534190,,0.73396703715,-0.0320433171685,0.027195280391,0.81162132001,0.583891628451,-0.0129732268219,-0.0131565389178,0.034164541425,0.00291615950857,0.0140607289985,-0.0105737969278,-0.0728455064825,0.0154512974877,1.40587437153,-0.491245418787,0.387800395489,0.308737099171,0.622201561928,-0.0645859465003
2017/07/09/10:17:17.053276,502172,1499566639,859534179,,0.733994317601,-0.0326003172357,0.0271872577911,0.811932343454,0.583465714137,-0.0129025824725,-0.0129287836383,0.0072727654864,-0.0128451576148,-0.0111164546072,-0.00581520559009,-0.0303072818709,-0.00770304174085,-0.489070087671,1.28137338161,1.55740952492,-0.629396796227,-0.0117711089551,-0.144867405295
2017/07/09/10:17:17.063324,502173,1499566639,869528756,,0.733965464524,-0.0327658163906,0.027229714701,0.811941069036,0.583455062688,-0.0128958497052,-0.0128680727871,0.0208134384846,-0.00591363778215,0.00752382679031,-0.0163697588278,-0.0500453434346,-0.0132549002694,-1.02698779106,1.41095948219,1.58947503567,-0.632675528526,-0.28243008256,-0.100501701236
2017/07/09/10:17:17.073223,502174,1499566639,879531931,,0.734057464624,-0.0331897940216,0.0271782465224,0.812161261783,0.583158891208,-0.012653546352,-0.0126364642528,-0.00132191062252,0.00132622821467,-0.00914069296549,0.000527109159683,-0.00382253873047,-0.0124048432253,-0.120025068521,0.681706905365,1.02957105637,-0.34610041976,0.0504467114806,-0.106486998498
2017/07/09/10:17:17.083122,502175,1499566639,889532979,,0.73401535228,-0.0324746566047,0.0267208250543,0.811726031341,0.58375484637,-0.0129408598244,-0.0127931047808,0.0147609977663,0.0108245767264,-0.00884510454648,0.000915297964258,-0.0290107395422,0.0124589785185,-0.543865203857,0.219058394432,0.669810771942,-0.0485980883241,-0.160276904702,-0.0990874394774
2017/07/09/10:17:17.093132,502176,1499566639,899531328,,0.734085618179,-0.0331505728259,0.0269241994829,0.812160775893,0.583160084036,-0.0125978361864,-0.0126682678879,-0.00456770759005,0.0148518627091,-0.0273861532038,0.00604424860735,0.0118216996636,0.0357564651677,-0.984726727009,0.00462376326323,0.735012352467,0.110111840069,-0.285271406174,-0.0526557900012
2017/07/09/10:17:17.103176,502177,1499566639,909527701,,0.734526613086,-0.0325217681448,0.0267048834818,0.812133382899,0.583206900937,-0.012141672386,-0.012714514212,0.00758105941472,-0.012002909528,-0.00716429783743,-0.00312096491583,-0.0390401439317,-0.0152541240559,0.15766581893,-0.461971223354,0.863597273827,0.293513834476,0.227072045207,-0.0785039290786
2017/07/09/10:17:17.113193,502178,1499566639,919539188,,0.734227771908,-0.0326673595543,0.0267105059728,0.811991916822,0.58339729626,-0.0125569617763,-0.012611282362,-0.00212844365526,-0.0100552710964,-0.00998435224106,0.00513651712133,-0.014740709898,-0.0255410133475,-0.699809670448,-0.257809489965,0.929378867149,0.20868255198,-0.0706752091646,-0.0618360415101
