time,.header.seq,.header.stamp.secs,.header.stamp.nsecs,.header.frame_id,.pose.position.x,.pose.position.y,.pose.position.z,.pose.orientation.x,.pose.orientation.y,.pose.orientation.z,.pose.orientation.w,.twist.linear.x,.twist.linear.y,.twist.linear.z,.twist.angular.x,.twist.angular.y,.twist.angular.z,.wrench.force.x,.wrench.force.y,.wrench.force.z,.wrench.torque.x,.wrench.torque.y,.wrench.torque.z
2017/07/09/10:19:22.402135,514707,1499566765,209038717,,0.781642745132,0.39843140636,0.16640239151,0.623954655655,0.778885956866,0.0556767828209,0.0302877819798,-0.0241745851886,0.00899273732554,-0.0162625156306,-0.0120923043873,0.0449493965072,0.0249600325406,5.78413534164,1.68704342842,-1.12270259857,-0.982164621353,2.11568498611,-0.275562673807
2017/07/09/10:19:22.412321,514708,1499566765,219035179,,0.781792195931,0.398174400612,0.167056557295,0.623828851856,0.778948951859,0.0558837727668,0.0308722841922,-0.00363453056839,0.0099772996939,0.000215477436237,0.00748939139808,0.0030113746627,-0.000944324445569,5.5392742157,1.59631741047,-1.06046390533,-0.840042114258,2.05268192291,-0.246199905872
2017/07/09/10:19:22.422299,514709,1499566765,229042774,,0.78115702317,0.398517079062,0.166185705402,0.623532367199,0.779256494854,0.0552386533765,0.0302554698517,0.000525866798886,0.00613861095536,0.00090826455242,0.00414608093331,-0.00712745546731,0.0139580234339,5.93261098862,1.57709300518,-0.846803426743,-0.881667017937,2.25207042694,-0.2227858603
2017/07/09/10:19:22.432226,514710,1499566765,239044956,,0.781590227125,0.398413702557,0.16664338516,0.623760594814,0.779024168205,0.0558408418548,0.0304280477474,-0.00603871728724,-0.0179208584509,-0.0132489739202,-0.0176474121312,0.015522164833,-0.00898662553016,5.84973430634,1.64897739887,-0.972273528576,-0.886976361275,2.20213460922,-0.249810218811
2017/07/09/10:19:22.442466,514711,1499566765,249047585,,0.781344681924,0.397739378053,0.166259985613,0.623911137446,0.778942560631,0.0552564739689,0.0304975719116,-0.0100956068084,-0.0180050282615,-0.00521945182403,-0.0208791621922,0.0211012635959,-0.00642357909167,6.16300296783,1.50524640083,-0.830685138702,-0.785575926304,2.36349725723,-0.204304531217
2017/07/09/10:19:22.452444,514712,1499566765,259044140,,0.78136217775,0.397882066283,0.165959858621,0.623640338439,0.779169694334,0.0551701876701,0.0303902302786,-0.00642755859342,-0.00511254618487,-0.0197130837242,-0.0129948518346,0.0234741173289,0.00417202115307,6.31708908081,1.80274701118,-0.871756196022,-0.987922132015,2.35767197609,-0.262871414423
2017/07/09/10:19:22.462392,514713,1499566765,269039598,,0.781676300835,0.398025687271,0.166603993223,0.623536181369,0.779208802697,0.0556363387268,0.0306736065152,0.0010037779165,-0.011409341212,-0.00690842555038,-0.00597033379402,0.021378917641,-0.0269664369896,5.71717023849,1.6244353056,-0.843730270863,-0.897634387016,2.14287137985,-0.228454247117
2017/07/09/10:19:22.472426,514714,1499566765,279068045,,0.781874609982,0.397177337946,0.166561380699,0.624080267499,0.778774658802,0.0553045316267,0.0312291419718,0.00347689552956,-0.0251879064362,-0.00695543905558,-0.0129820976217,0.00722788689419,-0.0395368680862,5.07009840012,1.71166872978,-0.726800560951,-0.882192373276,1.94392049313,-0.248771265149
2017/07/09/10:19:22.482386,514715,1499566765,289042038,,0.781549740026,0.397514560096,0.16582876818,0.623748020279,0.779087312137,0.055015656108,0.0305719617753,0.000715656215285,-0.00533552594541,-0.0056926556447,-0.00679732058102,-0.0092124388883,-0.00134593238896,5.09505701065,1.88488006592,-0.844723701477,-1.00058102608,1.98066604137,-0.286416321993
2017/07/09/10:19:22.492321,514716,1499566765,299041963,,0.781809768355,0.396635699482,0.166073203351,0.624252262337,0.7786649057,0.0550649204779,0.0309504787043,0.0123545520282,0.0086101922354,-0.00414053140678,0.00415560504457,-0.0326501892678,0.0101830142163,4.51321935654,1.80610907078,-0.733766078949,-0.936670422554,1.80496144295,-0.257409334183
2017/07/09/10:19:22.502559,514717,1499566765,309038569,,0.782198103671,0.396499253797,0.165885278644,0.624242964552,0.778639816249,0.0554207014534,0.031133641123,0.00852124145166,-0.0349728005166,-0.01571553331,-0.0139845022404,-0.00606174344351,-0.0339710734625,4.77768707275,1.82742071152,-0.625587105751,-0.964225828648,1.94995307922,-0.270314693451
2017/07/09/10:19:22.512429,514718,1499566765,319043974,,0.781689476694,0.397149027126,0.166052872097,0.62386280779,0.778965369077,0.0553414341124,0.0307486016886,-0.00590943049691,-0.0232041154044,-0.0185998277198,-0.0248349622542,0.0197250759227,-0.00289015520245,4.31168746948,1.80759000778,-0.519979953766,-0.944689869881,1.78825330734,-0.263205856085
2017/07/09/10:19:22.522483,514719,1499566765,329043104,,0.781779122051,0.396012084684,0.165560025335,0.624607446364,0.778394211589,0.0548683744918,0.0309427017483,-0.00830230018582,-0.0373839380882,-0.017622222475,-0.0366821143768,0.0302415354462,-0.0218192289899,4.84961891174,1.99006485939,-0.321441352367,-0.986481249332,2.01176118851,-0.254680395126
2017/07/09/10:19:22.532327,514720,1499566765,339040509,,0.781498381397,0.395922566397,0.165522892016,0.624621127652,0.778414032227,0.0545493512392,0.0307312479867,-0.0101844973041,-0.0351914838586,-0.0221560940981,-0.0308415551645,0.042199860416,-0.0292467443671,4.4571518898,2.06201839447,-0.217705696821,-0.985385656357,1.82527542114,-0.279652476311
2017/07/09/10:19:22.542352,514721,1499566765,349036754,,0.780774238862,0.395476348945,0.164330675977,0.624691077165,0.778444778799,0.053662040336,0.0300860415864,-0.0125703617675,-0.0344345223109,-0.0204925774205,-0.0393088978613,0.0489946724748,-0.0349761426686,4.39663600922,2.25250720978,-0.162948995829,-1.04161548615,1.7626452446,-0.266925364733
2017/07/09/10:19:22.552251,514722,1499566765,359042666,,0.78123738339,0.395828260391,0.164653133302,0.624131697427,0.778848751222,0.0541082291501,0.0304392267344,-0.0137905119556,-0.0440358101399,-0.0206213289071,-0.023789457665,0.0547425955334,-0.0627577277315,4.78827238083,2.38839149475,0.0688466578722,-1.12063193321,1.95707714558,-0.30736207962
2017/07/09/10:19:22.562282,514723,1499566765,369040021,,0.781202464309,0.394546859168,0.164693993648,0.625465160188,0.777796933931,0.0539196421163,0.0302974446578,-0.010878073201,-0.0267642990309,-0.0211229616708,-0.00881451921611,0.0374828687323,-0.0168628700623,4.68890857697,2.32432723045,0.266003519297,-1.06331217289,1.9333922863,-0.280290693045
2017/07/09/10:19:22.572648,514724,1499566765,379040305,,0.781291087238,0.394600079258,0.164464290192,0.625078719681,0.778108204153,0.0537667815921,0.0305507778594,-0.00801862893471,-0.039097868439,-0.0290310551794,-0.00305605233968,0.0395467024461,-0.0458936392901,4.78973674774,2.32192778587,0.387615203857,-1.08474838734,1.9957473278,-0.290113091469
2017/07/09/10:19:22.582370,514725,1499566765,389042271,,0.780844083943,0.394110256461,0.164439068962,0.625070296626,0.778151246924,0.0531883502045,0.0306392001901,0.00185229806762,-0.0565421934142,-0.0180339926702,-0.0272611205365,0.017784935548,-0.0646957262664,5.19448852539,2.35872745514,0.501012861729,-1.1085742712,2.17343831062,-0.271425157785
2017/07/09/10:19:22.592308,514726,1499566765,399042658,,0.781075463541,0.393102714144,0.163844466829,0.625927921854,0.777474422367,0.0532503223519,0.0302020260581,-0.0143511266527,-0.0540655583435,-0.0269679107598,-0.0348718907098,0.0515437965834,-0.0541911355886,4.65357351303,2.27681446075,0.66682779789,-1.0545334816,1.9763995409,-0.289710700512
2017/07/09/10:19:22.602539,514727,1499566765,409037971,,0.780921166093,0.392756433573,0.164015347558,0.626050207296,0.777395880366,0.0529497978163,0.0302175784111,0.00621466683068,-0.0594218577257,-0.0107191720594,-0.0216986059056,0.0105891431791,-0.078795409553,4.58826875687,2.27824664116,0.687665104866,-0.985561132431,1.93178164959,-0.251134514809
2017/07/09/10:19:22.612426,514728,1499566765,419045251,,0.781353983079,0.392385601403,0.164223790117,0.626346596142,0.777124741476,0.0532453922734,0.0305287714767,0.00378782866711,-0.0768557340056,-0.0120877858999,-0.0469204309506,0.027062984655,-0.0900545224704,4.16104030609,2.23226070404,0.661976635456,-0.884345412254,1.78974115849,-0.216231748462
2017/07/09/10:19:22.622468,514729,1499566765,429041142,,0.781203495474,0.39110217722,0.163334816722,0.626434767582,0.777107453787,0.0523872830362,0.030644082777,0.0172159353408,-0.0832813729275,-0.00853524154102,-0.0500194864,-0.00998614600428,-0.0722811469341,3.45942568779,2.09109973907,0.589184343815,-0.679810404778,1.56523048878,-0.192388936877
2017/07/09/10:19:22.632302,514730,1499566765,439047073,,0.781533848197,0.389864050649,0.163581865336,0.62697316408,0.776660081562,0.0523751069196,0.0309938285437,0.0085885449109,-0.0871393698529,-0.00807272192326,-0.0461200580452,0.00775713918507,-0.103907242882,2.6899125576,1.67410647869,0.602764725685,-0.479713380337,1.33161139488,-0.144221141934
2017/07/09/10:19:22.642212,514731,1499566765,449041959,,0.781709692864,0.388966812416,0.16362052802,0.627665516953,0.776092560616,0.0524057745805,0.0311443570559,0.0270050265946,-0.112219136728,-0.0097320417149,-0.0561236876523,-0.0219437478884,-0.119089590863,2.97041583061,1.94467961788,0.645656526089,-0.701535642147,1.46688115597,-0.250496804714
2017/07/09/10:19:22.652222,514732,1499566765,459042298,,0.781702768491,0.388100117362,0.163454300436,0.627738885317,0.776066984676,0.0518189317818,0.0312845883315,0.0167035809752,-0.092667838281,-0.00911993971795,-0.0363786395876,-0.00875877435887,-0.0883270123805,3.49645256996,2.09089183807,0.555548489094,-0.637976169586,1.67832517624,-0.179855629802
2017/07/09/10:19:22.662161,514733,1499566765,469037274,,0.781670026033,0.387121790972,0.163306458157,0.628506724529,0.775458961227,0.0517548007777,0.0310505599208,0.00886954709621,-0.0856738727544,-0.0150367133427,-0.00986333866596,0.0170052476492,-0.125088360599,3.66845226288,1.93157172203,0.224664002657,-0.563127934933,1.69472455978,-0.121831059456
2017/07/09/10:19:22.672456,514734,1499566765,479043133,,0.781828856603,0.386055885529,0.16272594629,0.628765506427,0.775276709326,0.0513465863016,0.0310401349865,0.00393185008849,-0.101561107416,-0.0157509784104,9.63134004089e-05,0.0473749304447,-0.162693985178,4.09817075729,2.27474427223,-0.103121772408,-0.77470356226,1.77956056595,-0.214928880334
2017/07/09/10:19:22.682462,514735,1499566765,489041437,,0.782155436274,0.385009183514,0.162808165193,0.629861988371,0.774376907566,0.0515063300951,0.0310061057412,0.0138588867789,-0.109534855406,-0.0127353395883,-0.016296800524,0.0177446252656,-0.151633640976,3.97734546661,3.42262125015,-0.13282507658,-1.4589009285,1.70738911629,-0.407380729914
2017/07/09/10:19:22.692394,514736,1499566765,499043101,,0.782112712223,0.384534309929,0.16250624515,0.630164603185,0.774131771358,0.0516193284638,0.0307899073698,0.0232769922209,-0.119049308478,-0.0154754813136,-0.030131441519,0.00969512651581,-0.171776144629,4.1175122261,5.0242638588,0.072314709425,-2.24251699448,1.75581943989,-0.547865092754
2017/07/09/10:19:22.702248,514737,1499566765,509042076,,0.782083622818,0.383120043499,0.162397009384,0.630471996066,0.773918971812,0.0508951663977,0.0310510754141,0.0174389171733,-0.0944625308674,-0.0301792263127,-0.00903536087709,0.0264049494249,-0.144532241923,3.94065499306,5.64003562927,0.0923375040293,-2.48910403252,1.67138516903,-0.555838644505
2017/07/09/10:19:22.712488,514738,1499566765,519034970,,0.782498391408,0.382328176596,0.161986325419,0.630905477913,0.773558053635,0.0509498217052,0.0311501406756,0.0103030002949,-0.107132336645,-0.0255101390798,-0.0325758936646,0.0316893350357,-0.148041140081,4.05062198639,5.8326253891,0.076338738203,-2.47003531456,1.73181819916,-0.523284196854
2017/07/09/10:19:22.722330,514739,1499566765,529041886,,0.782561798699,0.38064132055,0.162026881013,0.631794994251,0.772851471972,0.050445927213,0.0314784996167,0.0135468433918,-0.121815585204,-0.0166549891899,-0.0697706639837,0.0220445109954,-0.142152185177,3.93621778488,5.4869184494,0.129353225231,-2.22582626343,1.69787359238,-0.463248461485
2017/07/09/10:19:22.732075,514740,1499566765,539050376,,0.782980778052,0.379484848849,0.162067818256,0.632033942145,0.772652334578,0.0500080544666,0.032259267446,0.010146436837,-0.141717104282,-0.0164737561166,-0.101876993961,0.0261847633905,-0.160736423422,4.1821103096,5.49322080612,0.150034323335,-2.1397690773,1.81678891182,-0.449745714664
2017/07/09/10:19:22.742252,514741,1499566765,549041992,,0.782940382632,0.377961852853,0.161676873223,0.632957228095,0.771923568572,0.0498168338457,0.0318972530273,0.0228765067964,-0.132918269698,-0.00770020847171,-0.0920847988714,-0.0103971578995,-0.135775595552,4.62744998932,5.65874385834,0.195186898112,-2.14633178711,2.00187659264,-0.466086447239
2017/07/09/10:19:22.752573,514742,1499566765,559041606,,0.782966797484,0.377385003419,0.161868557482,0.633220423525,0.771711807344,0.0496693426537,0.0320271453166,0.0194026259431,-0.123345328089,-0.00875300247402,-0.0598998899895,-0.00290716817672,-0.129023126176,4.69995307922,5.91535139084,0.266859948635,-2.29408454895,2.01231479645,-0.47324770689
2017/07/09/10:19:22.762541,514743,1499566765,569045097,,0.783539577547,0.375808011172,0.161534403263,0.634322206518,0.770787850337,0.0497503427357,0.0323470476008,0.0178657573993,-0.0997633707346,0.00232464439596,-0.0155747084998,-0.00534837854396,-0.149525497415,5.22526931763,6.245200634,0.256117075682,-2.47023010254,2.22309494019,-0.51670897007
2017/07/09/10:19:22.772429,514744,1499566765,579042947,,0.783675800451,0.375228073468,0.161670410667,0.634351081971,0.770764333337,0.0497158786886,0.0323941146494,0.0145597304343,-0.107819429984,-0.00670992156251,-0.0153665566516,0.00576612213395,-0.168975482012,5.4341750145,6.63252210617,0.0763484984636,-2.72253155708,2.24999690056,-0.565015733242
2017/07/09/10:19:22.782487,514745,1499566765,589043133,,0.784076142529,0.373101829315,0.161774638424,0.635552598956,0.769772126171,0.0494337890964,0.0328643914589,0.0203525753675,-0.108118745073,0.00129382748325,-0.0233245517246,-0.00867212310047,-0.155174651846,4.05505371094,6.66236352921,0.215203434229,-2.83741164207,1.72196948528,-0.686859130859
2017/07/09/10:19:22.792196,514746,1499566765,599042585,,0.784216969787,0.372983423439,0.161681298984,0.635538201055,0.769783502127,0.0493686535423,0.032974094383,0.030994490238,-0.105989974307,0.00438800856715,-0.0360886255893,-0.0272548733325,-0.157056611491,3.49218416214,6.08638286591,0.147106736898,-2.47509026527,1.54251825809,-0.534093260765
2017/07/09/10:19:22.802069,514747,1499566765,609036638,,0.784855061188,0.370987567765,0.162121886286,0.636142503391,0.769247412667,0.0494134671034,0.0337556329228,0.0409852911368,-0.144934386597,0.00114674564377,-0.0668606230928,-0.0440327069578,-0.154188881033,1.43234395981,2.95763039589,-0.183045938611,-1.05693531036,0.759488105774,-0.241549432278
2017/07/09/10:19:22.812179,514748,1499566765,619036767,,0.785137030182,0.368958214922,0.162055713471,0.637456864042,0.768164157665,0.0492983687951,0.0337971034089,0.0632396800469,-0.192057337497,0.0273913575189,-0.0912739894656,-0.100473517927,-0.215881938385,1.39716625214,1.35912418365,-0.569928646088,-0.634596705437,0.719805419445,-0.282477229834
2017/07/09/10:19:22.822196,514749,1499566765,629039087,,0.785927609863,0.367376419005,0.162275996452,0.638114095825,0.767576781916,0.0492039029975,0.0348605866692,0.0530067674193,-0.170232025515,0.0168706940084,-0.0708190832628,-0.0793307268078,-0.220663387695,1.30739140511,1.4948297739,-0.292347729206,-0.547101855278,0.834931492805,-0.122891515493
2017/07/09/10:19:22.832352,514750,1499566765,639048043,,0.785975896305,0.366404210396,0.161971369996,0.638695972264,0.767100459548,0.049164404557,0.0347448024814,0.0387436520937,-0.132774550675,-0.0069966153962,-0.0108613599554,-0.0421266325367,-0.216846719467,1.00332081318,1.5969928503,-0.658677458763,-0.650318801403,0.677552103996,-0.194952353835
2017/07/09/10:19:22.842236,514751,1499566765,649037386,,0.786411792707,0.364863490021,0.162095336297,0.639442779341,0.766459924077,0.0490425922082,0.0353120501117,0.0414346684259,-0.141752792824,0.0127724792513,-0.0307942463565,-0.0695332609003,-0.192210140155,1.40619826317,1.49938929081,-0.738047063351,-0.611764967442,0.857968688011,-0.200814977288
2017/07/09/10:19:22.852367,514752,1499566765,659036196,,0.786847077614,0.363985395756,0.162196745698,0.640032059343,0.765943690486,0.0492493466181,0.0355489504189,0.0459098290069,-0.15713665035,0.0146712272058,-0.0529800048538,-0.0659202704041,-0.202042772011,2.25505590439,1.54387116432,-0.567383825779,-0.710852444172,1.15819382668,-0.260532200336
2017/07/09/10:19:22.862207,514753,1499566765,669037632,,0.786625325081,0.361928317689,0.162305199205,0.64102098579,0.765167653603,0.0485093483913,0.0354598473591,0.0163482097639,-0.155256864661,-0.00768601307776,-0.0522551730447,0.0143650414662,-0.203112565902,2.59826588631,1.82835173607,-0.97136080265,-1.02953350544,1.12096750736,-0.405296087265
2017/07/09/10:19:22.872525,514754,1499566765,679043108,,0.786854354973,0.360363066678,0.162074023017,0.642001251948,0.764356786044,0.0485461507075,0.035162016113,0.0125575209632,-0.163885656258,0.00204811650163,-0.0510323622638,0.0262355157367,-0.221348805904,2.44530653954,1.63805437088,-1.16740250587,-0.898783445358,0.971668541431,-0.287414491177
2017/07/09/10:19:22.882519,514755,1499566765,689037796,,0.78711259795,0.358406368088,0.161803630671,0.642887802585,0.763620506062,0.0478679646883,0.0358838956234,0.00433007469399,-0.173641273251,-0.0159095716293,-0.0385894015059,0.0554802554806,-0.255451625379,1.79469192028,1.50238907337,-1.26573204994,-0.756729722023,0.720552504063,-0.237414672971
2017/07/09/10:19:22.892349,514756,1499566765,699046543,,0.787278884901,0.356880742972,0.162112404593,0.643741687178,0.762889840268,0.0479183764765,0.03604942441,0.01682690742,-0.184994860609,-0.0183486070815,-0.0513248683898,0.0184113175467,-0.263526948359,2.7660036087,1.67674005032,-1.09677743912,-0.803041875362,1.18166124821,-0.23179218173
2017/07/09/10:19:22.902060,514757,1499566765,709034059,,0.787474136476,0.355154245725,0.161913120172,0.644339083634,0.762389508161,0.0476024984475,0.0363783629317,0.0292287705135,-0.172764288211,-0.00173227682448,-0.0631658698986,-0.033426420639,-0.214782823315,3.23204755783,1.82953119278,-1.05216634274,-0.775743365288,1.38448035717,-0.232051193714
2017/07/09/10:19:22.912551,514758,1499566765,719042680,,0.788096248642,0.353123281232,0.162090160867,0.645181964547,0.761645504831,0.0477472503772,0.0368314766999,0.0326549131985,-0.192805170403,0.0124107719165,-0.0674043322509,-0.0356020652039,-0.233813155558,3.05501532555,0.643694519997,-0.920103907585,-0.23749871552,1.31725001335,-0.14369186759
2017/07/09/10:19:22.922406,514759,1499566765,729038588,,0.788372578015,0.351066906881,0.162061909044,0.646565283739,0.760473136125,0.0475288738929,0.0370803080082,0.0232144636312,-0.205217492344,-0.00712282680671,-0.0481735951789,0.00596352204456,-0.258785216643,3.09706878662,-0.34012567997,-1.05110287666,0.297381430864,1.33198165894,-0.0483041480184
2017/07/09/10:19:22.932490,514760,1499566765,739041550,,0.788005450021,0.348527147993,0.161659621023,0.647501153294,0.759740808512,0.0466737771771,0.0368472371756,0.0162159208145,-0.206935085782,-0.00551324284148,-0.0307647165914,0.0201121146113,-0.273108678246,3.36423397064,-0.407112121582,-0.88295429945,0.272281974554,1.42352998257,-0.0333107486367
2017/07/09/10:19:22.942330,514761,1499566765,749035699,,0.788185997055,0.347461509291,0.161129580814,0.648248971458,0.759114629522,0.0469072434101,0.0363037293542,0.00958278052936,-0.205021763079,-0.0150059883035,-5.64236130479e-05,0.0397699208702,-0.285141710801,3.15084648132,-0.0629664957523,-0.641306817532,0.0177030265331,1.33825385571,-0.0847728699446
2017/07/09/10:19:22.952266,514762,1499566765,759042460,,0.788288123994,0.346285178396,0.16154284838,0.649086205371,0.758380625653,0.0473334431908,0.0361312854472,0.00882125726184,-0.190376925085,-0.0210262909267,0.0334924712365,0.0440616162166,-0.271466363866,3.73316264153,0.921126902103,-0.631840288639,-0.547680437565,1.53747272491,-0.220778733492
2017/07/09/10:19:22.962585,514763,1499566765,769042323,,0.788585331856,0.343983087894,0.161239263794,0.65056767647,0.757132251079,0.0470401495628,0.0360510337761,0.0168315332075,-0.175691093743,-0.00354718763593,0.0512743152674,0.0174307189032,-0.267337794451,3.59081983566,1.5957416296,-0.434973686934,-0.918165624142,1.49342095852,-0.291577249765
2017/07/09/10:19:22.972391,514764,1499566765,779038823,,0.789073215657,0.341609529506,0.161434285828,0.651731367134,0.756112539409,0.04711557956,0.0363342125972,0.0256693448544,-0.192108770832,-0.00916491562839,0.036501117414,0.00595241241138,-0.310179317037,3.36596679688,1.73478591442,-0.531223654747,-1.07486367226,1.38674068451,-0.349785834551
2017/07/09/10:19:22.982444,514765,1499566765,789041599,,0.788864428358,0.340544412574,0.160502099413,0.652342909825,0.755621713457,0.0469631278597,0.0357633719797,0.025226432922,-0.187397251164,-0.00371804760619,0.0174828348854,-0.000458248237935,-0.280277695632,2.46236491203,1.66527628899,-0.365009725094,-1.06074440479,1.05115556717,-0.342801749706
2017/07/09/10:19:22.992087,514766,1499566765,799036279,,0.789017374741,0.337841231145,0.160931519117,0.653657884743,0.754488604907,0.04681363334,0.035871973925,0.0227424471385,-0.222757156163,-0.0136976070864,-0.00164528963883,0.0123335318207,-0.297202898299,2.45794677734,1.45713269711,-0.352511942387,-0.873531520367,1.08338332176,-0.286631137133
2017/07/09/10:19:23.002406,514767,1499566765,809042055,,0.789760994468,0.335295769638,0.16139627728,0.654963426649,0.753301176369,0.047003482295,0.0367548647971,0.0301331198808,-0.250550626576,0.00248967680036,-0.0309219529315,-0.0125358509126,-0.318107868583,1.71575784683,1.05071032047,-0.422714233398,-0.67893654108,0.806321978569,-0.266752511263
2017/07/09/10:19:23.012349,514768,1499566765,819039109,,0.790618049131,0.3329730844,0.161568629418,0.656020420183,0.752328702958,0.0475054715927,0.0371747384334,0.0342785692439,-0.247237018441,0.00163468132508,-0.00464152630551,-0.0182910724571,-0.34637651582,1.68061101437,0.755746841431,-0.243639200926,-0.578271090984,0.842999219894,-0.240351930261
2017/07/09/10:19:23.022367,514769,1499566765,829040355,,0.790376853301,0.331246555701,0.161292054439,0.657291580261,0.751264108499,0.0472625635768,0.0365549980525,0.0399302951762,-0.230700458751,0.0011286077115,0.0163652917765,-0.039034751029,-0.339611282832,1.93047678471,0.898961365223,-0.20371325314,-0.644659101963,0.978780210018,-0.27880859375
2017/07/09/10:19:23.032547,514770,1499566765,839042467,,0.791057769302,0.328017494748,0.161414743028,0.658699506528,0.749985692976,0.0473124838427,0.0373891602422,0.0375985930359,-0.242055446672,0.00653246008157,0.0188327342313,-0.0294711254982,-0.332606329617,1.50797986984,0.805221557617,-0.288121759892,-0.583046317101,0.805282890797,-0.250772863626
2017/07/09/10:19:23.042420,514771,1499566765,849040686,,0.791064074525,0.325671605393,0.161234463307,0.659989681797,0.748868467502,0.0471259128525,0.0372664277891,0.0364137327014,-0.247828146298,-0.00388359865821,0.014110934055,-0.0367617180384,-0.343818489837,1.48014867306,0.874675869942,-0.210962936282,-0.637779474258,0.785025000572,-0.285189121962
2017/07/09/10:19:23.052228,514772,1499566765,859035712,,0.791707308872,0.324300033471,0.161193232615,0.66083834731,0.748079455205,0.0477432385675,0.0372879417019,0.0355319326062,-0.252450238407,-0.0163621081292,0.00116358312495,-0.0308521293939,-0.351356884622,1.23367452621,1.15339052677,-0.237379536033,-0.760464608669,0.660033941269,-0.279947400093
2017/07/09/10:19:23.062078,514773,1499566765,869036566,,0.791656055089,0.320915454705,0.160501595191,0.662560615012,0.746585535586,0.0472436267035,0.0373029385607,0.048539674493,-0.249647850139,-0.000129647008298,0.0209237549808,-0.066804147975,-0.35889835573,0.851220965385,0.891125679016,-0.222267329693,-0.618031084538,0.488991439342,-0.275601148605
2017/07/09/10:19:23.072194,514774,1499566765,879040471,,0.79270479203,0.318442246729,0.161342987855,0.663564563155,0.74560150826,0.0479735671484,0.0381968357421,0.054525022139,-0.268604367924,0.0146870821593,0.0163234932497,-0.0912459588779,-0.373007518281,0.757078051567,0.909008622169,-0.302697360516,-0.657322466373,0.416055768728,-0.296277582645
2017/07/09/10:19:23.082529,514775,1499566765,889035566,,0.793590894169,0.315759175614,0.161671652878,0.664663713372,0.744542739046,0.0486089219958,0.03892853148,0.06837170163,-0.26181458924,0.0143496425438,0.0194236739437,-0.119714467741,-0.370610788317,1.05144238472,0.815184772015,-0.409317493439,-0.603302001953,0.534100174904,-0.284153223038
2017/07/09/10:19:23.092677,514776,1499566765,899044942,,0.793825310383,0.31316773595,0.161416246172,0.666394629209,0.742995964573,0.0486205876732,0.0388745835143,0.0663823428101,-0.280466521882,0.00490883555611,0.0218730718092,-0.1147574453,-0.382752548932,0.790048241615,0.743411123753,-0.237874165177,-0.544904828072,0.413673579693,-0.261983811855
2017/07/09/10:19:23.102280,514777,1499566765,909035431,,0.794428285429,0.310912000205,0.161039996138,0.667646724605,0.74183350294,0.0489556583436,0.0391694850059,0.0600771705385,-0.279320261872,-0.00382278662786,0.00539806733963,-0.0986484626266,-0.374543571014,0.546195149422,0.672198057175,-0.162081286311,-0.521714985371,0.358023732901,-0.27812308073
2017/07/09/10:19:23.112343,514778,1499566765,919043599,,0.79541216994,0.307321620837,0.161074670638,0.66934814901,0.740221667454,0.0493385966105,0.0401327962233,0.0533758470972,-0.279769324231,-0.00973914112987,0.0189796749407,-0.0888423071612,-0.41137703736,0.750926852226,0.853786587715,-0.0927140116692,-0.581699430943,0.456920683384,-0.292665779591
2017/07/09/10:19:23.122414,514779,1499566765,929040106,,0.795407428969,0.305282953305,0.160812067772,0.670565201927,0.739119784273,0.0496151288782,0.0397818230602,0.0620112887363,-0.293382276278,-0.0115677356412,0.0350040646745,-0.104898355162,-0.43168807974,0.447633504868,0.169060319662,0.0238501653075,-0.467655688524,0.323701351881,-0.294758051634
2017/07/09/10:19:23.132314,514780,1499566765,939036383,,0.796175722161,0.30237031331,0.16119713932,0.671863144034,0.737866743495,0.0499701116531,0.0406887266348,0.0707183375646,-0.290785750991,-0.00295916891532,0.0176537276236,-0.134331644297,-0.395471731985,-0.00851679593325,0.0876745134592,0.303016722202,-0.411013096571,0.194954067469,-0.266954183578
2017/07/09/10:19:23.142356,514781,1499566765,949038967,,0.797203092438,0.299108615706,0.161344385721,0.673664973053,0.7361378338,0.0508742178196,0.0410902383918,0.0768522711915,-0.303237385522,0.0154330526142,0.0135374172679,-0.157923116233,-0.421977405505,0.191311269999,0.601421296597,0.32221865654,-0.617109656334,0.240073621273,-0.271391987801
2017/07/09/10:19:23.152236,514782,1499566765,959038154,,0.797511338065,0.29640082113,0.16101017188,0.675041373497,0.73485710022,0.0510110600202,0.0412560065866,0.0713725037099,-0.297030179446,0.0170402128428,0.0279463678407,-0.144839693532,-0.417857468804,-0.100617498159,0.69584941864,0.128153160214,-0.740500509739,0.106589436531,-0.354797959328
2017/07/09/10:19:23.162240,514783,1499566765,969034998,,0.798266413827,0.293273299847,0.161098757885,0.676648775918,0.733307397333,0.0514326831498,0.0419687284791,0.0516742742994,-0.303410142412,-0.00908103736934,0.0414544455446,-0.0890336916124,-0.429695294106,-0.00304794311523,0.492362320423,0.222095042467,-0.6196179986,0.100574955344,-0.326033174992
2017/07/09/10:19:23.172357,514784,1499566765,979043252,,0.798446762869,0.290199983087,0.161222108778,0.678014234102,0.732027658723,0.0514536205603,0.0422460666821,0.0569754772413,-0.308949056077,0.000182406086413,0.0193111189779,-0.112882348942,-0.441032094396,-0.457759082317,0.561352729797,0.141234815121,-0.663904607296,-0.118319928646,-0.320828199387
2017/07/09/10:19:23.182219,514785,1499566765,989039177,,0.799412579302,0.286934350564,0.161336759589,0.680052116443,0.730050184441,0.052276469487,0.0426968131957,0.0617116677664,-0.320985500869,0.0096722646467,0.0254749397446,-0.128832290446,-0.450976690289,-0.826834380627,0.390939116478,0.347457647324,-0.656760573387,-0.223124057055,-0.378391861916
2017/07/09/10:19:23.192471,514786,1499566765,999042368,,0.799884619313,0.284765190295,0.161093764779,0.680721398689,0.72938080011,0.0523284359132,0.0434023109135,0.0632812244037,-0.323504303874,0.00469051542718,0.0200800690508,-0.132162334157,-0.432918074757,-0.58597278595,0.489937722683,0.611954450607,-0.632109701633,-0.0582563467324,-0.334904372692
2017/07/09/10:19:23.202125,514787,1499566766,9036501,,0.80089301667,0.281708941608,0.16183635669,0.682446223157,0.727643438218,0.0534020537316,0.0441633329107,0.068654427972,-0.313308051003,0.0149835449207,0.0088982372194,-0.155744982814,-0.420590212918,-1.12172007561,0.434493154287,0.643034934998,-0.588575422764,-0.203678801656,-0.314257472754
2017/07/09/10:19:23.212374,514788,1499566766,19050276,,0.801717365122,0.277914426648,0.161880280025,0.684014423552,0.726083419449,0.0538420690998,0.0450351858914,0.0668440576615,-0.315071101562,0.00472794161841,0.0151679094583,-0.145273437851,-0.435058936977,-1.48397564888,0.147239953279,0.68370860815,-0.461023598909,-0.324315398932,-0.272163569927
2017/07/09/10:19:23.222570,514789,1499566766,29066741,,0.80227529308,0.274554182161,0.162088121395,0.685959033776,0.724190376328,0.0541998785511,0.0455068783874,0.0736503351476,-0.34349842648,0.00999277874516,0.0075691717581,-0.160032791577,-0.478627215888,-2.21193122864,0.0361569821835,0.615637421608,-0.480235815048,-0.618200063705,-0.326963603497
2017/07/09/10:19:23.232196,514790,1499566766,39036355,,0.802465791249,0.271930282396,0.161738594903,0.687257656988,0.722959836278,0.0542172786561,0.0454584946565,0.0538432636259,-0.349870883043,0.00238982769606,0.00502978114751,-0.118051474236,-0.467359213171,-2.87065243721,0.261465787888,0.596841216087,-0.474846601486,-0.891404986382,-0.336533635855
2017/07/09/10:19:23.242382,514791,1499566766,49033889,,0.803089388958,0.268468657504,0.161772087203,0.688725351969,0.721477978623,0.0547880662987,0.0460997148459,0.0642053496515,-0.32000582555,0.00605062761625,0.0339481929256,-0.152219697025,-0.436563342283,-3.45977115631,0.0642697513103,0.633446574211,-0.427893400192,-1.11391878128,-0.354756206274
2017/07/09/10:19:23.252270,514792,1499566766,59035388,,0.803825126136,0.264806780961,0.161720646332,0.690094791065,0.720074343043,0.0552133400761,0.047048984189,0.0560887954948,-0.329522221859,0.000564841927163,0.0276259660909,-0.138885583016,-0.442882658208,-3.51013469696,-0.0724294781685,0.82285374403,-0.494701623917,-1.12482511997,-0.403011381626
2017/07/09/10:19:23.262409,514793,1499566766,69042137,,0.804534736044,0.262346045007,0.161836666496,0.69151596088,0.718612911991,0.0560992474444,0.0474766574759,0.0657466236189,-0.324576098198,-0.00115780746397,0.0331228283359,-0.168656114426,-0.402529404293,-3.92718195915,-0.218825012445,1.18190741539,-0.349208682775,-1.22143065929,-0.344327419996
2017/07/09/10:19:23.272347,514794,1499566766,79043600,,0.805108691008,0.258638191643,0.161342740928,0.69290684354,0.717227727907,0.0560805380059,0.0481608321508,0.0507966035897,-0.337956710989,-0.00745145793671,0.0239056508521,-0.135039235608,-0.425025230114,-3.56983852386,-0.138556003571,1.17941379547,-0.365855753422,-1.09247648716,-0.348857998848
2017/07/09/10:19:23.282329,514795,1499566766,89052390,,0.805513336931,0.25616195684,0.161434619172,0.694166242343,0.715926541489,0.0568693536009,0.0484591766751,0.0671043238522,-0.358726619031,-0.000923862469872,0.00341627561573,-0.168752269532,-0.443440215861,-3.041005373,-0.375354468822,0.787926077843,-0.280752211809,-0.917586863041,-0.335792332888
2017/07/09/10:19:23.292385,514796,1499566766,99041268,,0.806142543624,0.252155556955,0.161370035443,0.695652591848,0.714408190886,0.0572598609775,0.049088864011,0.0608991168857,-0.359995040768,-0.00983142959146,0.0178361797148,-0.157534937727,-0.435419519362,-2.69285750389,-0.54749417305,0.503662347794,-0.186745494604,-0.836687803268,-0.302373737097
2017/07/09/10:19:23.302208,514797,1499566766,109048645,,0.806151538076,0.249601927711,0.161125335827,0.696808004206,0.713268039724,0.057507828015,0.0489914125106,0.0482808856675,-0.352527723719,-0.0195732263045,0.00453193366551,-0.122281258316,-0.394216454544,-3.11157107353,-0.199951022863,0.320755451918,-0.219763711095,-1.0071760416,-0.29841414094
2017/07/09/10:19:23.312453,514798,1499566766,119042226,,0.806823146212,0.246095407531,0.160697724398,0.697716699451,0.712301498724,0.0576377182519,0.0499587395526,0.0632732365017,-0.315072380192,-0.0117967482839,0.0281861698985,-0.161907175985,-0.34252604621,-3.11324214935,0.546741187572,0.206383213401,-0.741328001022,-1.0343849659,-0.470171809196
2017/07/09/10:19:23.322317,514799,1499566766,129034656,,0.808364407089,0.242927377019,0.160729332231,0.699211617788,0.710649835852,0.0591720277661,0.0507798728212,0.0565402230523,-0.332293906788,-0.026203804658,-0.010605919214,-0.138023087488,-0.309785039571,-3.09696531296,2.00171780586,0.314839065075,-1.56019687653,-1.01450097561,-0.693091630936
2017/07/09/10:19:23.332337,514800,1499566766,139041748,,0.808378664954,0.238474821612,0.160559471881,0.700250116106,0.70961118496,0.0587134050656,0.0515216181691,0.0620139681808,-0.350033117835,-0.0307986129948,-0.000103420107065,-0.152166972113,-0.313291972065,-3.12477397919,2.58292961121,0.500589728355,-1.85998475552,-0.988619625568,-0.751358926296
2017/07/09/10:19:23.342676,514801,1499566766,149037752,,0.809024547512,0.23556284549,0.160278820534,0.700902705218,0.70887078762,0.0593252056055,0.0521356332641,0.0625593184329,-0.336729176311,-0.0159470238519,0.00253799251164,-0.169135058958,-0.297817915358,-4.03751564026,2.16439533234,0.469208329916,-1.63332426548,-1.33638703823,-0.66003715992
2017/07/09/10:19:23.352470,514802,1499566766,159036162,,0.809439793923,0.232826063146,0.159747169768,0.701703126384,0.708036020529,0.0595285087532,0.0524792597228,0.0524164857257,-0.336804346318,-0.0274256473854,-0.0139393962072,-0.144671638661,-0.269929062388,-5.48867225647,0.991800069809,0.511774003506,-0.916280627251,-1.85130822659,-0.435664981604
2017/07/09/10:19:23.362456,514803,1499566766,169041490,,0.809999231031,0.229524630842,0.159645052842,0.701936764102,0.70769016346,0.0599513104271,0.0535280498532,0.0555347125661,-0.373142187121,-0.025025445669,-0.0318994505581,-0.156160408271,-0.26509733104,-5.75679826736,0.00424793362617,0.439086258411,-0.364648729563,-1.92579126358,-0.272522419691
2017/07/09/10:19:23.374911,514804,1499566766,179042277,,0.810902091992,0.225555000796,0.1595916294,0.702781179089,0.706743660043,0.0604673500372,0.0543664684118,0.0458353726241,-0.355714252778,-0.0322435678963,-0.053531794101,-0.137353945514,-0.194773037006,-5.92505168915,-0.37673547864,0.359993904829,-0.0751757621765,-2.03550863266,-0.189125314355
2017/07/09/10:19:23.382308,514805,1499566766,189042822,,0.810498299385,0.222460289188,0.158466821228,0.703863459969,0.705704440698,0.0603242533881,0.0540227410737,0.0496994202431,-0.343914304317,-0.0445595753555,-0.0397085545468,-0.1430076755,-0.197269159772,-6.19909715652,-0.220159262419,0.222121745348,-0.208816722035,-2.1115500927,-0.246674433351
2017/07/09/10:19:23.392414,514806,1499566766,199035721,,0.811244747938,0.219707078598,0.158176672857,0.70401846631,0.705431577768,0.0608431813314,0.0549763173379,0.0548345525256,-0.329489921062,-0.035337415196,-0.0026961683087,-0.154557608402,-0.204050759033,-5.92570257187,-0.155283212662,0.052163425833,-0.193378925323,-2.01020669937,-0.205916970968
2017/07/09/10:19:23.402445,514807,1499566766,209042651,,0.812256785334,0.21623396737,0.15821532676,0.704987011305,0.704291745033,0.0619819375192,0.0558989373009,0.0381809150383,-0.337954436021,-0.0568672574519,0.0109667928817,-0.119486775484,-0.191977359416,-5.63726377487,0.303765207529,0.295962780714,-0.529442667961,-1.93100392818,-0.290041863918
2017/07/09/10:19:23.412315,514808,1499566766,219038403,,0.812771786453,0.212736324466,0.157906328236,0.705468514619,0.70371034134,0.0624234118128,0.0566502253299,0.0523376642057,-0.335896393337,-0.0629776807575,0.0111158057956,-0.151028420993,-0.184563989452,-5.71278715134,0.559524476528,0.0599827766418,-0.584209918976,-2.01066803932,-0.283245682716
2017/07/09/10:19:23.422339,514809,1499566766,229040602,,0.813675968165,0.210087566815,0.157431453916,0.705997148216,0.703055200253,0.0631471775112,0.0573920384709,0.0540804153051,-0.334195780951,-0.0534550953245,0.000747949694392,-0.151630233991,-0.193523648269,-7.32157564163,0.221177861094,0.397420674562,-0.383600175381,-2.61596488953,-0.235335156322
2017/07/09/10:19:23.432373,514810,1499566766,239048463,,0.813988562416,0.206511096861,0.156638105051,0.707571468237,0.701427382306,0.0632875874111,0.0577661316759,0.0463713509124,-0.316646249853,-0.0668509713546,0.000289302698501,-0.130255737262,-0.242315485577,-7.38040685654,-0.166374847293,0.226058021188,-0.310678094625,-2.65208959579,-0.219082757831
2017/07/09/10:19:23.442064,514811,1499566766,249037770,,0.813852652902,0.204550850654,0.15512666333,0.708607099342,0.700414142637,0.0634472184176,0.057187918577,0.0404455796066,-0.306909233665,-0.0706536439671,0.0363584256347,-0.1179800053,-0.317526449332,-7.49539709091,0.105791702867,-0.0540337115526,-0.280339509249,-2.64689540863,-0.221660137177
2017/07/09/10:19:23.452326,514812,1499566766,259041500,,0.813845247312,0.201155323128,0.154209841191,0.709713354754,0.699263714779,0.0634903651371,0.0574994331469,0.0354801703552,-0.303306717988,-0.0824280635394,0.0632187115327,-0.10317293116,-0.363382260589,-7.25622272491,0.13212236762,-0.430979073048,-0.348193705082,-2.56805801392,-0.217096179724
2017/07/09/10:19:23.462266,514813,1499566766,269042437,,0.814497849543,0.198414195656,0.153189564573,0.710555995506,0.698328633312,0.0640527491673,0.0578320194361,0.0271650095164,-0.297885126674,-0.0981304683613,0.0339363956155,-0.0776426534183,-0.307917584248,-6.18598365784,0.522974610329,-0.292205244303,-0.59763687849,-2.17824745178,-0.308071672916
2017/07/09/10:19:23.472365,514814,1499566766,279055028,,0.815076400575,0.195425148404,0.15288258594,0.711021457413,0.697755469355,0.0646625975592,0.0583484409465,0.0490344015502,-0.28762010985,-0.0876381445229,0.0280231073809,-0.120823552679,-0.236569836606,-6.26714277267,0.458515882492,-0.116271100938,-0.63940268755,-2.18204784393,-0.325296610594
2017/07/09/10:19:23.482384,514815,1499566766,289040892,,0.815544752898,0.193492074191,0.15200647847,0.710833944184,0.697881235964,0.065211750238,0.0585176205607,0.0372429139372,-0.302686139678,-0.102537098397,0.018580964574,-0.0860317672897,-0.146893955084,-6.65240192413,0.657514810562,-0.0812534168363,-0.564961016178,-2.34048485756,-0.284367591143
2017/07/09/10:19:23.492380,514816,1499566766,299055297,,0.816049933909,0.190362062979,0.150692873799,0.710544153001,0.69812290667,0.065349985888,0.0589982471121,0.0350497855675,-0.272804692211,-0.10493167732,0.0101684216827,-0.0800923799183,0.0175995378277,-7.01765346527,0.411466002464,0.112302049994,-0.552634477615,-2.52784824371,-0.299951910973
2017/07/09/10:19:23.502468,514817,1499566766,309041385,,0.815939140437,0.186925965421,0.149398539347,0.71115995644,0.697514436923,0.0652943735559,0.0588368202983,0.0402851707687,-0.302163525161,-0.101709124492,-0.0287642700212,-0.0909112239757,0.0302741042664,-7.83005571365,-0.00394929945469,-0.150742411613,-0.420112967491,-2.81228280067,-0.267055511475
2017/07/09/10:19:23.512282,514818,1499566766,319043025,,0.816024163696,0.183770226259,0.148165449677,0.711295075761,0.697367155189,0.0652434822201,0.0590055428719,0.0312370859516,-0.328834966737,-0.11307427698,-0.0432769644915,-0.0651444991334,-0.0320175402981,-8.74714279175,-0.06448751688,0.0578519105911,-0.323736608028,-3.13330936432,-0.260078847408
2017/07/09/10:19:23.522372,514819,1499566766,329048680,,0.816599913682,0.181497771517,0.147323614643,0.711202599636,0.697395094895,0.0655853769233,0.0594096138778,0.0302067720683,-0.294161143088,-0.113570180761,-0.000178739626219,-0.058363453887,-0.0423982016713,-8.5271282196,0.246547475457,0.355671554804,-0.281468987465,-3.03418183327,-0.231649920344
2017/07/09/10:19:23.532339,514820,1499566766,339036765,,0.816735874519,0.177503967256,0.146132378669,0.71179611149,0.696771534774,0.0653365038678,0.0598904438014,0.0393239229765,-0.302304631672,-0.106655774577,0.00867821576968,-0.0832318670535,-0.104272629803,-8.51958847046,-0.0505652278662,0.378215163946,-0.301875799894,-2.9640173912,-0.230367586017
2017/07/09/10:19:23.542342,514821,1499566766,349037013,,0.817311458711,0.175442315623,0.144629420299,0.712242789162,0.696276692123,0.0658655163618,0.0597554269275,0.0318230526774,-0.293607644716,-0.127282463427,0.00654723284002,-0.045587150033,-0.0872985609932,-7.67351150513,0.550803303719,-0.415078490973,-0.562045454979,-2.72485184669,-0.356984972954
2017/07/09/10:19:23.552457,514822,1499566766,359042482,,0.81706016478,0.173557384363,0.143122838267,0.712597276047,0.695967611296,0.0659936866921,0.0589833833707,0.0487645161476,-0.274992405086,-0.124909922784,0.0242142344441,-0.0681447802964,-0.1113586988,-7.10372972488,0.782390892506,-0.837221801281,-0.45206668973,-2.49535751343,-0.304673552513
2017/07/09/10:19:23.562044,514823,1499566766,369036023,,0.818553852376,0.170316166836,0.142845570435,0.712882727118,0.69548119254,0.0665485287558,0.060625254807,0.0438015908769,-0.276596743122,-0.137566624905,0.0403089838571,-0.0540658098772,-0.159978465086,-7.17650079727,0.254313826561,-0.304415106773,-0.215484380722,-2.53510046005,-0.243695110083
2017/07/09/10:19:23.572519,514824,1499566766,379051385,,0.818688895863,0.16796026229,0.141068225323,0.713669107277,0.694700948679,0.0668228055936,0.0600142472758,0.0437372018183,-0.304008636772,-0.144127238491,0.0315157175928,-0.048989186013,-0.196748183119,-7.2812371254,0.860136628151,-0.472732067108,-0.405576616526,-2.55540943146,-0.304910778999
2017/07/09/10:19:23.582260,514825,1499566766,389043249,,0.81873885064,0.164796168036,0.138892319551,0.714505456974,0.693895783475,0.0666728828079,0.0595425925483,0.0463480497738,-0.274179131511,-0.1463187359,0.0433347908172,-0.0420160250384,-0.163246901051,-7.99032592773,0.256827890873,-0.369015485048,-0.243558809161,-2.84190368652,-0.288107097149
2017/07/09/10:19:23.592233,514826,1499566766,399034818,,0.819429314737,0.162318298095,0.137897588505,0.714758767393,0.693574941945,0.0669960556396,0.059876814127,0.0414094491367,-0.270369024873,-0.150149332628,0.0452535211896,-0.0288416456197,-0.146416944308,-7.81249380112,0.507522881031,-0.114563979208,-0.409389257431,-2.82077336311,-0.331350296736
2017/07/09/10:19:23.602196,514827,1499566766,409035807,,0.82013187738,0.160949899532,0.137094829584,0.715175600754,0.69308766892,0.0677059155854,0.0597432194643,0.0503543144752,-0.249255210116,-0.143905066592,0.0753540767312,-0.032805660265,-0.120564948865,-7.60122585297,1.12669014931,0.491999477148,-0.626613140106,-2.73918652534,-0.37362486124
2017/07/09/10:19:23.612065,514828,1499566766,419035869,,0.82088066165,0.158031509856,0.135768750404,0.715515704397,0.692670767469,0.0681986761374,0.059945185191,0.0526411015912,-0.233995128551,-0.14590087931,0.0923816676861,-0.027717309304,-0.127958817254,-7.02239465714,0.888857185841,0.307398289442,-0.615362524986,-2.50356221199,-0.383363455534
2017/07/09/10:19:23.622335,514829,1499566766,429038600,,0.820799265262,0.155824778706,0.133465218543,0.71609251192,0.692169384524,0.0680873031865,0.0589675897914,0.0555350254295,-0.247885725098,-0.144082478379,0.102074042959,-0.0309576233634,-0.159624177308,-6.46237564087,0.613547444344,-0.787250697613,-0.498469173908,-2.32591676712,-0.319816172123
2017/07/09/10:19:23.632390,514830,1499566766,439042250,,0.821671537467,0.153270539074,0.132349060859,0.716139086569,0.692064541302,0.0683425143993,0.0593361617104,0.0508411835568,-0.26318410471,-0.145689513251,0.0815160710077,-0.0175640807294,-0.149386337498,-6.32691574097,0.62037974596,-0.795428037643,-0.492768406868,-2.24356842041,-0.332826912403
2017/07/09/10:19:23.642241,514831,1499566766,449036667,,0.821930356974,0.150981679721,0.130310815521,0.71684690166,0.691383334605,0.068380583513,0.0586830470419,0.0599192040073,-0.256915593527,-0.153958571139,0.0512911825302,-0.018827751102,-0.0874228665745,-5.09572887421,0.612960338593,-1.45659458637,-0.482202291489,-1.78620314598,-0.332382559776
2017/07/09/10:19:23.652169,514832,1499566766,459036158,,0.822637752,0.148352047285,0.129295502094,0.717562125416,0.690605641897,0.068760852726,0.0586548265817,0.0472962263585,-0.254195980381,-0.145806371521,0.0566558869898,0.00571339510393,-0.0961196245156,-5.05775117874,0.764029979706,-0.852323055267,-0.485249400139,-1.77502787113,-0.334633111954
2017/07/09/10:19:23.662142,514833,1499566766,469050237,,0.822959163397,0.146666590166,0.12796426614,0.718002921403,0.690161577926,0.0690270897068,0.0581726920362,0.0512871473182,-0.248209341197,-0.147127676775,0.0516085789708,0.00446111269203,-0.131205045561,-5.87392616272,0.718038201332,0.0012445282191,-0.393313765526,-2.01700496674,-0.320720493793
2017/07/09/10:19:23.672278,514834,1499566766,479044215,,0.823422206089,0.143565855924,0.126419933985,0.717916400873,0.690286595129,0.0685770892264,0.0582892852624,0.0565452857195,-0.241920276031,-0.142393440321,0.0591959881143,-0.00523886417691,-0.117844054493,-6.11244773865,0.609354317188,-0.00206543877721,-0.397793799639,-2.08399629593,-0.292511820793
2017/07/09/10:19:23.682249,514835,1499566766,489035358,,0.824320483621,0.141646235546,0.124912414394,0.717713709444,0.690467038547,0.0689201179934,0.0582436030124,0.0632167446499,-0.23275107067,-0.148594248905,0.0391801550913,-8.24055904925e-05,-0.0338669162722,-5.37532806396,0.683866560459,0.372358322144,-0.327484428883,-1.82052087784,-0.288023471832
2017/07/09/10:19:23.692260,514836,1499566766,499048290,,0.824504168816,0.13903605656,0.123711908141,0.718341257838,0.689844441818,0.0690154249015,0.0577698407976,0.0499660750261,-0.230590082146,-0.154431212408,0.0408638003498,0.0303529939936,-0.0446734374641,-5.10668563843,0.752870738506,-0.0212571546435,-0.473949968815,-1.71337246895,-0.33669924736
2017/07/09/10:19:23.702497,514837,1499566766,509035795,,0.825117907461,0.137105262771,0.122549617818,0.718338040742,0.68986053738,0.0689242458331,0.0577264802786,0.0482825844321,-0.244513732264,-0.152248365907,0.0439535248128,0.0460626561805,-0.0586942702934,-4.34217786789,0.965200901031,-0.117443725467,-0.547313332558,-1.45857894421,-0.377830207348
2017/07/09/10:19:23.712275,514838,1499566766,519043761,,0.826121537196,0.135140982687,0.1211034322,0.718452033237,0.689695586102,0.0694195676194,0.0576853367868,0.0667530212102,-0.219201832947,-0.134958080343,0.0482510029177,0.00280708241985,-0.00949459090206,-3.53094744682,0.581811189651,-0.870925486088,-0.453297257423,-1.13425731659,-0.330565690994
2017/07/09/10:19:23.722427,514839,1499566766,529036935,,0.826941956628,0.132990308988,0.119943536131,0.718513440897,0.689623384153,0.0694744649917,0.0577176055783,0.0797191509129,-0.240081479219,-0.143636277301,0.048109393861,-0.0200089839295,-0.0533844010991,-3.1489546299,0.710821151733,-0.432253360748,-0.389360755682,-1.0971518755,-0.285774677992
2017/07/09/10:19:23.732376,514840,1499566766,539043300,,0.826812801463,0.130781639461,0.117799995005,0.718477860643,0.689785182871,0.0689813662667,0.0568114105199,0.0664972964742,-0.246671463573,-0.163025193057,0.0506881145278,0.0162870967591,-0.060896678074,-3.4219584465,0.472337245941,-0.152315482497,-0.307943463326,-1.15543818474,-0.27733540535
2017/07/09/10:19:23.742255,514841,1499566766,549039488,,0.827618572061,0.127994529775,0.116339907623,0.719508209871,0.688683956295,0.069498894498,0.0564999817111,0.0745617285942,-0.231864890487,-0.146181493903,0.0670831759426,-0.00404712623337,-0.0415699819875,-3.65009403229,0.249283760786,-0.472851991653,-0.285770624876,-1.20653414726,-0.245386958122
2017/07/09/10:19:23.752508,514842,1499566766,559042985,,0.828960344321,0.126274292789,0.114993682205,0.719143950586,0.689010454796,0.0698930495376,0.0566703903702,0.0854834139924,-0.257004454602,-0.143415434764,0.0201412731564,-0.0261272926144,-0.0424470625217,-2.74580836296,0.520915925503,-0.478229612112,-0.385016620159,-0.956167399883,-0.287974953651
2017/07/09/10:19:23.762213,514843,1499566766,569044637,,0.830119064082,0.123213170522,0.113728443335,0.719209328463,0.688872809943,0.0699511234117,0.0574372170941,0.0921259432599,-0.237337437741,-0.149855910332,0.034313917509,-0.0300614839358,-0.0311021130712,-2.52357006073,0.312521457672,-0.418494343758,-0.356508255005,-0.933262109756,-0.270236760378
2017/07/09/10:19:23.772457,514844,1499566766,579042963,,0.831176831888,0.121210698183,0.112915537907,0.719193892996,0.688818325075,0.0704348087314,0.0576922615054,0.0780292584087,-0.253146261437,-0.154749171894,-0.0127270135482,-0.00127630277221,-0.0128982946429,-2.37963676453,0.60446703434,-0.537077724934,-0.466236650944,-0.859241604805,-0.335336983204
2017/07/09/10:19:23.782123,514845,1499566766,589037201,,0.831693615415,0.118984605583,0.110810744895,0.719432072391,0.688630594034,0.0701659746749,0.0572899133646,0.0936956838762,-0.248473758815,-0.141376636598,0.0122521961332,-0.0394572121745,-0.0463217544509,-2.17484474182,0.767112255096,-0.838327944279,-0.510437428951,-0.836353778839,-0.321210563183
2017/07/09/10:19:23.792358,514846,1499566766,599043467,,0.832495696495,0.116853037163,0.109448172513,0.71934503498,0.68872310003,0.070250606127,0.0571669876183,0.0997042678701,-0.260347291952,-0.137083427386,-0.0167546539643,-0.0536888329378,-0.0264599840382,-2.16457247734,0.865049481392,-0.256608456373,-0.579639434814,-0.787209749222,-0.349561989307
2017/07/09/10:19:23.802396,514847,1499566766,609042768,,0.833975130113,0.114730718853,0.109058801939,0.718831944427,0.689124213188,0.0707616017307,0.0581485183782,0.0941245291985,-0.271125721681,-0.139560250171,-0.0318792233586,-0.0442355143068,-0.0229304810533,-1.15443837643,1.24749612808,0.287816315889,-0.630825698376,-0.434486836195,-0.365346074104
2017/07/09/10:19:23.812031,514848,1499566766,619042433,,0.834739349726,0.111668830875,0.107329627503,0.719108857787,0.68883765067,0.0705087025405,0.0584265739062,0.094723341118,-0.263248367212,-0.133425559074,-0.0292916010455,-0.0445495710493,-0.0180350311925,-1.61336636543,0.868372619152,-0.412183791399,-0.56915718317,-0.603365302086,-0.35053050518
2017/07/09/10:19:23.822261,514849,1499566766,629048098,,0.834887616316,0.108783181029,0.105451006902,0.719398342986,0.688616809365,0.0701253533894,0.0579253725101,0.0884336603624,-0.265844106435,-0.147787734604,-0.0297073139608,-0.031419156524,-0.019100233021,-1.50849556923,0.566651642323,-0.982613563538,-0.561165094376,-0.5855448246,-0.347377300262
2017/07/09/10:19:23.832227,514850,1499566766,639044871,,0.835757998482,0.105661656614,0.103776309724,0.71957552026,0.688401727577,0.0700941130081,0.0583176425528,0.0806606322289,-0.232452714907,-0.156945222949,-0.00850009226919,-0.00625112845687,0.0313145573938,-1.32821190357,0.00132656097412,-1.04524886608,-0.314298689365,-0.600557863712,-0.224050715566
2017/07/09/10:19:23.842592,514851,1499566766,649038868,,0.836744675965,0.103242856643,0.102796718221,0.719982181763,0.687936487519,0.0702555001047,0.0585936155968,0.0797754813439,-0.252962330111,-0.153330149221,-0.021610742982,-0.0173634233791,-0.00783942861836,0.151694267988,0.375303268433,-0.246490687132,-0.406597673893,-0.080050855875,-0.283352553844
2017/07/09/10:19:23.852433,514852,1499566766,659037455,,0.837767204978,0.101633512254,0.101597721123,0.719504386122,0.688400763177,0.070531930773,0.0586777159601,0.0791218820478,-0.243559515532,-0.147578214196,-0.00201598708513,-0.0137677616162,-0.00490184337175,1.37661409378,0.770631432533,-0.539737701416,-0.546215474606,0.341773360968,-0.331470310688
2017/07/09/10:19:23.862295,514853,1499566766,669035879,,0.837759558454,0.0993406087789,0.099474370288,0.719553518242,0.688469789813,0.0699660279952,0.0579382242373,0.0801213176982,-0.252058886555,-0.142214947012,-0.0291244867624,-0.0132876301706,0.000375921202952,1.03673231602,0.089602664113,-0.856285393238,-0.362633705139,0.132154747844,-0.274357944727
2017/07/09/10:19:23.872273,514854,1499566766,679041975,,0.839363060063,0.0967184097378,0.0985170140524,0.719618798933,0.688250679552,0.0705750893256,0.0589825659382,0.0776779272254,-0.236555038653,-0.146096613379,-0.0289562869643,-0.00732832333232,0.0433620164037,0.933325052261,0.168355703354,-1.28832781315,-0.282005786896,-0.00377297401428,-0.229091316462
2017/07/09/10:19:23.886056,514855,1499566766,689047721,,0.839454163458,0.0946360701309,0.0965642616362,0.719416032203,0.688550242535,0.0700572842663,0.0585757034554,0.0870136642408,-0.264828569992,-0.126186969175,-0.0484103097737,-0.0505903920537,-0.0119224851917,0.633178532124,0.0426031500101,-1.62126326561,-0.275529980659,-0.0852172002196,-0.205740720034
2017/07/09/10:19:23.892111,514856,1499566766,699035975,,0.840623160437,0.0919914405415,0.0956433700242,0.719543585641,0.688342552721,0.0702697166414,0.0591922748376,0.0998569350031,-0.263078427041,-0.128545474851,-0.0336632327336,-0.0859779382668,-0.0118696849235,1.71898710728,0.0271570235491,-1.36110305786,-0.262196242809,0.370745927095,-0.220769792795
2017/07/09/10:19:23.902468,514857,1499566766,709041891,,0.841773974576,0.0897975072192,0.0943624427372,0.719272772836,0.688547241769,0.0703968966879,0.0599470687037,0.085706952853,-0.258975375187,-0.141960025449,-0.0258260547784,-0.0641814554157,-0.00948887416166,2.51010036469,0.0530738830566,-1.56902801991,-0.162370458245,0.607870876789,-0.168067917228
2017/07/09/10:19:23.912435,514858,1499566766,719042864,,0.843147406808,0.0881462474258,0.0935050371855,0.718869265016,0.688828178665,0.0713612229216,0.0604176791732,0.096171175129,-0.233299482463,-0.139772166783,-0.0100118373153,-0.0867588641065,0.0123549933537,3.36538863182,-0.157779037952,-1.06484246254,-0.203232109547,1.01424813271,-0.194930583239
2017/07/09/10:19:23.922447,514859,1499566766,729043633,,0.843620910488,0.0856954503076,0.0919138150482,0.718915874584,0.688801916976,0.0712690134115,0.0602711553684,0.0910244937617,-0.226163136355,-0.144795990952,-0.0139449711175,-0.0782918398426,0.039334843636,4.54339742661,-0.233295753598,-1.10589635372,-0.167938783765,1.45808088779,-0.186364606023
2017/07/09/10:19:23.932248,514860,1499566766,739049193,,0.844406412225,0.0831634371343,0.0909977430247,0.718929729891,0.688729630033,0.0712996926472,0.0608924791839,0.0782128295848,-0.273044235821,-0.128865671178,-0.0510277123851,-0.069534059761,-0.0292849659196,2.75197553635,-0.48186981678,-1.09117186069,-0.0841999202967,0.863566279411,-0.148240849376
2017/07/09/10:19:23.942488,514861,1499566766,749044160,,0.845200229066,0.0804301677967,0.0899675849446,0.718766066444,0.688836596081,0.0714511290936,0.0614346952449,0.0947936124207,-0.270900871332,-0.112762643953,-0.0678552890895,-0.117519578487,-0.0125069681017,1.87128460407,-0.418764978647,-0.640032112598,-0.117722779512,0.614233016968,-0.173045665026
2017/07/09/10:19:23.952433,514862,1499566766,759045308,,0.846007344396,0.0782051223009,0.0883267815738,0.718462603572,0.689102689545,0.0714479653115,0.0620012805002,0.0832464812254,-0.255790052621,-0.121468408689,-0.06393244428,-0.0947205899111,0.0275948251826,2.05828690529,-0.0179909169674,-0.593402206898,0.0162305384874,0.659192919731,-0.099111661315
2017/07/09/10:19:23.962383,514863,1499566766,769040682,,0.846479176948,0.0765681023784,0.0866550514266,0.718466969234,0.689107271814,0.0715245653691,0.0618111527258,0.0752498625978,-0.235529254592,-0.138569273591,-0.0376913965045,-0.0719895441489,0.0374801004792,2.95303273201,-0.317107498646,-1.14993476868,0.000526376068592,1.15358436108,-0.183175593615
2017/07/09/10:19:23.972327,514864,1499566766,779036286,,0.847493368284,0.073838067114,0.0856539513247,0.718148837186,0.689344653912,0.0719114008665,0.0624095040503,0.0521014377913,-0.224255721114,-0.148626696968,-0.0446813552039,-0.0220462409574,0.0801800391168,4.33008432388,1.17969083786,-0.0217466112226,-0.121013060212,1.7351282835,-0.174846112728
2017/07/09/10:19:23.982263,514865,1499566766,789036152,,0.847690642035,0.0722114819868,0.0840712694615,0.718359539679,0.689152410557,0.0720988637224,0.0618892609825,0.075173358229,-0.238719024341,-0.122196694497,-0.0600918405681,-0.0808044615813,0.0708148903504,4.09510755539,1.35590851307,0.112509921193,-0.29339325428,1.65584361553,-0.269898086786
2017/07/09/10:19:23.992337,514866,1499566766,799036195,,0.848289631366,0.0696520811281,0.0834027158228,0.717462729357,0.690031063618,0.0716571923474,0.0630048411751,0.0568915213508,-0.244836968918,-0.127159455648,-0.0394476212324,-0.0500008669696,0.0472602277781,4.33401489258,1.04143917561,-0.08926422894,-0.254841983318,1.73709702492,-0.236974522471
2017/07/09/10:19:24.002412,514867,1499566766,809081753,,0.847918995174,0.0669882934978,0.0816079301472,0.717872310246,0.68970120583,0.0710563573664,0.062630559128,0.0455885781885,-0.262992974912,-0.115788773742,-0.0715820488103,-0.0424514938754,0.0297117130859,3.55435419083,0.594778358936,-0.265921235085,-0.244557842612,1.42963409424,-0.223350480199
2017/07/09/10:19:24.012209,514868,1499566766,819035628,,0.849586298432,0.0642434499889,0.0812459769336,0.717246151892,0.690159418736,0.0714917383583,0.0642406854862,0.0461459053672,-0.271187591019,-0.115987271115,-0.0988891635593,-0.0398672300778,0.0280230485142,3.4354929924,0.725520730019,-0.840744674206,-0.460903167725,1.37242293358,-0.322584629059
2017/07/09/10:19:24.022291,514869,1499566766,829042641,,0.849652011422,0.0618950378587,0.079984466694,0.716973206314,0.690452030954,0.0712574674658,0.0644033206507,0.0575616513005,-0.265777809935,-0.104699862371,-0.126034473462,-0.0670368416577,0.0692791140927,4.66383743286,0.406070709229,-0.952966570854,-0.420826941729,1.86440062523,-0.293547153473
2017/07/09/10:19:24.032255,514870,1499566766,839043192,,0.849480745441,0.0587898203519,0.0780069838105,0.716725137721,0.690777037252,0.0704323840619,0.0645866939727,0.0418801780585,-0.258677634837,-0.125122324446,-0.13510202508,-0.03585386611,0.12438885235,5.22492647171,0.254224330187,-0.960836708546,-0.230590358377,2.03709363937,-0.229704067111
2017/07/09/10:19:24.042300,514871,1499566766,849036690,,0.85066100344,0.0563549076116,0.0782852578694,0.71637224694,0.690989072408,0.0707747965012,0.0658470485764,0.0368456570129,-0.290096987108,-0.100087520855,-0.162265021691,-0.0517345046386,0.0867063054799,5.10565662384,0.261126995087,-0.837037086487,-0.168711155653,1.95113694668,-0.209624558687
2017/07/09/10:19:24.052315,514872,1499566766,859034896,,0.849722633524,0.0535477727087,0.0765157071409,0.715926877581,0.691609800381,0.0693498870993,0.0656900535401,0.0303018544721,-0.258593952324,-0.0984776325031,-0.144947823168,-0.021103330005,0.115443100586,3.33650588989,-0.257171660662,-0.611144244671,0.21704852581,1.23385059834,-0.132217779756
2017/07/09/10:19:24.062409,514873,1499566766,869036379,,0.850741850729,0.0516318279648,0.0757321914811,0.715323914613,0.692100939793,0.0697989071236,0.0666040455577,0.0246388152451,-0.272665294401,-0.107415501509,-0.149504115371,-0.0243427389376,0.0859324598136,2.09579920769,-1.52297234535,-0.508500754833,0.920956075191,0.7566639781,0.0839183628559
2017/07/09/10:19:24.072311,514874,1499566766,879036461,,0.850560381375,0.0488541987615,0.0746111579203,0.714863830689,0.692602840504,0.0693120163626,0.0668345216701,0.0254732277458,-0.293638388547,-0.108951324132,-0.156789517126,-0.0482112648447,0.088478396732,2.03244256973,-2.53428268433,-0.516758978367,1.40125870705,0.775862216949,0.215087413788
2017/07/09/10:19:24.082404,514875,1499566766,889042025,,0.850797958808,0.0462920879168,0.0734212645849,0.714686109077,0.692759596618,0.0691299305331,0.0672975444637,0.0225199444331,-0.287754493199,-0.10456597954,-0.144213330885,-0.0564826734233,0.121069860664,1.8845205307,-2.46331548691,-0.407540857792,1.41942965984,0.790620326996,0.239785596728
2017/07/09/10:19:24.092589,514876,1499566766,899035440,,0.851159049891,0.0447062676184,0.0723017836984,0.713744675425,0.693706606495,0.0692326290058,0.0674279281096,0.0232544531755,-0.27251496249,-0.109320688706,-0.114001309555,-0.0612197795785,0.123703637166,2.91429710388,-1.60052406788,-0.580668151379,0.721720457077,1.27374053001,0.0551805347204
2017/07/09/10:19:24.102467,514877,1499566766,909037835,,0.851503185685,0.041431287175,0.0718166246774,0.713484310997,0.693875135586,0.0691916086108,0.0684832495917,0.0229340298529,-0.262493493622,-0.105593440407,-0.107371594937,-0.0586510803724,0.112343815038,3.61186289787,-0.563736200333,-0.664441525936,0.125843137503,1.61517214775,-0.116385430098
2017/07/09/10:19:24.112469,514878,1499566766,919043397,,0.851120262706,0.0387142907491,0.0706055664658,0.7131176443,0.694314981918,0.0684578585371,0.0685817240718,0.0155052292745,-0.220516800063,-0.104880887172,-0.0799714547058,-0.0248570125576,0.142119833847,4.12063503265,0.00860519707203,-0.709036588669,-0.20971518755,1.8034709692,-0.214165955782
2017/07/09/10:19:24.122322,514879,1499566766,929038281,,0.85128482562,0.0373969329746,0.0697986393013,0.712325386791,0.695114132795,0.0684915346717,0.0686862096784,-0.0137373043392,-0.262474133684,-0.103229349076,-0.105393458503,0.0170905587296,0.115419972315,4.29110050201,0.262789964676,-0.614306747913,-0.410875797272,1.83062624931,-0.300944983959
2017/07/09/10:19:24.132183,514880,1499566766,939039010,,0.850921501824,0.0334486401049,0.0688230978532,0.712342330212,0.695101875451,0.0677051918368,0.0694103330271,-0.0326053531929,-0.25757166415,-0.116156621785,-0.124914017252,0.0584749281601,0.182408892601,4.24218416214,0.0591016858816,-0.552275717258,-0.172970443964,1.75021243095,-0.27199536562
2017/07/09/10:19:24.142154,514881,1499566766,949043435,,0.850682013273,0.0310940377564,0.0676663198307,0.711318794239,0.696184170807,0.0669049171705,0.0698348432967,-0.043302601903,-0.281262772757,-0.114465360992,-0.151999542896,0.0703432254966,0.161055701761,3.02325749397,-0.183724537492,-0.43777680397,0.100287310779,1.2011731863,-0.16543340683
2017/07/09/10:19:24.152313,514882,1499566766,959042857,,0.850190338098,0.0289635970074,0.0664866907483,0.71091541553,0.696645369531,0.0664445923047,0.0697826427214,-0.0376107948271,-0.252718573557,-0.110004437989,-0.12243503859,0.0629662204841,0.187485054497,2.84249472618,-0.522984087467,-0.382955759764,0.295697659254,1.08715963364,-0.112509459257
2017/07/09/10:19:24.162278,514883,1499566766,969034503,,0.849274634433,0.025819407641,0.0654696573225,0.710974907565,0.696644046638,0.0662108089548,0.0694109636456,-0.0299697246602,-0.267206566769,-0.102073933088,-0.100072120518,0.0189600775211,0.122451802781,3.00089979172,-0.719590187073,-0.315089255571,0.343097776175,1.17210102081,-0.0584552362561
2017/07/09/10:19:24.172400,514884,1499566766,979042850,,0.849348613826,0.0241649387391,0.0640940207167,0.710360432384,0.697265944874,0.0660549559037,0.0696060415734,-0.0410439678845,-0.254675074401,-0.11139024907,-0.0526885584372,0.0339629709552,0.0948457056674,3.20464801788,-0.47086006403,-0.375834584236,0.185259416699,1.25747025013,-0.0881838276982
2017/07/09/10:19:24.182333,514885,1499566766,989038138,,0.849179270946,0.0228021305403,0.0632481652649,0.70995999536,0.697682371888,0.0661237976013,0.0694532672803,-0.034502813379,-0.259085323316,-0.103468305135,-0.0647082029032,0.0112202660201,0.0606745442015,3.48391079903,-0.322785168886,-0.53896021843,-0.014238383621,1.43979763985,-0.138969913125
2017/07/09/10:19:24.192053,514886,1499566766,999051424,,0.848420881684,0.0206029477287,0.0619111790279,0.710120006508,0.697588898711,0.0657522181,0.0691082525303,-0.030697466331,-0.240448144864,-0.101521526453,-0.0371751910113,0.00518289452089,0.0253422787913,3.90395236015,-0.144899189472,-0.514098227024,-0.115415528417,1.63732850552,-0.184971809387
2017/07/09/10:19:24.202288,514887,1499566767,9035209,,0.848703185885,0.0183686972031,0.0615138523709,0.709983815308,0.697646075515,0.0660223411142,0.0696705518311,-0.0343032938295,-0.230330245497,-0.110315695236,-0.0135229710184,0.0115172462661,-0.000859051652674,3.22957777977,-0.233941540122,-0.336679905653,-0.0614740103483,1.42379117012,-0.127309024334
2017/07/09/10:19:24.212458,514888,1499566767,19043001,,0.847992163739,0.0156172627793,0.0601623280541,0.710196086032,0.697479219844,0.0657231094718,0.0694602775083,-0.0274955106264,-0.218157248048,-0.110112086895,-0.0094556643865,-0.00217704183139,0.0229145314485,3.20718622208,-0.517031133175,-0.00370906572789,0.129624068737,1.49154651165,-0.0812509730458
2017/07/09/10:19:24.222429,514889,1499566767,29042772,,0.84745449366,0.0129832766682,0.0592191735393,0.709404983009,0.698300761585,0.0649341474321,0.0700298004351,-0.0443511430699,-0.233010865857,-0.107341525984,-0.0310326048283,0.0166457324883,0.0446924240786,2.89509892464,-0.628399372101,0.183694437146,0.219195589423,1.39379179478,-0.0802406072617
2017/07/09/10:19:24.232217,514890,1499566767,39046211,,0.847031014987,0.0108825487572,0.058121152356,0.709330495288,0.698378391035,0.0651502825867,0.0698091116471,-0.062934652833,-0.225053450871,-0.104789138337,-0.0431565840924,0.0601322470862,0.109121302429,2.43008875847,-0.672251164913,0.35792529583,0.252332568169,1.23665571213,-0.0554252751172
2017/07/09/10:19:24.242502,514891,1499566767,49042357,,0.846150818528,0.00838420916993,0.0573891538158,0.708699113823,0.699077672888,0.064519304083,0.0698085434366,-0.0684261408531,-0.208427768139,-0.11758175544,-0.0276556800888,0.0754381157931,0.143342783427,3.20856976509,-0.546597719193,0.220699027181,0.189449042082,1.53711771965,-0.100011870265
2017/07/09/10:19:24.252232,514892,1499566767,59044317,,0.845281399143,0.00684728640051,0.0557850872599,0.70827579757,0.699614364889,0.0641263513771,0.0690865115424,-0.0801491117278,-0.218043383368,-0.114898915929,-0.0188790703601,0.086300303414,0.155258407463,2.7432615757,-0.516350507736,0.198196023703,0.149999171495,1.35413193703,-0.0858173519373
2017/07/09/10:19:24.262362,514893,1499566767,69035077,,0.844897649302,0.00435105587133,0.0550136395061,0.708102896735,0.699766375446,0.0640245741924,0.0694129766753,-0.0622246089309,-0.184231599103,-0.111259121584,-0.0268741626137,0.0656803706379,0.185341344376,2.81809592247,-0.463257282972,0.132094502449,0.130869984627,1.42127907276,-0.0966231077909
2017/07/09/10:19:24.272360,514894,1499566767,79043213,,0.844132315589,0.00387141384149,0.0536049309729,0.707604942582,0.700346192215,0.0644845598888,0.0682070217765,-0.0513467944915,-0.193235379287,-0.0966400200885,-0.0147168887342,0.0206596375734,0.126658241742,2.53115272522,-0.133570700884,0.364426881075,0.0023512840271,1.39261519909,-0.127371490002
2017/07/09/10:19:24.282371,514895,1499566767,89035960,,0.843828789486,0.00128307618401,0.0529691228839,0.707100564086,0.700821753327,0.0640177337333,0.0689883475743,-0.060364103682,-0.19083043494,-0.1027192548,0.00432858875972,0.027480798977,0.113745913386,2.27320981026,-0.299693435431,0.226968541741,0.0751735121012,1.29212486744,-0.0963412076235
2017/07/09/10:19:24.292306,514896,1499566767,99043153,,0.843243185548,-2.91300907527e-05,0.0519203314266,0.706294886641,0.701660709016,0.0642172582864,0.0685268288034,-0.0716393597155,-0.210904836948,-0.115270135025,-0.0184716525727,0.0379994549535,0.143649154265,2.44571471214,-0.353783428669,0.178211644292,0.0655109584332,1.38338685036,-0.166853129864
2017/07/09/10:19:24.302346,514897,1499566767,109035039,,0.842026880516,-0.00289075290573,0.0504342202008,0.706253262394,0.701776798022,0.0635172346906,0.0684194125413,-0.0750994399851,-0.201139444557,-0.118856940062,-0.0251667791588,0.0486500559644,0.161197125462,2.4741897583,-0.568863093853,0.215141743422,0.203265815973,1.43099546432,-0.0950408875942
2017/07/09/10:19:24.312291,514898,1499566767,119035235,,0.841781425801,-0.00358658872986,0.0490792044455,0.705876800962,0.702143031562,0.0641267177388,0.0679769752621,-0.0647038580219,-0.202569948676,-0.122260123808,-0.00865501327524,0.016456972596,0.116397956422,2.58596467972,-0.65420114994,0.188288107514,0.18778423965,1.46430540085,-0.125772982836
2017/07/09/10:19:24.322279,514899,1499566767,129034891,,0.841256176302,-0.00614307207041,0.0485905868252,0.705400338009,0.702605469393,0.06366682355,0.068574434706,-0.0804324191427,-0.208242587095,-0.121887119896,-0.00648881950812,0.0398429306658,0.0527144645275,2.12513303757,-0.705060720444,0.441275417805,0.316516280174,1.22973823547,-0.0274173244834
2017/07/09/10:19:24.332330,514900,1499566767,139042062,,0.840624693601,-0.00846444524429,0.047178596517,0.705790942802,0.702178687271,0.0638490536804,0.0687570690583,-0.0605500874308,-0.203884865831,-0.114422381303,-0.0168329367037,-0.0160846009883,0.0538922296436,1.19098436832,-0.356041431427,0.541590452194,0.15813536942,0.888659596443,-0.0765088275075
2017/07/09/10:19:24.342264,514901,1499566767,149044909,,0.841016420936,-0.0096925532412,0.0465751472503,0.705183002509,0.702676282714,0.0642528164681,0.0695309302375,-0.0301734103334,-0.196281904106,-0.106391429347,-0.0207124263899,-0.0886469530112,0.0237573253963,2.32519030571,-0.389685153961,0.584622263908,0.0412246137857,1.37606096268,-0.144251063466
2017/07/09/10:19:24.352469,514902,1499566767,159036727,,0.840326492071,-0.011260857588,0.0448139006211,0.705246163748,0.702579172769,0.0648268556421,0.0693385412197,-0.0357717760734,-0.199159800257,-0.121503476236,-0.0282887969452,-0.0825952551568,0.0205484943927,2.61253762245,-0.684072196484,0.641560614109,0.214090391994,1.42062735558,-0.0551676377654
2017/07/09/10:19:24.362290,514903,1499566767,169039226,,0.83970364174,-0.0139282092192,0.0433579950137,0.705865456526,0.701919839917,0.0647769649769,0.0697598768771,-0.0302158830923,-0.197629231922,-0.112937510261,-0.0321683330491,-0.0979892208344,0.00210813134161,3.41785335541,-0.931550443172,0.569121420383,0.292491883039,1.67457234859,-0.0628356784582
2017/07/09/10:19:24.372358,514904,1499566767,179048687,,0.839710466766,-0.0165156879497,0.0426697026179,0.706297388624,0.701339558554,0.0651834762831,0.0708373972576,-0.0203756848111,-0.182491447908,-0.110682435188,-0.019455261304,-0.112978344753,-0.0575854223835,4.16680049896,-1.2855181694,0.42286324501,0.421954214573,1.88438689709,-0.0302988812327
2017/07/09/10:19:24.382249,514905,1499566767,189039112,,0.839994726548,-0.0171856783008,0.041801920674,0.70659762141,0.700928778804,0.0660552016496,0.0711010463862,-0.00735674919758,-0.187858366516,-0.106736627737,-0.0073211641945,-0.152675739024,-0.133699856251,4.28264856339,-1.41947197914,0.307686328888,0.497250288725,1.81829333305,0.0053773149848
2017/07/09/10:19:24.392177,514906,1499566767,199035095,,0.839787992951,-0.0191049608772,0.0406825240172,0.707075996271,0.700376332195,0.0660252070688,0.0718136535003,-0.00567487673494,-0.187311288897,-0.103728686816,0.000739881125472,-0.161903358051,-0.159796721672,4.8378944397,-1.47733402252,0.350799262524,0.339045464993,2.09296631813,-0.0884357616305
2017/07/09/10:19:24.402220,514907,1499566767,209044501,,0.840278056179,-0.0206323164171,0.0403386198264,0.70729683966,0.699958013668,0.0671887662581,0.0726335280575,-0.00303148536715,-0.17355579356,-0.114814820431,0.00494748068368,-0.154522974848,-0.148496437691,5.09819602966,-1.58683109283,0.267209768295,0.418863683939,2.14081335068,-0.0512744262815
2017/07/09/10:19:24.412292,514908,1499566767,219039235,,0.839992408216,-0.0225314834334,0.0392103233212,0.708011351227,0.699175288019,0.0674940145741,0.0729273690314,-0.00969363361149,-0.18764382693,-0.111792116699,0.0214791273028,-0.157217893914,-0.179011521121,5.28576469421,-1.67040681839,0.146848455071,0.392599344254,2.24032998085,-0.0446260496974
2017/07/09/10:19:24.422303,514909,1499566767,229035900,,0.840062084151,-0.0249301579876,0.0382664679386,0.708262344947,0.698771448906,0.0677943099926,0.0740732371101,0.00329172082884,-0.206925418871,-0.0895366331884,0.0114545362628,-0.203539320306,-0.179038976793,5.3516998291,-2.07276463509,0.205998837948,0.62208455801,2.28863787651,0.0169786140323
2017/07/09/10:19:24.432304,514910,1499566767,239036011,,0.840529925969,-0.0256779322784,0.0370313833783,0.708695465718,0.69816338161,0.0691471070916,0.0744130837258,0.0040033446639,-0.18183392841,-0.100362940275,-0.000211470355898,-0.184701444718,-0.109126597577,5.77223873138,-1.90161001682,0.0677378103137,0.488743692636,2.49274277687,-0.025618262589
2017/07/09/10:19:24.447120,514911,1499566767,249037074,,0.840301255075,-0.0270007077069,0.0363189719487,0.708389999913,0.698420660054,0.0690498348576,0.0749953994504,0.01631864791,-0.174398540611,-0.10107694412,-0.00877417684274,-0.201296636287,-0.0947564162977,6.06614780426,-2.10941386223,0.0502572804689,0.57559633255,2.64629149437,-0.00130404531956
2017/07/09/10:19:24.452448,514912,1499566767,259039591,,0.840093337272,-0.0299794833504,0.0347684322624,0.708769494254,0.697891094945,0.0694650212624,0.0759502102197,0.01058783294,-0.194936753599,-0.0934752476608,-0.0759881298897,-0.192596071988,-0.0481882182687,4.90176439285,-1.95110082626,0.221957907081,0.656335234642,2.17496991158,0.0412760898471
2017/07/09/10:19:24.462412,514913,1499566767,269039434,,0.840460766247,-0.0315208737546,0.0344493959138,0.708642393244,0.697843013257,0.0701197180224,0.0769695556038,0.0207257104353,-0.178216694154,-0.086446984955,-0.0720931314661,-0.199691299828,-0.00724212381274,4.38034296036,-1.7013708353,0.376985430717,0.528807520866,2.00507497787,0.0247508883476
2017/07/09/10:19:24.472300,514914,1499566767,279040369,,0.840776804642,-0.032963277761,0.0336344990308,0.708097699585,0.698238322253,0.0706079591838,0.0779449118272,0.0108143818867,-0.202671363183,-0.0847927775102,-0.0586642814079,-0.20841841833,-0.0116160224011,4.02740001678,-1.35099256039,0.568311274052,0.396945893764,1.89367282391,-0.000342100858688
2017/07/09/10:19:24.482169,514915,1499566767,289035941,,0.840762975303,-0.0351270252466,0.0324066578032,0.707908949198,0.698302605927,0.070672244945,0.0790178713692,0.00647273187076,-0.184762489525,-0.0985644618219,-0.077915518056,-0.18408052032,0.0656986883566,3.5073363781,-1.08475518227,0.755814671516,0.275964796543,1.70667278767,-0.0706329196692
2017/07/09/10:19:24.492384,514916,1499566767,299042551,,0.841092275034,-0.036011810135,0.0318296873235,0.707741085716,0.698332956239,0.0713715892609,0.0796224469992,0.00924157320388,-0.159169241202,-0.103327202983,-0.0705375042606,-0.171101168046,0.0828807036739,3.62671327591,-1.23081874847,0.86611944437,0.351562559605,1.74517405033,-0.00835651159286
2017/07/09/10:19:24.502379,514917,1499566767,309042035,,0.840727500232,-0.0391239445862,0.0308854604742,0.707991895826,0.697925909097,0.0715238988857,0.0808160426156,0.0234950781695,-0.17157957992,-0.0856287583997,-0.0715140318323,-0.218408648045,-0.000251916531771,3.62062764168,-1.23434042931,1.02374362946,0.318997472525,1.75792789459,-0.0387299358845
2017/07/09/10:19:24.512439,514918,1499566767,319042361,,0.841593292969,-0.0393759452716,0.0303785451394,0.707990675706,0.697721223506,0.0726295350143,0.081604215746,0.016358442149,-0.157240130731,-0.0913017355942,-0.0319789332609,-0.201999046861,-0.0687359423618,4.2822804451,-1.484582901,0.910523891449,0.421445608139,1.98701381683,0.00051935762167
2017/07/09/10:19:24.522341,514919,1499566767,329035609,,0.841643262941,-0.0405027608187,0.0289101553607,0.708326692933,0.697274350328,0.0732383772534,0.0819628974023,0.0251787063495,-0.165379327921,-0.089395246571,-0.0267983908329,-0.228205300293,-0.119854933805,4.63290834427,-1.62324643135,0.797773122787,0.487302958965,2.07868862152,0.00586228072643
2017/07/09/10:19:24.532388,514920,1499566767,339041389,,0.841743055937,-0.0432376042491,0.0284419609069,0.709122835848,0.69626823366,0.0735697283809,0.0833237393596,0.0315559387557,-0.143946998588,-0.0809261701086,-0.0229513410119,-0.218842580958,-0.1208012947,4.30999755859,-1.62257575989,0.627147495747,0.448726534843,1.9353325367,-0.0151356682181
2017/07/09/10:19:24.542779,514921,1499566767,349042137,,0.842030091476,-0.04482612536,0.0280205506973,0.709478463366,0.695745001424,0.0738271261379,0.0844319753448,0.0191935387754,-0.147007954249,-0.0916504932985,-0.0385835191508,-0.182229408567,-0.109276681539,5.2615981102,-1.94023942947,0.306244552135,0.595917463303,2.24684691429,0.0391744300723
2017/07/09/10:19:24.552332,514922,1499566767,359036269,,0.842106472968,-0.0451269850117,0.0268371978706,0.708984881853,0.696151076098,0.0747756444,0.0843962058155,0.0202117300767,-0.154283295737,-0.0914691584149,-0.0257392948013,-0.202597739793,-0.0827402146913,4.86620807648,-1.91179859638,0.361399352551,0.574529051781,2.10978841782,0.0102593079209
2017/07/09/10:19:24.562430,514923,1499566767,369036176,,0.841986300676,-0.0475004559919,0.0259210403611,0.709189834674,0.695802474905,0.0748043009955,0.0855161438784,0.0167025738758,-0.16175155261,-0.0826017984809,-0.0630136639367,-0.194920602457,-0.0073885147114,4.53708934784,-1.66223287582,0.475063174963,0.517280578613,1.9572327137,-0.0410373806953
2017/07/09/10:19:24.572126,514924,1499566767,379041398,,0.84220771183,-0.0488744128946,0.0250225725879,0.70921715904,0.695612880853,0.0755450701273,0.0861782089269,-0.0016532218755,-0.177419694518,-0.088683658283,-0.066137068983,-0.166231980228,-0.0543234676622,5.01649665833,-1.6755797863,0.469630002975,0.42001080513,2.21575379372,-0.130312383175
2017/07/09/10:19:24.582364,514925,1499566767,389044844,,0.84234703919,-0.0496639482279,0.0237284773743,0.709999372219,0.694703991768,0.0760908602229,0.0865877373638,0.00785096303002,-0.170888106342,-0.08361065004,-0.0316535530753,-0.188095712362,-0.16820737533,4.9130358696,-1.87052047253,0.676363229752,0.685733735561,2.17130374908,0.0126488208771
2017/07/09/10:19:24.592468,514926,1499566767,399048367,,0.842501332759,-0.0512293199269,0.0230809071017,0.710570297782,0.693968157285,0.07646154746,0.0874738837811,0.0102495868912,-0.106905707116,-0.101366415561,0.0232164828005,-0.153430153314,-0.16568711182,5.63054561615,-2.03153347969,0.400101304054,0.729632258415,2.4194278717,0.0234647989273
2017/07/09/10:19:24.602452,514927,1499566767,409045619,,0.842399054525,-0.0518196106972,0.0222220410857,0.710766332553,0.693730366025,0.0765421901487,0.0876965956681,0.00312871902526,-0.129027463391,-0.095594268122,0.00938001336551,-0.14332364689,-0.173796588687,5.02091121674,-2.03226161003,0.232438862324,0.700574040413,2.12334275246,0.0173198133707
2017/07/09/10:19:24.612305,514928,1499566767,419036264,,0.842827021285,-0.0531627108945,0.0220769611078,0.711405202514,0.692888951792,0.0774401488542,0.0883773820975,0.000917459759163,-0.136115628862,-0.0890607647846,-0.0218042441123,-0.123257246373,-0.138016780859,4.66339731216,-1.82488310337,0.179263755679,0.590585231781,1.93840515614,0.01120865345
2017/07/09/10:19:24.622282,514929,1499566767,429036964,,0.842628405759,-0.053689685754,0.0207333644203,0.711565395023,0.692698400388,0.0776635850947,0.0883854188001,-0.014959871742,-0.112038790033,-0.0948776156414,0.031613765185,-0.0910000969756,-0.122117112241,4.7813410759,-1.87858498096,0.0558985769749,0.599117696285,1.97363615036,0.0207765251398
2017/07/09/10:19:24.632325,514930,1499566767,439040102,,0.842251663265,-0.0563007910405,0.0199473573002,0.712542253638,0.691590985841,0.0777141886349,0.0891400581649,-0.0176414223272,-0.139434567424,-0.0840238054411,0.012028855184,-0.106463976284,-0.155700633486,5.01069307327,-1.73450672626,0.109005138278,0.504572689533,2.10862970352,-0.0205847397447
2017/07/09/10:19:24.642128,514931,1499566767,449037451,,0.841341016003,-0.0576247757384,0.0183503730615,0.712838653528,0.691339976888,0.0774163122198,0.0889764294369,-0.0275332453741,-0.123581974297,-0.102090375462,0.00438102698155,-0.06285921771,-0.153634193016,5.25764846802,-1.73271536827,0.333316832781,0.451824635267,2.27982640266,-0.0700215250254
2017/07/09/10:19:24.652366,514932,1499566767,459041710,,0.840930989312,-0.0580090828682,0.0172998579436,0.71282073874,0.691378060697,0.0775607411812,0.0886978186719,-0.0223728742123,-0.104792386721,-0.104202765533,0.0235571992236,-0.0679275838027,-0.11513978627,5.18616294861,-1.92526173592,0.443466901779,0.609718799591,2.23430800438,-0.018830999732
2017/07/09/10:19:24.662431,514933,1499566767,469042944,,0.840716383221,-0.0589003317167,0.0165895384841,0.713616154733,0.690502117751,0.0780513678884,0.0886949438057,-0.0413526074503,-0.0958880215214,-0.110569577323,0.0517082715033,-0.0159284947496,-0.125239667926,5.10510063171,-1.95194363594,0.394025593996,0.626496016979,2.21376824379,-0.0456445962191
2017/07/09/10:19:24.672300,514934,1499566767,479039538,,0.840377783118,-0.0597759061441,0.0153403092285,0.71428637148,0.689814430916,0.0780826636982,0.0886235185965,-0.0420469549232,-0.108539952588,-0.0916344076406,0.017560103425,-0.0146307144365,-0.134893637269,4.3303861618,-1.60641765594,0.690369009972,0.475195556879,1.964671731,-0.091300830245
2017/07/09/10:19:24.682304,514935,1499566767,489035120,,0.840084674479,-0.0610703969713,0.0144791022965,0.714684744273,0.689364435173,0.0781167427552,0.0888828798108,-0.0413227997868,-0.128272620683,-0.0905072799388,0.0254943632285,-0.037172274906,-0.187410934877,4.7937746048,-1.85966730118,0.612557828426,0.575751423836,2.14641094208,-0.0627582222223
2017/07/09/10:19:24.692529,514936,1499566767,499042401,,0.839912144762,-0.0618569408268,0.0139258606695,0.714876695839,0.689123497831,0.0781458767987,0.0891814802695,-0.0328968837952,-0.0787882657223,-0.103348056951,0.0344280291728,-0.0110108202901,-0.122888203569,5.40539216995,-1.91994559765,0.492839127779,0.628671467304,2.38447451591,-0.079645767808
2017/07/09/10:19:24.702502,514937,1499566767,509040940,,0.839613841972,-0.0627069306585,0.0127980812509,0.715338372618,0.688615766033,0.078573677765,0.0890253705021,-0.0521534310762,-0.0754144611344,-0.11916544453,0.0566447961581,0.0265368868543,-0.122677893899,5.56471776962,-2.07761383057,0.296765059233,0.693547844887,2.41304135323,-0.0381590127945
2017/07/09/10:19:24.712584,514938,1499566767,519042223,,0.838533957098,-0.0632394780783,0.0111883409421,0.715939807351,0.688136721967,0.0783428013983,0.0880934140535,-0.0528582206785,-0.0844133521798,-0.11586624574,0.06546050441,0.0212949431711,-0.136377045959,5.46731758118,-2.01475358009,0.318701773882,0.660557031631,2.40016627312,-0.0772369354963
2017/07/09/10:19:24.722380,514939,1499566767,529060592,,0.83801237381,-0.0640206670011,0.0102644499368,0.716421857751,0.687660231027,0.0782473464497,0.0879800043986,-0.0614753480542,-0.0733944762832,-0.1225127697,0.0619940753731,0.0473119158807,-0.116407238504,5.75476884842,-2.12896227837,0.268938988447,0.692643225193,2.52957367897,-0.0641918033361
2017/07/09/10:19:24.732269,514940,1499566767,539035067,,0.837999581253,-0.0646450763172,0.00946588492877,0.71654774565,0.687471340782,0.0785972757903,0.0881189653082,-0.0494099498227,-0.0992500206488,-0.096859784902,0.0292430190042,0.00534797225486,-0.135956048637,5.53910923004,-2.07654809952,0.435753911734,0.64836782217,2.50962853432,-0.102643534541
2017/07/09/10:19:24.742386,514941,1499566767,549039863,,0.837087029157,-0.0660804569605,0.00831503218099,0.717221266821,0.686844899313,0.078109328967,0.0879583505794,-0.0321476960067,-0.0687399687598,-0.0956792159069,0.0351810382169,-0.00396997896776,-0.120949652379,5.68903207779,-2.26203346252,0.287643700838,0.829278707504,2.50291848183,-0.0202929824591
2017/07/09/10:19:24.752409,514942,1499566767,559043983,,0.83717138779,-0.0652768607469,0.00718094597826,0.717173399867,0.68690832782,0.0787447309039,0.087284197017,-0.0349929113372,-0.0621787558639,-0.101111280417,0.061371496358,0.000239672335496,-0.118417287341,5.4516119957,-2.26923274994,0.218850836158,0.780430495739,2.40689086914,-0.0396014004946
2017/07/09/10:19:24.762110,514943,1499566767,569035973,,0.836396923982,-0.0661037111429,0.00610922815314,0.718089033592,0.685998649892,0.0787525947592,0.0869023647529,-0.0468922277438,-0.0798091960637,-0.100545384829,0.0427708054818,0.0155013659337,-0.117106875866,5.89220142365,-2.34295797348,0.0953236743808,0.784453392029,2.57946395874,-0.049607872963
2017/07/09/10:19:24.772110,514944,1499566767,579039899,,0.836632658903,-0.0673982141533,0.00578217333416,0.718536377246,0.685389625673,0.0791591374456,0.087637700517,-0.0406186797884,-0.0593865191211,-0.100388833068,0.0695874673864,0.0149231708242,-0.140366287981,6.04887390137,-2.36824560165,0.035269677639,0.859183490276,2.55526828766,0.000443458557129
2017/07/09/10:19:24.782402,514945,1499566767,589039614,,0.836559218944,-0.0679187330404,0.00582540108924,0.718714210264,0.685164234845,0.0793457977622,0.087773000587,-0.0442690016664,-0.0802170570326,-0.0900189623739,0.0382483162263,0.00312557027064,-0.130864310543,6.21519422531,-2.33708310127,-0.160028889775,0.771313309669,2.623960495,-0.0604444891214
2017/07/09/10:19:24.792449,514946,1499566767,599040546,,0.835545002266,-0.0690285255503,0.00401690952983,0.719183600096,0.684763799093,0.079011485714,0.0873537287641,-0.0355590038656,-0.0752606766247,-0.0930882054125,0.025500317147,-0.00214092518868,-0.118846824164,6.08381175995,-2.41627311707,-0.157659351826,0.810530364513,2.55028390884,-0.0414319336414
2017/07/09/10:19:24.802416,514947,1499566767,609040714,,0.835108028272,-0.0694540685714,0.00305956756554,0.719804766088,0.684161686464,0.0790164470006,0.0869499085394,-0.0410750046136,-0.0614241957122,-0.100058573787,0.058402626257,0.0086148803007,-0.125320792914,6.79916000366,-2.70829463005,-0.234297335148,0.901198267937,2.85067939758,-0.0338942557573
2017/07/09/10:19:24.812268,514948,1499566767,619061091,,0.834494965578,-0.0700802314975,0.00183334376704,0.720057692168,0.683962703096,0.0786051050702,0.086793883307,-0.0402943645602,-0.0334096435704,-0.102601701758,0.0586790948773,0.0369845802602,-0.0789551464163,6.12517261505,-2.45406866074,-0.0634801983833,0.812017738819,2.6074244976,-0.0408541411161
2017/07/09/10:19:24.822104,514949,1499566767,629037656,,0.833726809345,-0.0701873399396,0.00058814074143,0.720423715814,0.683664683541,0.0788480869631,0.0858792719685,-0.0406458129997,-0.0423067967386,-0.0914261759485,0.0547634150903,0.0314765626892,-0.0847024089149,5.72832679749,-2.24178218842,0.0351193733513,0.675464034081,2.48240971565,-0.0951575934887
2017/07/09/10:19:24.832207,514950,1499566767,639035889,,0.834103972765,-0.0709571405437,0.000575708404803,0.720431572941,0.683543458619,0.0789078599033,0.0867193088959,-0.0363496428454,-0.0527132229292,-0.0851181466542,0.025452943584,0.0214454046054,-0.0676985558519,5.91861629486,-2.33716511726,0.13423474133,0.773149967194,2.53766989708,-0.0621236860752
2017/07/09/10:19:24.842126,514951,1499566767,649036996,,0.832759005991,-0.0718516004889,-0.00114217183114,0.721450337322,0.682602359273,0.0788393662838,0.0857192173143,-0.0466220461778,-0.0596500071874,-0.094179424698,0.0442486634013,0.0278367028583,-0.102788643024,5.47061681747,-2.24132347107,0.297970592976,0.732023835182,2.39276599884,-0.0654525309801
2017/07/09/10:19:24.852030,514952,1499566767,659038013,,0.83328871736,-0.0717289142141,-0.00129683892533,0.721065031085,0.682943804037,0.0789360072058,0.0861515423024,-0.0419739668304,-0.0257278410629,-0.102048675486,0.0568879121189,0.0372478038211,-0.0705603038796,5.39434289932,-1.8754799366,0.400376498699,0.559317111969,2.435120821,-0.123695254326
2017/07/09/10:19:24.862407,514953,1499566767,669047599,,0.832518363351,-0.0725691005648,-0.0023019505426,0.721677536247,0.682360316548,0.0787378691812,0.0858270355673,-0.0280190212055,-0.0441871174031,-0.0781279840885,0.0278263336736,0.00613123907949,-0.0646891267951,5.72997713089,-2.01210594177,0.136024311185,0.57850664854,2.58011412621,-0.118522211909
2017/07/09/10:19:24.872262,514954,1499566767,679037032,,0.832774309508,-0.0719739336728,-0.00298948351996,0.721633267415,0.682367120064,0.0793378563663,0.0855923206984,-0.0328856627966,-0.0509217366865,-0.0843771051337,0.00975343893366,0.0148026732323,-0.0717674018162,5.2767739296,-1.86280226707,-0.0225740745664,0.530414760113,2.38375020027,-0.11377107352
2017/07/09/10:19:24.882429,514955,1499566767,689064497,,0.832184102537,-0.0727156619535,-0.00403320779001,0.721980958234,0.682053949957,0.0790578959115,0.0854151882861,-0.0397235398471,-0.0574187161332,-0.0846338601836,0.0231925306183,0.0172804665465,-0.0901463111667,4.98519086838,-2.03336596489,0.00216259900481,0.694205164909,2.21871995926,-0.0710043460131
2017/07/09/10:19:24.892299,514956,1499566767,699042746,,0.83208527172,-0.072640923006,-0.00477199298188,0.722028456699,0.682016199065,0.079009841942,0.0853595736077,-0.0469254258493,-0.0347408488779,-0.0856309982101,0.0300658395896,0.0467225766487,-0.0587407640415,5.0931634903,-2.08146262169,-0.066709510982,0.694568395615,2.20954346657,-0.0528383105993
2017/07/09/10:19:24.902339,514957,1499566767,709040977,,0.831483159951,-0.0734054058431,-0.00547783643693,0.722609743179,0.68142172612,0.0792458993687,0.0849686863914,-0.0451230406868,-0.0365214879302,-0.0800218280982,0.041093372663,0.0323450362758,-0.0563673930784,5.78106403351,-2.22080636024,-0.140738293529,0.744711875916,2.47266674042,-0.0823772549629
2017/07/09/10:19:24.912168,514958,1499566767,719036087,,0.830981005127,-0.0733561435952,-0.00648331049731,0.722437196357,0.681674692957,0.0789131031111,0.0847161877075,-0.0351023654973,-0.0327554801677,-0.0848481162338,0.0396829916196,0.0181344557835,-0.0609296397682,6.24442911148,-2.41988492012,-0.258765608072,0.810360074043,2.5976126194,-0.0517178326845
2017/07/09/10:19:24.922398,514959,1499566767,729042686,,0.830577728634,-0.0740715950571,-0.00691514667297,0.722873303023,0.681220722375,0.0788034942316,0.0847497756949,-0.0352536726103,-0.00573924243186,-0.0825654849039,0.0522741413616,0.0408369303575,-0.0503003691707,5.97994184494,-2.287576437,-0.197278320789,0.726987481117,2.51774835587,-0.0550467073917
2017/07/09/10:19:24.932494,514960,1499566767,739043383,,0.829911235687,-0.073299419551,-0.00836566286671,0.72331922708,0.680835618028,0.0793762194692,0.083495944466,-0.0281275434779,-0.0164845106236,-0.0699090479618,0.0623516500219,0.00735523087467,-0.0677001681847,5.48249959946,-2.10612034798,-0.166599556804,0.65546053648,2.32149076462,-0.112565159798
2017/07/09/10:19:24.942441,514961,1499566767,749036963,,0.82981668497,-0.0745965961398,-0.00860202198258,0.723441781301,0.680645883376,0.0790406503338,0.0842955877033,-0.0300403987775,-0.0355159806656,-0.070334623455,0.0336487373842,-0.00139457018819,-0.0654006346826,5.36426019669,-2.11654567719,-0.151933655143,0.629578351974,2.31395363808,-0.0877757817507
2017/07/09/10:19:24.952303,514962,1499566767,759039889,,0.829120524891,-0.0746616291778,-0.00982019608963,0.723313421695,0.680888918084,0.0786120880568,0.0838338525756,-0.0350713388384,-0.0418140043395,-0.0763347088084,0.00415883440161,0.0145465924164,-0.0655939842226,5.80052423477,-2.17768192291,-0.0210311003029,0.71394443512,2.52703142166,-0.0878863930702
2017/07/09/10:19:24.962482,514963,1499566767,769037540,,0.82987974849,-0.0746082387744,-0.00994936546909,0.723544566279,0.680508955856,0.0793241330755,0.0842526172901,-0.033965834598,-0.0286310397973,-0.0807449696088,0.0447143047516,0.0122119125667,-0.069550241528,6.04920911789,-2.47545409203,-0.153271317482,0.824253678322,2.64077830315,-0.0563796013594
2017/07/09/10:19:24.972252,514964,1499566767,779036247,,0.829290621561,-0.0754548960193,-0.0106232076397,0.724050196178,0.679974781654,0.0792474132453,0.0842938741754,-0.0221164812966,-0.000250721165383,-0.0735446311419,0.0496313596569,0.00855624709204,-0.0222374522577,5.63545179367,-2.2934422493,-0.155143111944,0.787620782852,2.44869303703,-0.0528578460217
2017/07/09/10:19:24.982416,514965,1499566767,789045078,,0.829096524713,-0.0748901115651,-0.0108475605902,0.724130052701,0.679909417727,0.0797046587186,0.0837019584004,-0.0111863652918,-0.000123091622747,-0.053346029707,0.0194258558989,-0.00909291477142,0.00565241208624,5.68062257767,-2.48735332489,-0.237127348781,0.921921253204,2.42234230042,0.000299572944641
2017/07/09/10:19:24.992352,514966,1499566767,799050283,,0.828333185363,-0.0760776075358,-0.0120948783218,0.724167876304,0.679919994278,0.0791537145401,0.0838115611588,-0.0351134056913,-0.0223454483716,-0.0739140924212,0.0419538152631,0.0137710748973,-0.055657383354,5.49165487289,-2.27613544464,-0.315886557102,0.779375970364,2.34798836708,-0.0276139825583
2017/07/09/10:19:25.002309,514967,1499566767,809040378,,0.828514237247,-0.0752995305609,-0.0124011930881,0.724015321386,0.680060451301,0.0794280648502,0.0837303976376,-0.0276157092057,-0.0239885428704,-0.0741840994874,0.0173651202737,0.0037722542724,-0.020092476003,5.52940654755,-2.16677618027,-0.306907773018,0.696574866772,2.3838288784,-0.094732388854
2017/07/09/10:19:25.012236,514968,1499566767,819041093,,0.828676247798,-0.0755563492961,-0.0128152528674,0.724196684946,0.679774574353,0.0800795477244,0.0838627188481,-0.0188845913088,-0.00419918655099,-0.0690889542558,0.0147349156045,0.000713132442439,-0.023260939699,5.60738945007,-2.16934776306,-0.108906120062,0.717147171497,2.45541715622,-0.0658634603024
2017/07/09/10:19:25.022403,514969,1499566767,829036250,,0.828440053243,-0.0758820222713,-0.013350972367,0.72420792915,0.679759944801,0.079684162358,0.0842598781705,-0.0062305856622,-0.0176400708552,-0.0426254551893,0.0166202249948,-0.0463265942309,-0.0535823147571,4.84417676926,-2.02756476402,0.130910128355,0.688346624374,2.17638516426,-0.0556200742722
2017/07/09/10:19:25.032210,514970,1499566767,839045951,,0.828203429522,-0.0755039190836,-0.0140352211991,0.724152952655,0.67986308837,0.079769430718,0.0838183760074,-0.0162726732352,-0.00602631915091,-0.0515086461289,0.0189515989557,-0.0150440348441,-0.0373237194853,4.94042682648,-2.03130412102,0.102265276015,0.717889964581,2.18897867203,-0.0522191226482
2017/07/09/10:19:25.042412,514971,1499566767,849045448,,0.827811623953,-0.0758906502548,-0.014718534212,0.724181704283,0.67981117948,0.0798778475034,0.0838877161101,-0.0197736372022,-0.0127888974474,-0.0575623804865,0.011916214693,-0.0183017958364,-0.020038052722,4.68591022491,-1.79965960979,0.00515474844724,0.584734499454,2.13718700409,-0.100952714682
2017/07/09/10:19:25.052495,514972,1499566767,859042329,,0.827515098613,-0.0757336712715,-0.0153573302833,0.724696796932,0.679274274682,0.0800964712388,0.0835797078574,-0.013559920459,-0.0045000243758,-0.055873122012,0.0057848802097,-0.0287261936803,0.00448746146478,4.75078248978,-2.04201507568,0.00942826364189,0.711508572102,2.14526462555,-0.0539932549
2017/07/09/10:19:25.062363,514973,1499566767,869034725,,0.828261723224,-0.0756903425882,-0.0155760873604,0.72417063532,0.679680920894,0.0804371565887,0.0845020742494,-0.0129833560685,-0.0283692401707,-0.0461763662868,-0.0172789015565,-0.0423775356825,-0.0269241071825,4.28138685226,-1.59207487106,0.144123062491,0.48786264658,2.00450062752,-0.13792231679
2017/07/09/10:19:25.072548,514974,1499566767,879041871,,0.827481392696,-0.0764795034962,-0.0158956798616,0.724635202775,0.679226057415,0.0801994489897,0.0844028092527,-0.00083689914559,-0.00658594086859,-0.0430258989774,-0.0109150907095,-0.052880275725,-0.00915708559197,4.17234754562,-1.50907790661,0.307467609644,0.45919534564,1.96302235126,-0.136082008481
2017/07/09/10:19:25.082347,514975,1499566767,889040390,,0.827766413289,-0.0757558889585,-0.0159744084045,0.724498831175,0.679303736614,0.0806890947492,0.0844816372741,-0.0138584463696,-0.00905008091451,-0.0491113770648,-0.0046959404881,-0.0422828174027,0.00849327375599,4.05225419998,-1.40396666527,0.260011285543,0.478816390038,1.8869228363,-0.100131943822
2017/07/09/10:19:25.092417,514976,1499566767,899042923,,0.827493563268,-0.075711694287,-0.0170289521335,0.724403270589,0.679411103078,0.0805747106836,0.0845468543049,-7.16930535474e-05,-0.00620619267365,-0.0329299171129,-0.00408780648031,-0.0685529270926,-0.0305966402389,3.50185489655,-1.24214744568,0.457111030817,0.411155283451,1.70321297646,-0.133937641978
2017/07/09/10:19:25.102277,514977,1499566767,909036113,,0.827546509948,-0.0765423279184,-0.017063182009,0.724580833529,0.679107691331,0.0807406410817,0.085301278625,0.00793560957111,0.000361891118602,-0.0380719384796,-0.00157514332928,-0.0823101363115,-0.0221900160584,3.74286913872,-1.70653772354,0.296159535646,0.672849178314,1.74064445496,-0.0242355614901
2017/07/09/10:19:25.112283,514978,1499566767,919065026,,0.827577967826,-0.076158367621,-0.0173110075877,0.724279080673,0.679366421166,0.0811679553438,0.0853981388388,-0.00362680225343,0.00169376120937,-0.0489959504159,-0.0115921549384,-0.0555479526321,-0.000737404114901,3.3261141777,-1.30796229839,0.175769150257,0.466064155102,1.58001637459,-0.106418967247
2017/07/09/10:19:25.122204,514979,1499566767,929036578,,0.827299020834,-0.0763546286722,-0.0181914037171,0.724087837013,0.679570132277,0.0810211840384,0.0855383384472,-0.00687756597214,-0.00549611810716,-0.0419229220539,-0.00995328076142,-0.0655939818808,-0.0123863868304,3.13265562057,-1.14497375488,0.24004752934,0.399192035198,1.51455175877,-0.131744921207
2017/07/09/10:19:25.132354,514980,1499566767,939043478,,0.827756227748,-0.0761571893937,-0.0182782275283,0.724235419787,0.679272325815,0.0815925879659,0.0861093124805,0.001378770416,-0.00463506106236,-0.0316905022614,-0.00615097267329,-0.0915893937234,-0.000375553229097,2.92328476906,-1.12188982964,0.155187860131,0.457306206226,1.37699353695,-0.058531537652
2017/07/09/10:19:25.142342,514981,1499566767,949042196,,0.827625876658,-0.0765530194126,-0.0182465839514,0.724394338343,0.679052477901,0.0815936806883,0.0865046016441,-0.00679167319756,-0.000262949386341,-0.0429491866758,-0.0310524755711,-0.0620029139008,0.0111552116227,3.02240276337,-0.914111018181,-0.273637712002,0.29299017787,1.40181899071,-0.156970366836
2017/07/09/10:19:25.152292,514982,1499566767,959036289,,0.828090647372,-0.0764016685182,-0.0182710935054,0.724348931036,0.678943268996,0.0822857164544,0.0870845822174,-0.00978359092727,-0.00714557021723,-0.0409079191059,-0.0149171720862,-0.0614306817956,-0.0147403814059,3.31316399574,-1.15213286877,-0.481809169054,0.374395608902,1.48515832424,-0.107628166676
2017/07/09/10:19:25.162447,514983,1499566767,969065788,,0.827305738133,-0.0761501325951,-0.0196711160678,0.724034887295,0.679382318094,0.081806666604,0.086722644913,0.00967295810354,0.00324092066696,-0.0247555389968,-0.0322434447813,-0.0921518501923,0.0210700918465,3.01105809212,-1.03803098202,-0.363282233477,0.413243830204,1.33651149273,-0.103016600013
2017/07/09/10:19:25.172418,514984,1499566767,979040568,,0.827808048133,-0.0760378785987,-0.0198259160328,0.723640126822,0.679643364812,0.0824746050941,0.0873372946437,0.00629479651476,0.0294174128392,-0.0358836996216,-0.0150717533835,-0.0745401751328,0.0616995033836,3.13986873627,-1.2848534584,-0.428998529911,0.531729638577,1.33183562756,-0.0842916369438
2017/07/09/10:19:25.182309,514985,1499566767,989037181,,0.827488964657,-0.0761757846961,-0.0203175564883,0.723893260368,0.679345976516,0.082509800449,0.0875198526907,0.0114183723517,0.0187973750081,-0.0399953967655,-0.0166350085222,-0.0936923706124,0.0235808096798,3.75094437599,-1.46211314201,-0.637741565704,0.63942193985,1.52883470058,-0.0152926594019
2017/07/09/10:19:25.192332,514986,1499566767,999043680,,0.828019891853,-0.0760827101681,-0.0199857141196,0.723738938923,0.679372999398,0.0828684988992,0.0882444778201,0.0056121654246,-0.00530615986059,-0.0374074590404,-0.0257296404204,-0.0932364697508,-0.00345807217952,3.825756073,-1.46765005589,-0.819063782692,0.596235156059,1.58923578262,-0.0596840530634
2017/07/09/10:19:25.202274,514987,1499566768,9049947,,0.82803607232,-0.0756490893427,-0.0202896082031,0.723632096762,0.679437956383,0.0831759784782,0.0883312434281,0.0111601935384,-0.019933467823,-0.0246129769878,-0.0476729331518,-0.104511870967,0.00593113436728,3.74636912346,-1.34411334991,-0.881572186947,0.505324840546,1.59430575371,-0.0976283848286
2017/07/09/10:19:25.212118,514988,1499566768,19043277,,0.828193641271,-0.075377623001,-0.0209491800404,0.723502205003,0.67949666943,0.0835022333011,0.0886352786644,0.0071728348311,0.0104691672173,-0.0388425728975,-0.00566400918945,-0.0793646217888,0.00115453853295,3.21266937256,-1.36689651012,-0.740831971169,0.605878353119,1.39594304562,-0.0311269164085
2017/07/09/10:19:25.222629,514989,1499566768,29044427,,0.828189011816,-0.0758543530241,-0.0215796284886,0.723556431482,0.679333553037,0.0837372284803,0.0892193406409,0.000630765189412,0.0110666023998,-0.0400848005318,-0.00296466079398,-0.0723009576766,0.000257545240747,2.93258142471,-1.22225010395,-0.604344546795,0.5892187953,1.28822398186,-0.00726453959942
2017/07/09/10:19:25.232410,514990,1499566768,39043864,,0.828685538141,-0.0757609487643,-0.0210329862517,0.723144926157,0.67966234869,0.0840524885226,0.0897534774816,0.00918663928733,0.0111953087511,-0.0386692047888,-0.0143660357391,-0.082735050176,0.0306111502872,3.37995457649,-1.2715754509,-0.835947275162,0.522803068161,1.47566473484,-0.0519449263811
2017/07/09/10:19:25.242405,514991,1499566768,49036791,,0.828441082421,-0.0755910808433,-0.0220709774656,0.723373473172,0.679416533412,0.0841244824938,0.0897054283915,0.0147091441696,0.014765586537,-0.0357023060925,-0.00989625922109,-0.0857234425321,0.0241881981157,2.83407974243,-1.33389854431,-0.69821035862,0.627011954784,1.23879575729,0.00977094471455
2017/07/09/10:19:25.252316,514992,1499566768,59045816,,0.828337684764,-0.0755933543705,-0.022427793895,0.723400452495,0.679339965638,0.0844986173626,0.0897161082505,0.0118496480535,0.0365608198962,-0.0386110966148,0.0120676790714,-0.066294437393,0.0387859158266,3.36802840233,-1.35056018829,-0.723655581474,0.594143927097,1.4130923748,-0.0126559883356
2017/07/09/10:19:25.262378,514993,1499566768,69043947,,0.82846576678,-0.075114707081,-0.0226406235415,0.723170278889,0.679533628642,0.0846061332549,0.0900033193368,-0.00776244647624,-0.00251967624188,-0.0496240426715,-0.0274719870062,-0.0437823013515,0.0120476734136,3.2413828373,-1.10568475723,-0.802511632442,0.396271407604,1.39922273159,-0.0926131904125
2017/07/09/10:19:25.272323,514994,1499566768,79033963,,0.828589483429,-0.0753311213978,-0.0230226447911,0.722975459059,0.679673311593,0.0844755930069,0.0906341508101,-0.00184326579249,0.0137121610249,-0.0484092705213,0.00355995405937,-0.0531490952901,-0.00305987641353,3.22705388069,-1.22581350803,-0.741681158543,0.505081534386,1.35868084431,-0.0368737131357
2017/07/09/10:19:25.282349,514995,1499566768,89053439,,0.828490011513,-0.0751894476843,-0.0235100633993,0.722819398615,0.679768828508,0.0849374069013,0.0907308860487,0.00826953848167,0.0199075538687,-0.0476989370026,0.00544448935115,-0.0757363995118,0.0228570865509,3.38136649132,-1.03367757797,-0.668843209743,0.364230871201,1.47181093693,-0.108782246709
2017/07/09/10:19:25.292460,514996,1499566768,99049188,,0.828373696051,-0.0756937635072,-0.0240347671857,0.723153779108,0.679387448878,0.0849574368016,0.0909040153164,0.0116233010736,0.00355339261459,-0.0400734164585,-0.0235940508977,-0.0850374318333,0.0183122553824,2.60259795189,-0.836516797543,-0.300311595201,0.377751767635,1.18142521381,-0.0579778552055
2017/07/09/10:19:25.302308,514997,1499566768,109043126,,0.828733337098,-0.0757599043871,-0.0238760383956,0.723159034555,0.679252981754,0.085193889852,0.0916427774089,0.0121175264258,-0.017060130241,-0.0280864145759,-0.0386569947144,-0.0923686433037,-0.00853850669515,2.79076099396,-0.841628015041,-0.439611822367,0.272159337997,1.28644418716,-0.131626293063
2017/07/09/10:19:25.312182,514998,1499566768,119042623,,0.828867093043,-0.0746057363464,-0.0247058253041,0.722675523166,0.679706901766,0.085852669061,0.0914764184041,0.0115865716782,0.00159275831979,-0.0276788988564,-0.0240696247215,-0.0849387209929,0.0181669658848,2.58921456337,-1.02436447144,-0.375747621059,0.44564935565,1.18757414818,-0.0348277390003
2017/07/09/10:19:25.322436,514999,1499566768,129036125,,0.828799360602,-0.0748883574911,-0.0251077135516,0.72303293352,0.679310124143,0.0857570378202,0.0916889456048,-0.0178834459731,0.00816896085955,-0.0562513736822,0.0160221841163,-0.0434333055164,-0.0205891329973,2.83644104004,-1.19459915161,-0.241697669029,0.456539213657,1.33019137383,-0.0460810959339
2017/07/09/10:19:25.331954,515000,1499566768,139043977,,0.828415299408,-0.0747506138695,-0.0258645094217,0.722939784293,0.679427912879,0.0857949489585,0.091515060072,0.000235924425859,-0.00057061746199,-0.044971020881,-0.00755343548906,-0.0679779162098,-0.0138750617037,2.61277914047,-1.06246674061,-0.145912498236,0.413613706827,1.23121595383,-0.0916154831648
2017/07/09/10:19:25.342684,515001,1499566768,149042776,,0.82877409398,-0.0749196403307,-0.0258239928691,0.722620989864,0.679656047404,0.0859232445888,0.0922158244247,0.00852127756081,0.0269862900059,-0.0386060764839,0.0161088237832,-0.0635246383167,0.0238554556564,2.80601501465,-1.18789029121,-0.35215818882,0.454686999321,1.25569391251,-0.0559032261372
2017/07/09/10:19:25.352425,515002,1499566768,159043140,,0.829371487796,-0.0746018008772,-0.0254601129598,0.722701403108,0.679374735726,0.0869045817703,0.0927375008847,0.00383709722094,0.00384632536728,-0.0273713765261,-0.0171994295508,-0.0572081468015,0.0171199691087,3.06072020531,-0.966960132122,-0.343034118414,0.308755636215,1.38889062405,-0.125703245401
2017/07/09/10:19:25.362373,515003,1499566768,169040665,,0.828891964789,-0.0745523475275,-0.0266066653021,0.722220940801,0.679948723951,0.0863872255953,0.0927571707133,0.0186735389089,0.00352354678448,-0.0200996766597,-0.0191958167096,-0.0949955344853,0.00943120158933,2.72440695763,-0.741094470024,-0.146828442812,0.284864544868,1.28229999542,-0.10388404876
2017/07/09/10:19:25.372415,515004,1499566768,179041324,,0.829378527889,-0.0751232633285,-0.0264705395772,0.72287647724,0.679081907319,0.0869660107941,0.0934573419889,0.0165829982344,0.00186530386875,-0.023396932702,-0.0122085381454,-0.0967477260737,-0.0109392127389,2.79746127129,-1.05449688435,-0.144834339619,0.406208574772,1.34971797466,-0.0836822837591
2017/07/09/10:19:25.382126,515005,1499566768,189039253,,0.829822570001,-0.0750566434436,-0.0262327726194,0.722446670348,0.679408909433,0.0873699428898,0.0940257165098,0.0259091144786,0.00457114193949,-0.0245599085434,-0.0222822874238,-0.109337109984,0.00557390803127,2.98027539253,-1.03325545788,-0.336042523384,0.417524665594,1.40891671181,-0.0832812637091
2017/07/09/10:19:25.392169,515006,1499566768,199036802,,0.829461513142,-0.0746580257947,-0.0269076172357,0.722656846495,0.679241765289,0.0873671552502,0.0936199053854,0.0105978370578,0.00226617048941,-0.0259696506716,-0.0270053684783,-0.0732958008236,0.0094879437455,2.76285243034,-0.985265493393,-0.321376472712,0.395936876535,1.31865179539,-0.075199149549
2017/07/09/10:19:25.402386,515007,1499566768,209036597,,0.829493780795,-0.0746023632871,-0.0271101281017,0.722502949325,0.679338954963,0.0875471662122,0.0939338393454,0.0204276888835,0.00538626144178,-0.0151958107653,-0.0285256067951,-0.0870138731124,0.0263664724927,2.22301864624,-0.888423681259,-0.273084580898,0.500458538532,1.02983140945,-0.0203348994255
2017/07/09/10:19:25.412341,515008,1499566768,219049190,,0.829654516363,-0.0749431230299,-0.0273060513633,0.72266220203,0.679084603814,0.0875827965051,0.0945129429046,0.02096884984,-0.00305953769376,-0.0150425031237,-0.0186208687811,-0.096639965588,-0.00578102560496,2.37418961525,-0.740496754646,-0.535579442978,0.311262458563,1.06629502773,-0.0732506215572
2017/07/09/10:19:25.422073,515009,1499566768,229036459,,0.830004175604,-0.0748181868906,-0.0272292837374,0.722530461118,0.679091994194,0.0881446495966,0.0949437566475,0.0224573588911,0.0116166978917,-0.0148516026513,-0.00752341660089,-0.0931815186436,0.0135959939706,2.69295525551,-1.0282959938,-0.607332229614,0.441623091698,1.162078619,-0.0417437553406
2017/07/09/10:19:25.432235,515010,1499566768,239048424,,0.830387376507,-0.0750793933656,-0.0273132226089,0.722243951802,0.679278173875,0.0884292792505,0.0955253848608,0.0286216576103,-0.000325977545448,-0.00311705219642,-0.0184320081562,-0.108918224592,0.00382310672907,2.53951859474,-1.07730948925,-0.630842745304,0.490242123604,1.05448818207,0.000304862856865
2017/07/09/10:19:25.442074,515011,1499566768,249036123,,0.8303224801,-0.0750136489566,-0.0276822161155,0.722274328413,0.67921176114,0.088566797413,0.0956404749101,0.0178711387912,-0.00745301588079,-0.00894827049869,-0.0358805948207,-0.0852700164551,0.00575251081161,2.45611810684,-0.927863121033,-0.514997780323,0.3870703578,1.07392847538,-0.075344979763
2017/07/09/10:19:25.452461,515012,1499566768,259040165,,0.830794161791,-0.0749404984735,-0.0276349768217,0.722076523872,0.679304474409,0.0888805875376,0.0961829812378,0.0171061985522,0.000475557253274,-0.014638246044,-0.0281445387804,-0.0742406756846,0.0163176610762,2.42020964622,-0.945560455322,-0.694275677204,0.374976068735,1.02203512192,-0.0774907693267
2017/07/09/10:19:25.462478,515013,1499566768,269035468,,0.831094644653,-0.0739379703399,-0.0276151279139,0.721852836979,0.679504188341,0.0892868881196,0.0960749258751,0.0215759106408,0.0105107175701,-0.0147237181726,-0.0166953466816,-0.0760223304816,0.0118563646397,2.71793150902,-0.944653272629,-0.751768946648,0.413413137197,1.14750385284,-0.0411942303181
2017/07/09/10:19:25.472456,515014,1499566768,279042642,,0.830539328812,-0.0749280347296,-0.0278750038317,0.721468045879,0.679932017965,0.0886572856087,0.0965204404767,0.0236664477746,0.000361214072323,0.00438380268381,-0.0256019993318,-0.0779146409799,0.0165079525599,2.55701828003,-1.15871608257,-0.780841827393,0.538185954094,1.06434679031,-0.00144566595554
2017/07/09/10:19:25.482515,515015,1499566768,289040129,,0.831156668328,-0.0754483535699,-0.027562179147,0.722021783261,0.679161951097,0.0892370982998,0.0972642224367,-0.00482515312542,-0.0190316610024,-0.0148512428547,-0.0201566514101,-0.0329630692676,-0.042095590321,2.84529662132,-0.986831665039,-0.898858785629,0.376545906067,1.23104572296,-0.0757225975394
2017/07/09/10:19:25.492432,515016,1499566768,299043965,,0.830801512433,-0.0741392683151,-0.0279972971411,0.721785942937,0.679535554551,0.0890805448463,0.0965460470945,0.00332236689585,0.00982481085549,-0.0202570047874,0.00476661868138,-0.0420850371131,-0.00908447276943,3.28971171379,-1.29702305794,-1.00897777081,0.595568835735,1.347833395,0.0157212913036
2017/07/09/10:19:25.502315,515017,1499566768,309040164,,0.83061934525,-0.0749566297575,-0.0281430581789,0.722205345419,0.679061995208,0.089125778944,0.0966997478729,0.00749738790879,0.0305487793208,-0.0149614444073,0.0237842083958,-0.0302676885233,0.0124934699184,3.06242656708,-1.36999976635,-1.02611160278,0.645367503166,1.21545660496,0.0593147277832
2017/07/09/10:19:25.512366,515018,1499566768,319040007,,0.831090947325,-0.0748821278534,-0.0280943331586,0.721746047083,0.679431424634,0.0894032528885,0.0972761076218,0.00866953388804,-0.00457487829849,-0.00219984908759,-0.0196829143295,-0.0415525146169,0.013020230781,3.21586465836,-1.27798199654,-1.06139862537,0.514593422413,1.33240795135,-0.0356635302305
2017/07/09/10:19:25.522309,515019,1499566768,329035859,,0.831485692104,-0.0740452966646,-0.0280340317864,0.721423326571,0.679757217069,0.0896102703154,0.097203442201,-0.00356437060638,-0.0201214429981,0.000905306868652,-0.0370170598551,-0.0214114329738,0.00897559671989,3.36070919037,-1.33724081516,-1.18154668808,0.549664258957,1.3422678709,0.0102618485689
2017/07/09/10:19:25.532102,515020,1499566768,339038624,,0.830826683032,-0.0746917716706,-0.0284115287926,0.722161214967,0.679021913087,0.0895197108783,0.0969465961727,-0.0255523955221,-0.00523035058438,-0.0278309857936,0.00587667339074,0.0266842246236,-0.012381079237,3.26846933365,-1.29555797577,-1.28173947334,0.519313037395,1.29082143307,-0.0245611071587
2017/07/09/10:19:25.542055,515021,1499566768,349036599,,0.83070551606,-0.0750901790443,-0.0287981902187,0.722015581127,0.679178241347,0.089401829172,0.0970449897225,-0.00667085988165,-0.0127620141178,-0.00656187979565,0.00174909713583,-0.00674556548054,-0.0162409483672,3.23424196243,-1.28523945808,-1.17809283733,0.55721616745,1.29280531406,-0.0148242563009
2017/07/09/10:19:25.552345,515022,1499566768,359043433,,0.830485177328,-0.0747201589435,-0.0287451233465,0.722048402616,0.679188828033,0.0892992796592,0.0968208593592,-0.00148869198442,-0.00692319565853,0.0021487091163,-0.00528026955677,-0.00894158905181,-0.00458118626846,3.2494225502,-1.2603584528,-1.19784021378,0.531943917274,1.32313835621,-0.0111416131258
2017/07/09/10:19:25.562423,515023,1499566768,369040867,,0.830195990625,-0.0751167033802,-0.0287266665538,0.722190704976,0.67906326382,0.0892073072783,0.0967250004093,0.00472859783684,-0.00380055794254,0.0122588014821,-0.00507175913598,-0.0214729093924,-0.00734700283559,2.7791287899,-1.15659475327,-1.23550724983,0.46618449688,1.13607776165,-0.0407708138227
2017/07/09/10:19:25.572358,515024,1499566768,379038916,,0.83054046776,-0.074355422485,-0.0286487158481,0.722005494695,0.679227833389,0.0896583662126,0.0965349333045,-0.014214609183,0.0148934477946,-0.0106360110285,0.0340153292537,0.0288244850466,-0.0014175205083,2.98651695251,-1.30087649822,-1.40087580681,0.60495275259,1.12161564827,0.0668029785156
2017/07/09/10:19:25.584225,515025,1499566768,389044453,,0.83044577646,-0.07457491653,-0.028480444987,0.721918159541,0.679357661837,0.0891908491338,0.0967074488257,-0.00936779539692,0.00302026090262,0.00367928077064,0.00286072407171,0.0187243146708,0.0213591666388,3.57801866531,-1.46968913078,-1.6253298521,0.549224734306,1.37756431103,-0.0362093299627
2017/07/09/10:19:25.592350,515026,1499566768,399041547,,0.830697888577,-0.0747306354708,-0.0281375523606,0.722099641698,0.679110088561,0.0895150649995,0.0967917776096,4.2615724187e-05,-0.00627810247285,0.0120743096052,0.00861162059648,-0.00476394425615,-0.0266189987386,3.67166686058,-1.44486570358,-1.68225002289,0.601056575775,1.3483145237,0.0228935480118
2017/07/09/10:19:25.602278,515027,1499566768,409040137,,0.830312781919,-0.0753017214729,-0.0279449488232,0.722271401721,0.678955245396,0.0891535472887,0.0969300882639,-0.0160584090493,-0.00109581135464,-0.00608060319313,0.00228528863128,0.0296679812397,-0.00221110304234,3.76731491089,-1.70083034039,-1.86235356331,0.772090911865,1.30632078648,0.114348091185
2017/07/09/10:19:25.612325,515028,1499566768,419048696,,0.829793296386,-0.0749581674368,-0.0288492159286,0.722246880178,0.679060692221,0.0890954058639,0.0964262879488,-0.0137469406777,-0.0128253994895,-0.00229109330956,0.00824349990713,0.0108162247478,-0.0250363622192,3.6398088932,-1.51458823681,-1.74737882614,0.663639307022,1.31889081001,0.03850081563
2017/07/09/10:19:25.622084,515029,1499566768,429041307,,0.830861357169,-0.0749037214195,-0.0277458373176,0.722120714813,0.679010231488,0.0896661497082,0.0971944461833,-0.00799667577441,-0.00945203779385,0.00227915864104,-0.00191904950831,0.00748888993878,0.0129845079965,3.87998628616,-1.91330051422,-1.88629937172,0.850339531898,1.40345466137,0.106923565269
2017/07/09/10:19:25.632424,515030,1499566768,439044129,,0.830291897233,-0.0755151407256,-0.028271884035,0.722111362306,0.67908259856,0.0892639209046,0.0971285600983,0.024230848587,-0.00489393739842,0.020231985499,-0.00731093866567,-0.0557823112248,-0.00615076195938,3.92105841637,-1.61446201801,-1.85002326965,0.691062510014,1.44969940186,0.0466013103724
2017/07/09/10:19:25.642396,515031,1499566768,449037825,,0.83072959994,-0.0760353248423,-0.0276223115212,0.722377365711,0.678693180915,0.0894628832524,0.0976877689822,0.0096624382205,-0.0241763227568,0.0178793200588,-0.0133452145238,-0.0398411153493,-0.0341381143094,3.97646784782,-1.92756700516,-1.95162117481,0.873671531677,1.41547369957,0.121794492006
2017/07/09/10:19:25.652534,515032,1499566768,459048424,,0.830421473286,-0.0757601383588,-0.0281256402514,0.722449046608,0.678698157942,0.0892378037459,0.0973283095669,-0.00389187485827,-0.0145933195107,0.00796116019003,-0.0135527092795,-0.00248545901748,-0.00976179042441,4.21953821182,-1.80999016762,-1.92730998993,0.792439103127,1.55635619164,0.064111366868
2017/07/09/10:19:25.662219,515033,1499566768,469036121,,0.830593745328,-0.0754464988177,-0.0278071150265,0.722182980394,0.67896102426,0.0894587905045,0.0972666189715,-0.00598250284411,0.00488822317772,-0.00854060278402,0.00621691045273,0.0123109922458,0.00523707702848,3.81844949722,-1.68309116364,-1.9692555666,0.725203275681,1.38654792309,0.0715013444424
2017/07/09/10:19:25.672214,515034,1499566768,479040902,,0.830023111427,-0.0758030094042,-0.0280601542028,0.722632807006,0.678567529072,0.0891630770467,0.0969426656285,0.00404511788213,0.00160309384793,0.009602154672,-0.00140066566003,-0.00708874860271,-0.00886337288475,3.240929842,-1.44743299484,-1.51867771149,0.62138736248,1.23641633987,0.00978501141071
2017/07/09/10:19:25.682204,515035,1499566768,489044786,,0.830246296728,-0.0755195175491,-0.0278927572178,0.722058075194,0.679145292797,0.0891857263658,0.097158188188,0.0015900275023,-0.00246630451459,0.0124344839406,-0.00494102671789,-0.00187284499392,-0.00435534881788,3.24689340591,-1.11996722221,-1.24121367931,0.418936192989,1.32688319683,-0.0793436020613
2017/07/09/10:19:25.692266,515036,1499566768,499040221,,0.831158176166,-0.0755229753333,-0.0270189137684,0.722216084201,0.678813338223,0.0897725359805,0.0977612978448,-0.00101841386077,-0.0197117241232,0.0101112750645,-0.00829712418188,-0.0180862242339,-0.00940128585271,3.54123783112,-1.32862329483,-1.22252607346,0.516126155853,1.44367921352,-0.0142120793462
2017/07/09/10:19:25.702426,515037,1499566768,509043141,,0.830101138083,-0.0750835041927,-0.0282072082069,0.721942472892,0.679297581923,0.0893985888247,0.0967561540327,-4.70533559843e-05,-0.0294604586559,0.0105230312147,0.00075393016043,-0.0342185583669,-0.0575186888531,3.42567229271,-1.25092339516,-0.976228892803,0.450171172619,1.46440410614,-0.0786273628473
2017/07/09/10:19:25.712361,515038,1499566768,519043354,,0.830744508398,-0.0758689481884,-0.0269692151832,0.722685535843,0.678322876017,0.0899633348164,0.0975207185322,-0.00870460942735,-0.0332111919848,0.0179023199454,-0.0163963850235,-0.0105210417297,-0.0333885668377,3.88135385513,-1.46720540524,-1.33871662617,0.612178266048,1.5582652092,0.0202979743481
2017/07/09/10:19:25.722445,515039,1499566768,529048461,,0.830766511542,-0.0768370497729,-0.0264811431007,0.722568636374,0.678410661093,0.0896605408179,0.0980536998989,0.00487897802229,-0.0202896814679,0.0244146848528,-0.0176239318685,-0.0257705608934,-0.00615298856307,-2.94917154312,2.01968860626,2.85613250732,-0.973621189594,-0.43013125658,-0.491429209709
2017/07/09/10:19:25.732180,515040,1499566768,539042620,,0.830963158353,-0.0764231931105,-0.0266788335612,0.722237391006,0.678721906175,0.0898002590659,0.0982122119806,0.010260676331,-0.00456346808766,0.0156126948197,-0.0132368934398,-0.0225480852418,0.00444764082482,-2.34240198135,1.39080309868,2.26856136322,-0.611560821533,-0.299842178822,-0.345748364925
2017/07/09/10:19:25.742179,515041,1499566768,549035965,,0.830940179354,-0.076389629607,-0.0267219647754,0.722389239756,0.678589723509,0.0898535686326,0.097959734771,0.0241286568206,0.024882744844,0.0157946151628,0.0222239299025,-0.0422427632028,0.0129458781971,-1.52049458027,0.508436560631,1.02975583076,-0.215574368834,-0.159998968244,-0.1950455755
