time,.header.seq,.header.stamp.secs,.header.stamp.nsecs,.header.frame_id,.pose.position.x,.pose.position.y,.pose.position.z,.pose.orientation.x,.pose.orientation.y,.pose.orientation.z,.pose.orientation.w,.twist.linear.x,.twist.linear.y,.twist.linear.z,.twist.angular.x,.twist.angular.y,.twist.angular.z,.wrench.force.x,.wrench.force.y,.wrench.force.z,.wrench.torque.x,.wrench.torque.y,.wrench.torque.z
2017/07/09/10:24:21.562160,544623,1499567064,369565147,,0.781580531439,0.400471388824,0.166756362133,0.623166199525,0.779424802086,0.0570526083933,0.0300976002224,-0.00244423683603,0.0243848498601,-0.00128333729973,0.0576494414773,0.00793841789424,-0.0288711910698,4.76810216904,1.32928037643,-1.03836715221,-0.761613667011,1.75038158894,-0.00656127603725
2017/07/09/10:24:21.572006,544624,1499567064,379564729,,0.781622836858,0.401012973938,0.166476961323,0.623244502699,0.779348419409,0.057386753331,0.0298176384595,-0.00132273404076,0.0333176450777,-1.37136437474e-05,0.0783732057867,0.011953293879,-0.017219142059,4.41758823395,1.08788180351,-1.12826776505,-0.636592030525,1.61851000786,0.0185241084546
2017/07/09/10:24:21.581991,544625,1499567064,389567551,,0.780606023711,0.401323484603,0.166286481467,0.623337078142,0.779341817611,0.0569543667896,0.028868987503,-0.0220572273713,0.0395896594647,-0.00969371020691,0.0641886610755,0.0472548374246,0.0185639611016,4.57675123215,1.23810863495,-1.02382850647,-0.710907936096,1.69748389721,-0.00450199283659
2017/07/09/10:24:21.592160,544626,1499567064,399568549,,0.780859350319,0.401691538938,0.166026557251,0.623099340994,0.779509284157,0.0572876998156,0.0288202466418,0.000496753357938,0.0254009082371,0.00545503437518,0.0788916122461,-0.000143946161804,-0.0455726526087,4.68043041229,1.37842345238,-0.973585665226,-0.75780570507,1.762409091,0.0131155401468
2017/07/09/10:24:21.601910,544627,1499567064,409570165,,0.781587432862,0.401186460224,0.16702984106,0.623227899444,0.779337812022,0.0578178608432,0.0296083615587,0.00854127421096,0.0132048055912,0.00766120794298,0.0530898826141,-0.0125440271734,-0.0174564755776,4.53298521042,1.27057266235,-0.958272218704,-0.747453629971,1.70471775532,-0.0208429209888
2017/07/09/10:24:21.612007,544628,1499567064,419575645,,0.78079130875,0.401929634539,0.166461845594,0.623294729873,0.779341529804,0.057468881836,0.0287712922024,0.00637919360446,0.00536620015343,0.00370567043352,0.025589166563,-0.00777713566081,-0.00507588156772,4.43286132812,1.34559965134,-0.947160720825,-0.797334849834,1.63901293278,-0.0159434750676
2017/07/09/10:24:21.622168,544629,1499567064,429565626,,0.781110230135,0.401559973026,0.166432686519,0.623695191157,0.778998027681,0.0578437183122,0.0286441206712,-0.0129614863118,-0.00697866741813,-0.0176597314472,0.00269140304658,0.0410875560449,-0.0229525334799,3.93756079674,1.18505907059,-0.93531358242,-0.679596424103,1.47059857845,0.0367078110576
2017/07/09/10:24:21.632097,544630,1499567064,439573513,,0.781176965947,0.400744366451,0.166327612841,0.623609755969,0.779097245285,0.0571049891014,0.0292809642827,-0.0100348812149,-0.0223809938812,-0.0113413117529,-0.033093998696,0.0290967821537,-0.0109923741275,4.27374362946,1.22287762165,-0.901834309101,-0.883799731731,1.51184928417,0.0326731987298
2017/07/09/10:24:21.641930,544631,1499567064,449568260,,0.781188837604,0.401282929383,0.166212854366,0.623161668981,0.779445082324,0.0572304715983,0.0293184425683,0.0238481517227,-0.0194133827872,0.0171135593911,-0.0596716626669,-0.0614657583688,0.0214574204052,4.38491392136,1.56952571869,-0.8360029459,-1.17682135105,1.51261150837,-0.048119250685
2017/07/09/10:24:21.652056,544632,1499567064,459582521,,0.781395204058,0.40007051253,0.166318316353,0.623529229743,0.779169188342,0.056610819388,0.0300314955044,0.00932990920498,-0.0502354564471,-0.0118116766214,-0.106637123652,-0.00939268579613,0.0105927148231,3.83919119835,1.41451573372,-0.87625682354,-1.00012004375,1.31779336929,-0.0228523332626
2017/07/09/10:24:21.661783,544633,1499567064,469569098,,0.781360202601,0.400017013771,0.166032633824,0.62285725157,0.779732585153,0.0561518825122,0.030214332829,0.00660133961237,-0.0551479165964,-0.0168750112069,-0.141448107808,-0.00866479953685,0.0411137089231,3.99584341049,1.33800065517,-0.722124874592,-0.94833868742,1.40032017231,-0.0371481627226
2017/07/09/10:24:21.674337,544634,1499567064,479575042,,0.781149541446,0.398639545854,0.165587990617,0.622995903961,0.779683577577,0.0550150877463,0.0307076965114,0.000581257490117,-0.0587093857713,-0.0215424930051,-0.158791145383,-0.0026895145442,0.0491262758999,3.65139079094,1.23401868343,-0.560953021049,-0.748739659786,1.29949593544,-0.0170411616564
2017/07/09/10:24:21.682022,544635,1499567064,489567814,,0.781575310471,0.399118722868,0.165852940742,0.622568053814,0.779972804232,0.0555635127119,0.0310505891118,0.0115226241138,-0.0407137041124,-0.00671004576197,-0.101475963543,-0.0235643804429,0.0386587956906,3.3688454628,1.33196008205,-0.401506602764,-0.75280970335,1.20107388496,-0.0341364517808
2017/07/09/10:24:21.692237,544636,1499567064,499573038,,0.781323416304,0.397982055696,0.165546527298,0.623126771925,0.779585617957,0.0546282044476,0.031225785246,0.00775104846621,-0.0411204155809,-0.0117284095344,-0.0857190896777,-0.012651214908,0.0119673118174,3.62451672554,1.40699088573,-0.426532536745,-0.833091616631,1.30500912666,-0.0651470944285
2017/07/09/10:24:21.701997,544637,1499567064,509570600,,0.781490921254,0.398533083589,0.165587625452,0.622942313015,0.77970556895,0.0550989690083,0.0310838224691,0.00540407814561,-0.0430828640269,-0.0243526869165,-0.0506696846627,0.0115809050043,-0.0373605652048,3.1714887619,1.32466769218,-0.209758251905,-0.704857885838,1.18139111996,0.00219775363803
2017/07/09/10:24:21.712230,544638,1499567064,519566935,,0.781630962532,0.397691780527,0.165001814611,0.623272123245,0.779466527384,0.054657970011,0.0312457899141,0.0053892035006,-0.028450158098,-0.00211658297886,-0.0206750699666,-0.00344584891682,-0.0260213088626,3.14186143875,1.50589799881,-0.106626115739,-0.84381121397,1.15685403347,-0.0699553191662
2017/07/09/10:24:21.722347,544639,1499567064,529567837,,0.781738300586,0.397850415115,0.16506034272,0.623042012568,0.779630376845,0.054993049881,0.0311591165047,0.00758445648019,-0.0219995809505,0.00176897291846,0.0127499333875,-0.00365515164746,-0.0501163001722,2.70667815208,1.67880725861,-0.0612695291638,-0.968784093857,0.998504042625,-0.117276802659
2017/07/09/10:24:21.732199,544640,1499567064,539573863,,0.781528988551,0.397925734837,0.164986305013,0.623274168764,0.779451330919,0.0551242371095,0.030761205503,0.00418213893599,-0.0212918275029,-0.0160925044451,0.0239610627856,0.0180988449505,-0.0474837425249,2.1982626915,1.50404894352,-0.0370136424899,-0.927585422993,0.778412640095,-0.119132891297
2017/07/09/10:24:21.741853,544641,1499567064,549566440,,0.781566203989,0.396858369143,0.164755986481,0.623847398299,0.779016979332,0.0545951840975,0.0310859360751,-0.00932959010339,-0.00140834040617,-0.0240412628474,0.0203340390059,0.0415198242155,-0.0100727101131,1.49282920361,1.55771028996,0.0766029283404,-0.915121197701,0.504362940788,-0.125511974096
2017/07/09/10:24:21.752114,544642,1499567064,559568665,,0.781627455564,0.39653043535,0.164780540569,0.624066465839,0.778856237833,0.0544580267968,0.030956910721,0.00601644124764,-0.0282364086987,-0.00375864997447,0.0126455924737,0.0105553910844,-0.0554119837099,1.28476583958,1.37771499157,0.408142656088,-0.929003119469,0.454801827669,-0.134488776326
2017/07/09/10:24:21.762050,544643,1499567064,569574959,,0.781727909846,0.396816534168,0.164935822531,0.624181448697,0.778747121463,0.0548077340465,0.0307660885461,0.00237813208143,-0.0427768282714,-0.00930628776882,-0.0127850070336,0.0242489564847,-0.0620954579341,1.28550553322,1.46366763115,0.384076654911,-0.963576436043,0.414707303047,-0.149774566293
2017/07/09/10:24:21.772018,544644,1499567064,579593143,,0.781743706472,0.396164996575,0.16455722441,0.62456507212,0.77845397571,0.0546016201503,0.0307659140413,-0.0140188417065,-0.0449327129507,-0.0345466919805,-0.000561287400253,0.0733928209913,-0.0789770448569,1.47452354431,1.51051163673,0.459122717381,-0.924126207829,0.480121940374,-0.108219258487
2017/07/09/10:24:21.782038,544645,1499567064,589568709,,0.781394878397,0.395930505915,0.164217736436,0.624722207908,0.778365566625,0.0542622886088,0.030410716427,-0.0149786634097,-0.0323187873878,-0.0318226983799,-0.00425012064174,0.0611559221124,-0.0706732622004,1.97273468971,1.59467566013,0.520782589912,-1.02083420753,0.610720396042,-0.162702322006
2017/07/09/10:24:21.791924,544646,1499567064,599584361,,0.781021820844,0.395885930444,0.164011570535,0.625217500352,0.777999335789,0.0540720222443,0.0299387236861,-0.0203863256458,-0.0342356410333,-0.0205765512982,0.00315444483437,0.0649970055081,-0.100999431013,1.91773712635,1.55290913582,0.8138910532,-0.931669414043,0.583127975464,-0.114164844155
2017/07/09/10:24:21.801985,544647,1499567064,609569231,,0.781238918537,0.395336069176,0.16396014273,0.625727674469,0.777584194092,0.0541930044081,0.0298465538102,-0.0233308427221,-0.0264101269683,-0.0343071365655,0.0289397825977,0.0863251918501,-0.107205598621,2.39573669434,1.50731122494,0.852413535118,-0.957837939262,0.705707609653,-0.113947227597
2017/07/09/10:24:21.812152,544648,1499567064,619566735,,0.780336874483,0.394852515954,0.163109488249,0.625792240896,0.777629674312,0.0531356011557,0.0292022046214,-0.0238396451435,-0.0571069547785,-0.0326835385511,-0.0143043913438,0.0919021602966,-0.102857026608,2.33394956589,1.71728372574,1.06180858612,-1.06583583355,0.636416077614,-0.128283709288
2017/07/09/10:24:21.822167,544649,1499567064,629566915,,0.780170574131,0.394442637696,0.162766394273,0.626170846919,0.777332198682,0.05308787322,0.0290929729863,-0.0227364473181,-0.0589374109258,-0.0252843691872,-0.00885687357404,0.0903940318223,-0.12395597471,2.3296957016,1.49815917015,1.23818075657,-0.98205935955,0.613222718239,-0.126465260983
2017/07/09/10:24:21.832222,544650,1499567064,639570441,,0.780751073212,0.393345294152,0.163059057752,0.627000585656,0.776651903929,0.0531521001238,0.0292735369163,-0.00595305220589,-0.0504722300731,-0.0220413800047,0.0120845470211,0.0464049961365,-0.139193494143,2.00583696365,1.53756606579,1.73422455788,-1.03410995007,0.513848662376,-0.124300643802
2017/07/09/10:24:21.842324,544651,1499567064,649567903,,0.780758890695,0.392810439533,0.162876804294,0.627967586717,0.775889061396,0.0530569802822,0.0289453153895,-0.00139789237541,-0.0550205342426,-0.0231596877678,0.000923642348639,0.0466932127226,-0.1289903534,2.43404889107,1.51726269722,1.48679852486,-1.0255241394,0.659400224686,-0.0985444262624
2017/07/09/10:24:21.852045,544652,1499567064,659567216,,0.78020486808,0.391994690376,0.162329042175,0.62798569968,0.775945602517,0.0521101075221,0.0287562102145,-0.00017513932917,-0.0564212246638,-0.0176932601451,-0.00937125438326,0.0439149266085,-0.126929652593,1.50327467918,1.18619573116,1.07229459286,-0.849401652813,0.286044806242,-0.0796886384487
2017/07/09/10:24:21.862354,544653,1499567064,669571303,,0.780410982648,0.391703444526,0.161989367279,0.628298344431,0.775674771232,0.0524186064352,0.0286727982402,0.0060336827505,-0.0714177137094,-0.0112924525341,0.0147671978018,0.0305017152506,-0.149286615006,1.04015862942,1.29733645916,0.735748589039,-0.912656903267,0.0916833058,-0.0969491228461
2017/07/09/10:24:21.872078,544654,1499567064,679565631,,0.780426908913,0.391220447286,0.162257742128,0.628963969558,0.775131617118,0.0525587878837,0.0285109620725,0.00217412722425,-0.0620354520055,-0.023438233277,0.0104067669067,0.0289325831282,-0.108272126542,1.29698848724,1.24539208412,0.760311067104,-0.799073696136,0.250768095255,-0.00628110021353
2017/07/09/10:24:21.882147,544655,1499567064,689565589,,0.780022523209,0.38999394592,0.161186283261,0.629321503066,0.774913927976,0.0517141398527,0.0280802020406,-0.00344167765149,-0.076531094281,-0.030235608285,-0.00972098144356,0.0441283535352,-0.109774442762,1.71651673317,1.44367325306,1.10340952873,-0.930125296116,0.378563523293,-0.0390689000487
2017/07/09/10:24:21.892046,544656,1499567064,699572552,,0.780440249894,0.389467872437,0.161792121214,0.629979958262,0.774339481573,0.0521877480629,0.0282853039135,-0.00106527986966,-0.0858330459332,-0.0185021224819,-0.00518142051181,0.0434665349688,-0.10091032296,1.63948523998,1.36055481434,1.15199828148,-0.877573549747,0.340552806854,-0.0249308049679
2017/07/09/10:24:21.902197,544657,1499567064,709570363,,0.780180405933,0.389032854479,0.161191264137,0.630110295427,0.774271280632,0.0517998867505,0.0279601737699,-0.00697412580752,-0.0658759277588,-0.0116230143834,0.0137175418435,0.0511240333067,-0.0963341473563,1.54193663597,1.3446726799,1.35934209824,-0.879746973515,0.270528465509,-0.0312422737479
2017/07/09/10:24:21.912212,544658,1499567064,719573346,,0.780948616517,0.387574419595,0.161404521485,0.630587668683,0.77385422867,0.0519998400888,0.0283697286873,-0.00809232342502,-0.0801978705898,-0.0210440177143,-0.00508121865523,0.0642023345547,-0.0992033822743,1.21579933167,1.31621110439,1.45267498493,-0.861791491508,0.115947924554,-0.0411358177662
2017/07/09/10:24:21.922215,544659,1499567064,729569769,,0.779967391552,0.386740980063,0.160620413251,0.631159693976,0.773488467734,0.0509677976832,0.0274829871343,0.00238235360813,-0.0945455592742,-0.0164174043072,-0.0173626568265,0.0441180968604,-0.124675712711,1.41361749172,1.38964366913,1.40520894527,-0.934293866158,0.171877935529,-0.060985147953
2017/07/09/10:24:21.932050,544660,1499567064,739573197,,0.780254889488,0.385961758935,0.160640143947,0.631746468137,0.772994869001,0.0511175305559,0.0276103343688,-0.00708929499826,-0.0946544371623,-0.019452235826,-0.0223639367681,0.0625246525284,-0.137411508147,1.56013011932,1.32358574867,1.45715749264,-0.893362939358,0.274953335524,-0.0345662161708
2017/07/09/10:24:21.942099,544661,1499567064,749587447,,0.780555738162,0.385307920497,0.161231133304,0.631999744903,0.772768263093,0.051368728764,0.0276909317874,0.0113222732971,-0.0898950236298,-0.0052442418581,-0.000292127561707,0.019426992889,-0.130731144008,1.33990383148,0.393941670656,1.34487402439,-0.377410471439,0.257394254208,0.1067520082
2017/07/09/10:24:21.952123,544662,1499567064,759570201,,0.780701192298,0.384023735755,0.161463440058,0.633077708738,0.771885368475,0.0514066603186,0.0276215116762,0.0113080628518,-0.097410188064,-0.00585495719947,0.0123880070561,0.0302070758192,-0.153241376231,1.54389691353,-0.50858438015,1.11789417267,0.119354642928,0.373233109713,0.246764540672
2017/07/09/10:24:21.961977,544663,1499567064,769567751,,0.780573583208,0.381724480434,0.160304910019,0.634057979281,0.771150258662,0.0505841800273,0.0271845214416,0.00519032008358,-0.148378490065,-0.0176329521755,0.00441874845046,0.0605169608099,-0.221024796898,1.1724486351,-0.786085009575,0.984880447388,0.251145720482,0.22531837225,0.273375153542
2017/07/09/10:24:21.971743,544664,1499567064,779566400,,0.780580537332,0.381038039038,0.160837324012,0.634402661417,0.770862207459,0.050653661876,0.0271832087223,0.00294354269766,-0.152786897661,-0.0256684371369,-0.000206328450296,0.0721136379137,-0.198330820691,1.15378654003,-0.445622682571,0.668836712837,0.0365180745721,0.157257407904,0.199899688363
2017/07/09/10:24:21.981831,544665,1499567064,789567002,,0.780451870238,0.379655716384,0.16030356046,0.63537871966,0.770098086913,0.0503609649946,0.0265818047164,0.00866177332643,-0.125034936661,-0.00697356194084,0.0180928982999,0.0532169849833,-0.190436570112,1.18524122238,0.254743099213,0.70233476162,-0.386738747358,0.0825912505388,0.134666219354
2017/07/09/10:24:21.992121,544666,1499567064,799570008,,0.780701599508,0.378330140386,0.160085997167,0.636655054383,0.769038552756,0.050595040306,0.0262714293316,0.00892537807775,-0.124709023808,-0.0122238464882,0.0142899924844,0.0566981216329,-0.201501490552,0.923725068569,0.897503256798,0.572340667248,-0.76552760601,-0.121737957001,-0.015866830945
2017/07/09/10:24:22.001813,544667,1499567064,809568799,,0.780499622671,0.377188422598,0.159674572474,0.636704801699,0.769040382114,0.0499515301936,0.0262436812014,-0.00103516687388,-0.14797342559,-0.0265182124279,0.00993973716811,0.0773534780922,-0.206581135338,0.915812492371,0.916764736176,0.748173952103,-0.751480698586,-0.124445274472,0.0176762789488
2017/07/09/10:24:22.011911,544668,1499567064,819572773,,0.781239564922,0.375762724938,0.159960427639,0.637644965689,0.768221750959,0.050390812491,0.0265519321583,0.00260649754892,-0.156377977921,-0.0195642625992,-0.0285741696889,0.0455842599769,-0.172117379178,1.16402423382,1.10719227791,0.8513905406,-0.827958285809,-0.0238664746284,-0.00207324326038
2017/07/09/10:24:22.021932,544669,1499567064,829568563,,0.780790610239,0.374220194915,0.159891363907,0.638133756376,0.767871540706,0.0495952046851,0.0264371257975,0.0119951893416,-0.145578516101,-0.0157824762735,-0.0319670003153,0.025570287423,-0.190242023749,1.94787180424,1.15488839149,0.926093459129,-0.789237439632,0.32253664732,-0.00664954632521
2017/07/09/10:24:22.031960,544670,1499567064,839566757,,0.78132145068,0.372653956447,0.159777511797,0.638923516012,0.767205657144,0.0494805789862,0.0269052529517,0.00886208768752,-0.147655947316,-0.0199809042168,-0.0376371214914,0.0419557699701,-0.181989569181,2.59986233711,1.00148940086,0.685094773769,-0.6369535923,0.537568330765,0.0978688150644
2017/07/09/10:24:22.042002,544671,1499567064,849565717,,0.781423762434,0.371276765791,0.159482784462,0.639550997259,0.766687278998,0.049531742022,0.0266785430558,0.0125320197414,-0.16290347179,-0.0174973175418,-0.0159163574811,0.0364958810743,-0.228880253684,2.11239528656,0.878254592419,0.676614046097,-0.518764138222,0.343148708344,0.0747389271855
2017/07/09/10:24:22.052091,544672,1499567064,859571549,,0.781580300493,0.36931422907,0.159472327136,0.640732112357,0.765714156714,0.0493456256911,0.0266308022395,0.0259757131868,-0.180591552723,-0.00587250582781,0.00261427164557,0.0120214419001,-0.249497360649,2.36082434654,0.610503196716,0.653236269951,-0.377360582352,0.404717892408,0.142657160759
2017/07/09/10:24:22.062138,544673,1499567064,869574277,,0.781497263779,0.367545342648,0.158899828814,0.641627068777,0.765008739767,0.0488565661728,0.0262558304865,0.0139644073788,-0.190073551908,-0.014584357566,-0.00903172026588,0.0450231491043,-0.263765045852,1.71548211575,0.575341463089,0.683044672012,-0.361921548843,0.180290699005,0.153402611613
2017/07/09/10:24:22.072005,544674,1499567064,879574561,,0.781511375117,0.365781039596,0.158623754711,0.642647575588,0.764162942028,0.0487899124443,0.0260506442479,0.0247310895026,-0.192284534939,-0.0155442032539,-0.00216224097748,0.0190043920822,-0.271024429171,1.78338503838,0.565044701099,0.640819728374,-0.440388441086,0.182635635138,0.104590415955
2017/07/09/10:24:22.082219,544675,1499567064,889566806,,0.782397909533,0.364627123827,0.159532709993,0.643522715992,0.763366109999,0.0494948937594,0.0264754905482,0.0258485587625,-0.175886323471,-0.00727856654813,0.0384275442528,0.0151523419354,-0.275111298353,1.36641514301,0.525652647018,0.810206711292,-0.412897467613,0.0778827816248,0.130376458168
2017/07/09/10:24:22.092068,544676,1499567064,899569492,,0.782300630734,0.361805034833,0.158784358885,0.644673220352,0.762442253157,0.0487687391425,0.0264548604929,0.0316954253288,-0.191008575043,-0.00866149000999,0.00590091671746,0.000230875694995,-0.281687310843,1.05172288418,0.529743552208,0.901493608952,-0.427705049515,-0.0210547782481,0.102481275797
2017/07/09/10:24:22.101919,544677,1499567064,909566157,,0.782972960993,0.360301039132,0.158885464049,0.645474841016,0.761749707722,0.0488566956081,0.0266952373061,0.0291365190228,-0.178559340847,-0.00684809492006,0.0110791565296,-0.00241197245437,-0.263731514941,0.506887316704,0.496631115675,1.04654562473,-0.405164718628,-0.241680085659,0.135529726744
2017/07/09/10:24:22.112095,544678,1499567064,919573589,,0.782985814434,0.357779493123,0.158726799752,0.64677171383,0.760675893289,0.0485102335151,0.0265573493256,0.0183949180756,-0.218717248914,-0.0138807518149,-0.021052410705,0.032860768905,-0.295802942503,0.349031865597,0.426589548588,1.07654488087,-0.420539736748,-0.310236752033,0.0909879878163
2017/07/09/10:24:22.122136,544679,1499567064,929573025,,0.783070609308,0.355188658675,0.158301132354,0.648142770774,0.759538415812,0.0480252748966,0.0265690905043,0.00501029867029,-0.221345515493,-0.0246114091188,-0.0225108399046,0.0591206518446,-0.283864429264,0.334099769592,0.456013649702,1.07418048382,-0.381677985191,-0.318489313126,0.110905468464
2017/07/09/10:24:22.132106,544680,1499567064,939596389,,0.783289331467,0.354174045572,0.158627075175,0.648817144821,0.758941242776,0.0483977782121,0.026498257754,0.0299291554128,-0.215661566595,0.00658184548043,-0.021440573171,-0.00364899381641,-0.291463179972,0.235471144319,0.329021126032,1.30496275425,-0.308462560177,-0.326317667961,0.132369756699
2017/07/09/10:24:22.141832,544681,1499567064,949567501,,0.783490362832,0.35184279436,0.158393869498,0.650180993061,0.757783695811,0.0483530684565,0.0262778879848,0.0338003091123,-0.226364545278,-0.00181173854954,-0.00651503473813,-0.00395589650883,-0.319775148657,0.462906122208,0.380835711956,1.34466826916,-0.306601703167,-0.227589219809,0.143369719386
2017/07/09/10:24:22.151956,544682,1499567064,959573235,,0.783441778992,0.349258787894,0.158022238661,0.6513408195,0.756822182735,0.0477337134281,0.0263972190801,-0.00271813870051,-0.218152858438,-0.0202240737821,-0.0124981263348,0.0684312613894,-0.294563059256,0.997885584831,0.354161053896,1.46874606609,-0.270475268364,-0.000664532184601,0.154298990965
2017/07/09/10:24:22.162082,544683,1499567064,969568365,,0.783669987217,0.347126429114,0.158292248447,0.652190020291,0.756089420156,0.0476314229586,0.0266122848981,0.0204686003877,-0.233176219994,-0.00701405285151,-0.0121777287354,0.0209865761609,-0.320408038293,0.97006726265,0.250966668129,1.39255738258,-0.237360998988,-0.00817374885082,0.169230312109
2017/07/09/10:24:22.172006,544684,1499567064,979574495,,0.78396384972,0.344476794337,0.158288621326,0.654010890301,0.754529868176,0.0474816637608,0.0264560957938,0.00780324630233,-0.239803234343,-0.0128150727388,-0.0166199315289,0.0527608929531,-0.328861949343,0.858642816544,0.146330565214,1.29886901379,-0.168711483479,-0.0598363317549,0.187337234616
2017/07/09/10:24:22.182072,544685,1499567064,989574908,,0.784076617124,0.343343585087,0.158275268177,0.654501491506,0.754092783333,0.0477405908339,0.0263193413261,0.015204945709,-0.229006909638,0.00726668749149,0.00872357940183,0.0243354715495,-0.316048151003,0.427787214518,0.25449681282,1.22293365002,-0.27393424511,-0.256093800068,0.119610488415
2017/07/09/10:24:22.191986,544686,1499567064,999572158,,0.784215521632,0.339912465203,0.158244121378,0.656222910711,0.752621929516,0.0471158951042,0.0266798631506,0.00749971601207,-0.22772799061,-0.0134546738147,0.0130966664424,0.048128385127,-0.333152268543,0.665714204311,0.256443053484,1.08933496475,-0.243436440825,-0.158958956599,0.158583402634
2017/07/09/10:24:22.202033,544687,1499567065,9567089,,0.784059674782,0.33772877325,0.157620662643,0.657607943542,0.751446520425,0.0469292690009,0.0260300450045,0.0270257559975,-0.265407443982,0.00327659576859,-0.00463721830923,0.00421057074678,-0.36887320992,0.945656716824,0.481517851353,1.00548493862,-0.388683646917,-0.0742007270455,0.109828576446
2017/07/09/10:24:22.211992,544688,1499567065,19570841,,0.784682274572,0.334885901847,0.158081130297,0.658776763581,0.750408478036,0.0468854545967,0.0264961507629,0.0141368718205,-0.258682654994,-0.0102905138403,-0.0148577526406,0.0347421027527,-0.34143979389,1.22801840305,0.204274356365,0.90423822403,-0.199109897017,0.123151063919,0.180208668113
2017/07/09/10:24:22.221910,544689,1499567065,29565120,,0.784796714736,0.332550145644,0.158144740877,0.659911039344,0.749414108031,0.0468130381584,0.0265415578841,0.0266161646281,-0.268209428771,-0.000111955583983,-0.0170265634477,0.0109341042874,-0.348781771476,1.41954433918,0.242879062891,0.750688433647,-0.259293854237,0.244057834148,0.180823326111
2017/07/09/10:24:22.232178,544690,1499567065,39581117,,0.784956845599,0.329980800735,0.158309464891,0.661408476525,0.748102910303,0.0467013611492,0.0264545958872,0.0172010485637,-0.274385003263,-0.00176934470676,-0.0139967964167,0.0311013070572,-0.37376202815,1.42540311813,0.0943655073643,0.766867101192,-0.106421753764,0.310798048973,0.208837792277
2017/07/09/10:24:22.241910,544691,1499567065,49568431,,0.785213821577,0.326700511693,0.158034493972,0.662878021561,0.746819223947,0.0462406720098,0.0267502434717,0.00347500168999,-0.288230199562,-0.0113398024033,-0.0147996130293,0.0608116607524,-0.389033106875,0.975750565529,0.11567106843,0.724663496017,-0.180214136839,0.118671528995,0.176167979836
2017/07/09/10:24:22.251916,544692,1499567065,59578534,,0.784361918544,0.32503200736,0.157663149252,0.664102080001,0.745798372448,0.0457077764029,0.0257684723776,-0.0063314766189,-0.282516812222,-0.00680918537169,-0.00462929108777,0.0760349978993,-0.383358793866,0.349398374557,0.0952371358871,0.761243164539,-0.156766027212,-0.125655815005,0.166118234396
2017/07/09/10:24:22.262061,544693,1499567065,69566512,,0.784612572288,0.32158127232,0.157820943477,0.665426712336,0.744626271343,0.0453012029823,0.0262070132545,-0.0110895026824,-0.282507275336,-0.0201237639805,-0.0239035410151,0.0951511851957,-0.371136542945,0.605051577091,0.129875302315,0.698028802872,-0.180833518505,-0.051318384707,0.151364713907
2017/07/09/10:24:22.272361,544694,1499567065,79571140,,0.784440009552,0.319237553547,0.157335463136,0.667152981348,0.743112393592,0.0452222380355,0.025412972193,0.00287865984821,-0.285878823489,-0.0120694546237,0.00235336407747,0.060541301107,-0.396050420754,0.680174350739,0.155521392822,0.90309971571,-0.184026643634,-0.00932319834828,0.181660428643
2017/07/09/10:24:22.282422,544695,1499567065,89568049,,0.783905092528,0.315783902408,0.156968302587,0.66855416072,0.741924509634,0.0442744547882,0.0249625487825,-0.0220595021418,-0.294007389144,-0.0183067497437,-0.00465774307969,0.112296970883,-0.407690520831,1.0331864357,0.271707475185,0.857703030109,-0.255698740482,0.069923505187,0.148338168859
2017/07/09/10:24:22.292272,544696,1499567065,99573213,,0.78420633861,0.313004061766,0.157317998116,0.670195112727,0.740431434347,0.044441867842,0.0249944452067,-0.0278930308012,-0.310911754325,-0.0260203203795,-0.0116601816522,0.125467596142,-0.422066717021,0.815587222576,-0.61512774229,0.86410343647,-0.120809733868,-0.0632857680321,0.158115372062
2017/07/09/10:24:22.302155,544697,1499567065,109573017,,0.78377257443,0.309725402141,0.156490211945,0.671762539344,0.739077056761,0.043445642788,0.0247521923437,-0.0195976371768,-0.295252161552,-0.00658053832099,-0.0299009559335,0.0933956914343,-0.393509963539,0.724878132343,-0.561608314514,0.832961559296,-0.107877030969,-0.0809440016747,0.180621683598
2017/07/09/10:24:22.312083,544698,1499567065,119596175,,0.783542103896,0.307045671223,0.156564459791,0.673059757139,0.737920729707,0.0431586464041,0.0245130828148,-0.0222848807272,-0.307921155874,-0.0256813622762,-0.034324998883,0.106388326281,-0.399276957935,0.815521240234,-0.422228932381,0.463161677122,-0.153386428952,-0.0438697114587,0.19712266326
2017/07/09/10:24:22.322168,544699,1499567065,129566755,,0.782856225165,0.304791183439,0.155841880959,0.674230707385,0.736915935115,0.0425156941731,0.0236700980574,-0.0415454693332,-0.293468331818,-0.0378457420931,-0.0102285769086,0.157992092493,-0.398543910079,0.683156073093,-0.157650396228,0.118347018957,-0.244865655899,-0.0488458834589,0.16302151978
2017/07/09/10:24:22.332187,544700,1499567065,139573584,,0.783167792408,0.300808500194,0.155612997881,0.676062667714,0.735250587812,0.0421800259842,0.0238052064247,-0.02603249754,-0.301329402817,-0.0331229426319,0.0176768633111,0.116744306861,-0.422170046332,1.06951594353,-0.454235762358,-0.0220912098885,-0.257138967514,0.1274330616,0.13431558013
2017/07/09/10:24:22.342269,544701,1499567065,149567306,,0.78211873472,0.298466050002,0.155058425393,0.677236589845,0.734244739869,0.041245448917,0.0231100907386,-0.0198397500239,-0.326899318574,-0.0318873414238,-0.0167731680694,0.103985618363,-0.41318234507,1.03887844086,-0.335860311985,-0.0201868787408,-0.18979254365,0.138703748584,0.179669782519
2017/07/09/10:24:22.352228,544702,1499567065,159567393,,0.782563113107,0.295460720954,0.155083654445,0.678669189359,0.732910897287,0.0412861042528,0.0233496391307,-0.0420293316963,-0.297468024133,-0.03792781997,-0.0316869609792,0.127701360374,-0.392077311051,1.01947069168,-0.435802817345,0.377742767334,-0.251672506332,0.170022130013,0.117524504662
2017/07/09/10:24:22.362036,544703,1499567065,169567739,,0.782136014317,0.292265826153,0.154619832515,0.680334506119,0.731406256356,0.040787340853,0.0229399383942,-0.0374427024755,-0.291856424786,-0.0474443805716,0.00876082478176,0.132541229685,-0.413383078498,0.305526137352,-0.79317009449,0.579719305038,-0.131692439318,-0.0462287403643,0.151051491499
2017/07/09/10:24:22.372010,544704,1499567065,179570985,,0.781858134289,0.289781102005,0.154321271312,0.681587501851,0.730276649638,0.0402541916323,0.0226736051525,-0.0309086886949,-0.289502430756,-0.0361652444657,0.00192226316005,0.11184721343,-0.399592691001,0.0653631687164,-0.68814599514,0.663604617119,-0.139793634415,-0.077873043716,0.131768301129
2017/07/09/10:24:22.381922,544705,1499567065,189566844,,0.780676599263,0.28701648688,0.153212130607,0.683379974814,0.728689704138,0.0394484497768,0.0211410718182,-0.0507291552054,-0.29819677083,-0.0575948482875,-0.00472412800174,0.159940265717,-0.405546167707,0.0178212486207,-0.51400667429,0.525174438953,-0.199614644051,-0.0601604878902,0.133051842451
2017/07/09/10:24:22.392063,544706,1499567065,199565684,,0.780903676349,0.28393630933,0.15306058496,0.684673835296,0.727466943012,0.0393613168862,0.0215469909639,-0.0595158616341,-0.3306092321,-0.0665623452488,-0.0089382092114,0.183562646878,-0.442259048166,-0.123166516423,-0.744526147842,0.530148983002,-0.144203424454,-0.189488753676,0.121278434992
2017/07/09/10:24:22.401834,544707,1499567065,209569528,,0.779936327105,0.280653861721,0.152210949986,0.685962996963,0.726335463352,0.0379203925076,0.0212980117831,-0.0513477711121,-0.338804070121,-0.0578269363134,-0.0416417309535,0.159239231898,-0.430052609716,0.060591544956,-0.53405970335,0.34576934576,-0.167673528194,-0.100506536663,0.0991474911571
2017/07/09/10:24:22.412107,544708,1499567065,219573614,,0.779824333622,0.278064879371,0.151880806863,0.687388066502,0.725001739837,0.0379990631203,0.0206444778839,-0.056920632283,-0.314576487641,-0.0657713394426,-0.0131468024416,0.16670533671,-0.405226771689,0.125044330955,-0.567470610142,0.398334890604,-0.168536394835,-0.13537940383,0.101579174399
2017/07/09/10:24:22.421950,544709,1499567065,229573574,,0.779586087175,0.274520673966,0.151400993761,0.689352877055,0.723164147178,0.037610262619,0.0202902754424,-0.0484296429171,-0.290614781153,-0.0597363992106,0.0162492043473,0.144923608558,-0.390925690343,0.788824737072,0.0671892315149,0.381788223982,-0.535818696022,0.101709663868,0.0156857520342
2017/07/09/10:24:22.432036,544710,1499567065,239573910,,0.77856778456,0.272102407775,0.150663995418,0.690128884237,0.72249114552,0.0365059628141,0.0198993081622,-0.058747684044,-0.29676724469,-0.0709889726587,-0.0103025653117,0.166270296001,-0.389089654648,1.39928269386,1.24086308479,0.333142220974,-1.1472069025,0.370081305504,-0.0855334848166
2017/07/09/10:24:22.441992,544711,1499567065,249565437,,0.777814083038,0.269237832117,0.149146221414,0.691394773308,0.7213535211,0.0353873519423,0.0192379926697,-0.0555636095762,-0.307284280149,-0.0890191178751,-0.0413486037082,0.177666769418,-0.39045624977,0.644017338753,1.56139552593,0.307949930429,-1.40221655369,0.121256038547,-0.161912024021
2017/07/09/10:24:22.452093,544712,1499567065,259573823,,0.77725466589,0.266368805854,0.147924240084,0.693033879477,0.719824557009,0.0348393981372,0.018516623916,-0.0597323284297,-0.322509253486,-0.085402303095,-0.0526697451422,0.169849147473,-0.399146861399,0.19736546278,1.18963861465,0.141189306974,-1.1553235054,-0.0781472474337,-0.0962792485952
2017/07/09/10:24:22.462397,544713,1499567065,269573569,,0.777299230166,0.261635696981,0.147569380067,0.694727043703,0.718219526691,0.0336249420066,0.0196063638216,-0.0601728856679,-0.323812864735,-0.0929202827034,-0.0871497424041,0.167084875337,-0.375545196153,-0.282857745886,0.0701136887074,0.255110740662,-0.675924539566,-0.289537042379,0.0128298923373
2017/07/09/10:24:22.472090,544714,1499567065,279574061,,0.776615623214,0.259137079694,0.146845421124,0.695719654656,0.717305641965,0.0330254025997,0.0188706362906,-0.0364902187988,-0.362691136283,-0.0772754665203,-0.123823372371,0.111232630596,-0.395512585672,-0.931863903999,-0.481125861406,0.353387415409,-0.255253225565,-0.481083333492,0.0458266846836
2017/07/09/10:24:22.482124,544715,1499567065,289572929,,0.776342984562,0.255403131008,0.146198051295,0.697038391287,0.716049768459,0.0321028527361,0.0194837627014,-0.0360939943879,-0.36624543343,-0.0730773959478,-0.146137023615,0.099907927942,-0.368200731249,-0.540328979492,-0.917574763298,0.27380284667,-0.0197952538729,-0.314262747765,0.127417773008
2017/07/09/10:24:22.492124,544716,1499567065,299579181,,0.776083230146,0.252143521203,0.145420094037,0.69832057161,0.714836319361,0.0313186720907,0.0194050655007,-0.0481000496689,-0.343326038569,-0.0841023121282,-0.124800433802,0.137815656728,-0.343480247658,-0.481123954058,-0.741986274719,-0.0115949120373,-0.115431018174,-0.346897989511,0.0871954709291
2017/07/09/10:24:22.502115,544717,1499567065,309567726,,0.775069702574,0.249014691692,0.14419568221,0.699640665328,0.713614843456,0.03001491957,0.0188652914636,-0.0480204915628,-0.338301047769,-0.093496480456,-0.0926903031015,0.142034407196,-0.362627192331,-0.257437169552,-0.603373587132,-0.0781976133585,-0.295513510704,-0.230926960707,0.0387422256172
2017/07/09/10:24:22.512239,544718,1499567065,319575160,,0.774900520127,0.246283918706,0.14332608434,0.700428917648,0.712861904582,0.0294162457754,0.0190242162341,-0.061150661248,-0.307200033438,-0.10808388894,-0.0991883902191,0.171856365356,-0.31625837482,-0.0323042944074,-0.255554109812,-0.423107862473,-0.484746932983,-0.128414735198,-0.00336074829102
2017/07/09/10:24:22.522156,544719,1499567065,329566087,,0.773997678791,0.242858347101,0.142144180218,0.702073475787,0.711308943038,0.0281461321919,0.0184449828684,-0.0713695789946,-0.312383758097,-0.118336262871,-0.0776053213451,0.196637349932,-0.37115933022,-0.0780257433653,-0.230420023203,-0.289542555809,-0.526967942715,-0.189559087157,-0.0353398248553
2017/07/09/10:24:22.532065,544720,1499567065,339573429,,0.773286631025,0.240670174544,0.140803168509,0.703182105903,0.710254282299,0.0277048797869,0.017499144265,-0.0763512589115,-0.298229182447,-0.118840136252,-0.0624439373688,0.21196455521,-0.332722216746,-0.772920191288,-0.0968057513237,-0.0973177179694,-0.397012084723,-0.444449394941,-0.0271768420935
2017/07/09/10:24:22.541801,544721,1499567065,349566062,,0.772951594613,0.236885199725,0.140284429539,0.704270341566,0.709206753421,0.0265469599239,0.0180090480424,-0.0712827345509,-0.300710903461,-0.117208739859,-0.052854080021,0.196558175206,-0.342876065939,-1.38380384445,-0.452034175396,0.434430539608,-0.121219187975,-0.642747700214,-0.0125720091164
2017/07/09/10:24:22.552062,544722,1499567065,359573141,,0.772152192247,0.235196483942,0.138737017501,0.70519910302,0.708326474463,0.0260460235047,0.0170127991236,-0.0550877858725,-0.314909786994,-0.10785189868,-0.0685395255236,0.159758785119,-0.348913764702,-2.26073360443,-0.474332153797,0.408644169569,-0.0250181183219,-0.917472183704,-0.0123210772872
2017/07/09/10:24:22.562293,544723,1499567065,369566048,,0.771926751465,0.231209327328,0.137847784929,0.707447798535,0.706101059079,0.0258132236655,0.016510124123,-0.0644605678411,-0.288989579711,-0.114156182099,-0.0128042414067,0.17389694439,-0.355381853746,-2.63465666771,-1.25727164745,0.491025030613,0.115390911698,-1.120251894,-0.010135628283
2017/07/09/10:24:22.571908,544724,1499567065,379585463,,0.771320879872,0.22918665181,0.136871165961,0.708360356286,0.705214656267,0.0253874833507,0.0159175977179,-0.068458819426,-0.292826676217,-0.11532900475,0.0379969131821,0.186906402463,-0.428349505008,-2.52567243576,-0.435704410076,0.389983296394,-0.0863523036242,-1.08062803745,-0.0249247997999
2017/07/09/10:24:22.581864,544725,1499567065,389572017,,0.770479575847,0.227137111394,0.135384052098,0.709540733989,0.704081115652,0.0246600969647,0.0146153690018,-0.0885708565971,-0.272249864486,-0.136975305195,0.0621864850581,0.241692657163,-0.423150597802,-2.45442938805,0.158908158541,0.141555175185,-0.445982068777,-1.0819196701,-0.107374362648
2017/07/09/10:24:22.592132,544726,1499567065,399574019,,0.769475466218,0.224372751151,0.133893463087,0.710975494357,0.702681678447,0.0238048916221,0.0136246957073,-0.077243539918,-0.257704750286,-0.12545344673,0.0588620932336,0.223413605041,-0.404711496635,-2.59709739685,-0.343980848789,-0.2903393507,-0.267475605011,-1.14399266243,-0.0431309789419
2017/07/09/10:24:22.602009,544727,1499567065,409566106,,0.768648298191,0.2219729056,0.13287766816,0.712438989471,0.701231385797,0.0232572870669,0.0128190659612,-0.0749679381488,-0.241073056673,-0.121835535241,0.0713159878353,0.207026836551,-0.361228378247,-1.85039842129,-0.501976251602,-0.286159127951,-0.112085431814,-0.910600066185,0.000615410506725
2017/07/09/10:24:22.612178,544728,1499567065,419571235,,0.768296290435,0.220019486826,0.131920310143,0.713307860207,0.700367387811,0.0230027813633,0.0121774671745,-0.0633422523992,-0.256543975843,-0.119785200274,0.0637401218381,0.188480346586,-0.387561805176,-1.67829346657,-0.152733385563,-0.590000927448,-0.150056049228,-0.859755516052,-0.0187399610877
2017/07/09/10:24:22.621816,544729,1499567065,429572270,,0.767283483416,0.217885836618,0.130501834402,0.714595401643,0.699099885391,0.0222624122746,0.0108234558308,-0.0872679293905,-0.25026973203,-0.140910350219,0.0517846050339,0.248849445161,-0.37305727129,-1.96303939819,-0.653026938438,-0.539013624191,0.0421365685761,-0.967692613602,0.0249213799834
2017/07/09/10:24:22.632030,544730,1499567065,439569688,,0.766727459359,0.215659204963,0.128812011739,0.716025033163,0.697663241598,0.0219049062256,0.00971227525909,-0.0898309558585,-0.249481228094,-0.145950050049,0.0724528838714,0.25795335368,-0.390092830179,-1.94498968124,-0.6785800457,-0.64654737711,0.0504723452032,-1.02757799625,0.000963635742664
2017/07/09/10:24:22.641990,544731,1499567065,449569499,,0.765715144521,0.213129096761,0.127353260308,0.716879481902,0.69683326755,0.0207179499923,0.00883018756978,-0.0861934170068,-0.243733487061,-0.153988721008,0.0777047451619,0.255020625847,-0.374633340182,-1.60491585732,-0.586256027222,-0.702721357346,-0.112624391913,-0.906580686569,-0.0232944488525
2017/07/09/10:24:22.652023,544732,1499567065,459570114,,0.764954575638,0.211158275872,0.126192065232,0.718207131372,0.695486381771,0.0203322546094,0.00798803106969,-0.0811092721431,-0.244548849411,-0.139708926527,0.0625165330161,0.234371837619,-0.348521908467,-2.18650245667,-0.516795873642,-0.653842389584,-0.109857060015,-1.16506385803,-0.0334480106831
2017/07/09/10:24:22.662030,544733,1499567065,469574298,,0.764153470452,0.208453005387,0.124383329825,0.719811963064,0.693859849826,0.0195294337857,0.00691721367959,-0.0789521735452,-0.23658755972,-0.146984966988,0.0631347330817,0.228039386676,-0.37034884304,-1.88409245014,-0.464367330074,-0.552122056484,-0.250782191753,-1.03827095032,-0.0790980160236
2017/07/09/10:24:22.672200,544734,1499567065,479579255,,0.763533958933,0.20637930317,0.122992940803,0.720810520105,0.692839577159,0.0192434974776,0.0059331469838,-0.0868805537973,-0.226760331061,-0.14179329063,0.0654757709384,0.239030908332,-0.360135071564,-2.09067106247,0.0570225119591,-0.371496021748,-0.365427017212,-1.14853000641,-0.058710038662
2017/07/09/10:24:22.681916,544735,1499567065,489567414,,0.762938123753,0.204210712719,0.121957453172,0.722142335729,0.69147272764,0.0186625563263,0.00525574632947,-0.0772763839275,-0.218986010537,-0.150366006352,0.0656148255507,0.22645883621,-0.320112142072,-1.56832802296,-0.158010661602,-0.370638996363,-0.203379049897,-0.930037736893,-0.0656954944134
2017/07/09/10:24:22.692102,544736,1499567065,499579128,,0.761795223707,0.201712684423,0.120020487615,0.723237645007,0.690360058416,0.0176911498399,0.00416194740026,-0.0650884299531,-0.211310131922,-0.14270141629,0.0714068983927,0.193747150549,-0.323140381942,-2.14862012863,-0.726862192154,-0.724627256393,-0.0306318029761,-1.04828929901,-0.0210736244917
2017/07/09/10:24:22.702354,544737,1499567065,509573446,,0.761548462512,0.199947577715,0.118835717798,0.724164819394,0.68939505749,0.0175658355365,0.00334820585786,-0.0633820513845,-0.219983408255,-0.14892823648,0.059227907175,0.197141317654,-0.334287768054,-1.99928855896,-0.567052483559,-0.571630179882,-0.0968463942409,-1.02011728287,-0.0863709449768
2017/07/09/10:24:22.712254,544738,1499567065,519568974,,0.761501933319,0.198028809622,0.118088492365,0.725113237595,0.688396973559,0.0176181775678,0.00316216372317,-0.0688592171386,-0.247236058687,-0.152111160799,0.0464212784167,0.206011759325,-0.349918858291,-2.42106533051,-0.628099679947,-0.478051126003,-0.0086365416646,-1.20538270473,-0.0594411343336
2017/07/09/10:24:22.721969,544739,1499567065,529574320,,0.760619052264,0.196157617586,0.1161279285,0.726227982156,0.687242518508,0.0169534006738,0.00179468479964,-0.0649221624569,-0.211635303259,-0.147486901971,0.072713570374,0.190058886923,-0.309668040768,-3.17389583588,-0.0516726672649,-0.665431857109,-0.204367429018,-1.3906160593,-0.0822803676128
2017/07/09/10:24:22.731772,544740,1499567065,539565524,,0.759150406894,0.193433806031,0.114253106287,0.727385170429,0.686049409103,0.0157031202237,0.000658880929308,-0.0750556011392,-0.212433424322,-0.149455383004,0.0697242642479,0.214280743086,-0.318164898525,-4.01742744446,-0.1151124686,-0.884304106236,-0.293751001358,-1.67838978767,-0.140262573957
2017/07/09/10:24:22.742054,544741,1499567065,549573667,,0.759162467278,0.190904228344,0.113190435365,0.728873565569,0.684469368018,0.0156468482961,0.000431041972278,-0.0678632529954,-0.195905734836,-0.150896543018,0.0946865961487,0.198084961581,-0.320316101131,-4.79770421982,-0.43865609169,-0.503760039806,-0.191073521972,-1.96900677681,-0.111100777984
2017/07/09/10:24:22.752152,544742,1499567065,559570866,,0.758142772482,0.189367504666,0.110951282177,0.729748116573,0.683547517776,0.0151316541564,-0.00122896016695,-0.0577463364518,-0.194161703555,-0.155035075614,0.0832671521613,0.184577625935,-0.295944489412,-4.87252616882,-0.16430029273,-0.76327508688,-0.281326770782,-1.94139945507,-0.156627640128
2017/07/09/10:24:22.761944,544743,1499567065,569569005,,0.757702948037,0.187315796849,0.110049654147,0.731038891312,0.682178029661,0.0145786265944,-0.00165495711217,-0.0686430495757,-0.228481101025,-0.156171527413,0.0520524118676,0.195173184268,-0.334795100803,-5.51579189301,-0.0611338801682,-0.730815649033,-0.131933763623,-2.12677264214,-0.120350435376
2017/07/09/10:24:22.772076,544744,1499567065,579573434,,0.757388370368,0.185596439465,0.108728109295,0.731446505997,0.681746356971,0.0142487808786,-0.00221039923196,-0.0678004982987,-0.233710519736,-0.146032008757,0.0413298066699,0.189104199332,-0.350834520704,-5.90114498138,0.379784375429,-0.41600304842,-0.174213781953,-2.27155780792,-0.170250341296
2017/07/09/10:24:22.781781,544745,1499567065,589565749,,0.756183507136,0.184184537789,0.107079241753,0.732366115743,0.680765736177,0.0135937321959,-0.00361875710869,-0.0558473078188,-0.214743578871,-0.143109272195,0.0290016714568,0.161937596173,-0.284401110362,-6.21770381927,0.331275463104,-0.114289902151,-0.0575290881097,-2.32337355614,-0.133137539029
2017/07/09/10:24:22.792144,544746,1499567065,599573390,,0.755730017335,0.182091360126,0.105619441723,0.733468689991,0.67958104859,0.0131800976758,-0.00442314651542,-0.0800629105938,-0.185908856951,-0.163578611824,0.0659073899717,0.222738325941,-0.276959324244,-5.31802177429,0.426649034023,-0.0909533277154,-0.197949677706,-2.00249052048,-0.178238809109
2017/07/09/10:24:22.802115,544747,1499567065,609567135,,0.7549322523,0.18061722289,0.103895979815,0.734382993464,0.678597726851,0.0125064447926,-0.00550752780087,-0.0724355406709,-0.189046629834,-0.159260021474,0.0551118954531,0.218125579887,-0.275575075803,-4.69269037247,0.792309939861,-0.69194072485,-0.270223408937,-1.70834541321,-0.159845396876
2017/07/09/10:24:22.811908,544748,1499567065,619573313,,0.754283052476,0.178853996704,0.102263455198,0.734903968301,0.678037342935,0.0118604008037,-0.00639138906633,-0.0773039894506,-0.199426104548,-0.154308675126,0.0530694301038,0.225079056579,-0.272694802662,-4.10979604721,0.789042711258,-0.423785626888,-0.340341240168,-1.6144849062,-0.163358062506
2017/07/09/10:24:22.822280,544749,1499567065,629578680,,0.753902267323,0.176192126204,0.101377345315,0.735850197223,0.677014803792,0.0115708433844,-0.00644657095374,-0.0740475886678,-0.202727353245,-0.151307267749,0.0150479090303,0.217998208043,-0.244010223812,-4.67295074463,0.266775846481,-0.0747860521078,-0.161448061466,-1.85395169258,-0.14926764369
2017/07/09/10:24:22.832066,544750,1499567065,639573070,,0.752539129519,0.174536168902,0.0993890301571,0.736611307253,0.676194918178,0.0102667280362,-0.00766869949253,-0.0630209972348,-0.209546138316,-0.146919716596,0.0130850716466,0.187241122444,-0.256883329723,-5.20062398911,0.342804044485,-0.747799098492,-0.129189044237,-1.93909263611,-0.145888656378
2017/07/09/10:24:22.842009,544751,1499567065,649570699,,0.751644679157,0.171548412913,0.0977954506339,0.737867644422,0.674837419573,0.00888975736405,-0.00817121000288,-0.071379089912,-0.204298684478,-0.156299538216,0.0128805253241,0.210634011633,-0.260141582233,-4.42055177689,-0.157998517156,-1.06625056267,0.0489800348878,-1.66387414932,-0.133018657565
2017/07/09/10:24:22.851800,544752,1499567065,659567684,,0.751883873601,0.170079856624,0.0967926799938,0.738495278046,0.674147921805,0.00884777469311,-0.00842737874855,-0.0646829728449,-0.228612684942,-0.152170261654,-0.044346170535,0.200279331094,-0.262308681107,-3.86216950417,0.626603364944,-0.813673734665,-0.116506658494,-1.53525173664,-0.150738820434
2017/07/09/10:24:22.862201,544753,1499567065,669576756,,0.751092843288,0.168355309447,0.0951685515929,0.739148185359,0.673433415093,0.00804857294533,-0.00908933387873,-0.0584071604937,-0.217638395886,-0.151161134265,-0.0468977130456,0.1884476065,-0.214293184812,-3.77410292625,0.519918382168,-0.679355144501,-0.198461920023,-1.50650560856,-0.165253728628
2017/07/09/10:24:22.872123,544754,1499567065,679570743,,0.750936357096,0.166293093822,0.0942524790164,0.739463865255,0.673099807164,0.00731494957452,-0.00873688100594,-0.0504186221,-0.213839118244,-0.139156269237,-0.0452238699326,0.165336941643,-0.221232001569,-4.2114071846,1.12286782265,-0.761048614979,-0.351118326187,-1.65363919735,-0.161839053035
2017/07/09/10:24:22.881937,544755,1499567065,689580247,,0.750562008316,0.164607035303,0.0926806667447,0.740275612236,0.672202179297,0.00683584647284,-0.00946146288293,-0.0545942173336,-0.210587356132,-0.138776939324,-0.0443777434585,0.179333666608,-0.225645325059,-4.21157693863,0.834726154804,-0.394577145576,-0.278132945299,-1.74951040745,-0.137893617153
2017/07/09/10:24:22.891959,544756,1499567065,699573272,,0.749753054082,0.162233495281,0.0914041378727,0.740898244731,0.671527005004,0.00548654078141,-0.00954831792371,-0.0430373923931,-0.226371203768,-0.128753074183,-0.085446456774,0.146427393906,-0.216640855275,-4.29688644409,0.557100594044,-0.409593552351,-0.239845722914,-1.73049974442,-0.165322393179
2017/07/09/10:24:22.901875,544757,1499567065,709570276,,0.748940427891,0.159331897994,0.090079062512,0.741862577815,0.670467030441,0.00418632974546,-0.00981587352279,-0.0669582812905,-0.20695992279,-0.141318682971,-0.097179068858,0.1977558676,-0.170939378287,-3.59873604774,0.221996366978,-0.834903359413,-0.108366392553,-1.49328613281,-0.114610165358
2017/07/09/10:24:22.911984,544758,1499567065,719573044,,0.748580362148,0.156740803003,0.0883214965812,0.742386588418,0.669894026566,0.00315422798023,-0.00970553214622,-0.072727987246,-0.229209535808,-0.165252064289,-0.113496031765,0.222036713468,-0.186540946511,-3.32269120216,-0.713637709618,-1.18029665947,0.0742801576853,-1.38795542717,-0.129402965307
2017/07/09/10:24:22.921920,544759,1499567065,729566648,,0.747646657819,0.155057228245,0.0870987931507,0.742906977238,0.669310702539,0.00214081437908,-0.0103838120105,-0.0742904056872,-0.226539740323,-0.159445748324,-0.11239940889,0.217404735919,-0.167670420924,-3.55376005173,0.194170892239,-0.874787628651,-0.123341724277,-1.49260258675,-0.126537561417
2017/07/09/10:24:22.931855,544760,1499567065,739573859,,0.746905406503,0.153584917554,0.0852625593774,0.743383754252,0.668773896608,0.00104702210679,-0.0109987669758,-0.0527777724478,-0.224731769393,-0.144727483727,-0.1232419604,0.17011294613,-0.162252530448,-3.37095093727,0.7614402771,-1.23240566254,-0.250747531652,-1.4293602705,-0.12968236208
2017/07/09/10:24:22.941881,544761,1499567065,749579893,,0.746816796742,0.150904715662,0.0844100886084,0.743752088987,0.668376100998,-0.000146331684489,-0.0103051603176,-0.0672507527052,-0.232610772449,-0.14679640641,-0.14670964549,0.203875094784,-0.136969254667,-3.15051698685,0.3081612885,-0.832147657871,-0.151192858815,-1.44066214561,-0.113465346396
2017/07/09/10:24:22.951930,544762,1499567065,759566024,,0.745932845682,0.148540942302,0.0823919950674,0.744000590942,0.668096280197,-0.00157323951503,-0.0103925926981,-0.0632978745665,-0.2303254519,-0.14911860739,-0.141983876943,0.19731910126,-0.138362122624,-3.44925761223,0.518510937691,-0.777525663376,-0.18411616981,-1.56553459167,-0.0847942829132
2017/07/09/10:24:22.962056,544763,1499567065,769568286,,0.745693488793,0.146953212595,0.0816961187128,0.744417674156,0.667629372653,-0.00236000415776,-0.0103815969351,-0.0598141241236,-0.236265392738,-0.152256274985,-0.176010329773,0.18196236061,-0.14461039564,-3.85127425194,0.492314785719,-0.247470110655,-0.194065064192,-1.72101545334,-0.108401790261
2017/07/09/10:24:22.972194,544764,1499567065,779582098,,0.745274935902,0.143939941851,0.0799743055358,0.744819491756,0.667181898234,-0.00363766927182,-0.00995021265209,-0.0475215345295,-0.24297389144,-0.138772027254,-0.174406676333,0.151905177744,-0.131692826806,-3.70634007454,0.379224777222,-0.782812535763,-0.20276221633,-1.63396477699,-0.11212528497
2017/07/09/10:24:22.982054,544765,1499567065,789564362,,0.744400314573,0.142205796984,0.0780763006328,0.745344973396,0.666574952244,-0.00470321209242,-0.0107973825412,-0.0627432598824,-0.210163380627,-0.152949718796,-0.148411721047,0.190084967512,-0.0569209199305,-3.22145986557,0.73640537262,-0.894094049931,-0.312290012836,-1.46642649174,-0.130554318428
2017/07/09/10:24:22.992213,544766,1499567065,799565781,,0.743581550797,0.140370177352,0.0766061002793,0.745600442366,0.666276339279,-0.00575506664827,-0.0110769702103,-0.062285043134,-0.210848987519,-0.156378676228,-0.146588625964,0.187370955149,-0.0933219880693,-3.6708214283,0.524081468582,-0.427177101374,-0.353552043438,-1.58225488663,-0.147534012794
2017/07/09/10:24:23.001904,544767,1499567065,809568241,,0.743743585196,0.138249057004,0.0755075847344,0.745933458943,0.66590893937,-0.00664211240335,-0.0102196692052,-0.0499429778083,-0.216785681259,-0.139425761097,-0.154377372852,0.151984259208,-0.108529582362,-3.95038938522,0.502879023552,-0.517270028591,-0.330638498068,-1.65403902531,-0.105722926557
2017/07/09/10:24:23.012471,544768,1499567065,819573841,,0.742747462092,0.13563806339,0.0741017379238,0.746041838666,0.66576758034,-0.00843889233469,-0.010192596546,-0.0604836732625,-0.208097125295,-0.148486459456,-0.159763463567,0.176914123839,-0.0704997809617,-3.31853818893,0.190139904618,-0.32565715909,-0.234375625849,-1.4392375946,-0.0953121185303
2017/07/09/10:24:23.022367,544769,1499567065,829569789,,0.742275145839,0.133852597528,0.072385950379,0.746182007016,0.665594554863,-0.00949900569079,-0.0102990209411,-0.0694439542862,-0.214633680113,-0.146971563185,-0.177752711016,0.196490302792,-0.0639203338657,-3.30760717392,-0.0947920084,-0.713924467564,-0.169496893883,-1.44080889225,-0.0583620257676
2017/07/09/10:24:23.032138,544770,1499567065,839588747,,0.741319249188,0.131929254357,0.0712779285221,0.746686406179,0.665006974468,-0.0106424160452,-0.0105770372424,-0.0701581162824,-0.234240036277,-0.150395209045,-0.177528195791,0.204000337398,-0.0938427392906,-3.25767803192,0.727901875973,-0.837764322758,-0.39407607913,-1.3851890564,-0.0960558950901
2017/07/09/10:24:23.041762,544771,1499567065,849567276,,0.740967484324,0.130162845618,0.0700689107308,0.746556629022,0.665138069467,-0.0116809138928,-0.0103973294544,-0.0622940246113,-0.199668312715,-0.138214669273,-0.155466346132,0.178955926641,-0.0898854836287,-3.1843957901,0.870215773582,-0.763750851154,-0.445721745491,-1.41992497444,-0.0768155157566
2017/07/09/10:24:23.052091,544772,1499567065,859568316,,0.740013027635,0.128138215997,0.0682251997785,0.747299890253,0.664273331381,-0.0128952807106,-0.0108409860713,-0.0726614899306,-0.179634009089,-0.144807271749,-0.123441487671,0.198823173451,-0.0828394899652,-2.75786685944,0.704791128635,-0.589049816132,-0.525377333164,-1.24683916569,-0.0973613932729
2017/07/09/10:24:23.061908,544773,1499567065,869567633,,0.740051751616,0.126544526684,0.067258263007,0.747585252056,0.663944373483,-0.0134511467873,-0.0106407931434,-0.0635082526359,-0.210242727847,-0.151642864491,-0.14321209399,0.176973490817,-0.109244657831,-2.57271242142,0.766099333763,-0.320817649364,-0.456966757774,-1.19790530205,-0.0785430520773
2017/07/09/10:24:23.072144,544774,1499567065,879574912,,0.738879896,0.124340221992,0.0654987842818,0.747839373273,0.663620821579,-0.0149307182824,-0.0109886578219,-0.0619561689092,-0.16295892373,-0.141435630682,-0.116234780721,0.182435957265,-0.0541335285493,-3.06347107887,0.344962596893,-0.29803621769,-0.435279279947,-1.38475954533,-0.0842205062509
2017/07/09/10:24:23.082270,544775,1499567065,889571788,,0.738239100089,0.122833594921,0.0640910480294,0.747994962787,0.663417212904,-0.0159652454581,-0.0112360226661,-0.0769563253079,-0.178008489294,-0.152456756137,-0.118180794814,0.200442566902,-0.0986992235068,-3.08738088608,0.098423615098,-0.573861122131,-0.399439156055,-1.31952989101,-0.0981177166104
2017/07/09/10:24:23.092205,544776,1499567065,899574150,,0.737451940622,0.120526269789,0.0629886688475,0.748592876595,0.662714893263,-0.0170778521083,-0.0112259665886,-0.0896316276699,-0.183414329476,-0.163498038413,-0.123641975878,0.23041975799,-0.115527173778,-2.65453481674,0.258247286081,-0.0715716332197,-0.448274374008,-1.14771044254,-0.0720734968781
2017/07/09/10:24:23.101967,544777,1499567065,909566095,,0.736560755142,0.119643365153,0.0611192905431,0.748584387568,0.662681374477,-0.0182789540417,-0.0118613005403,-0.0761310465782,-0.172378461508,-0.148234101617,-0.115209883892,0.197394591494,-0.0747137630337,-2.37704348564,0.904046356678,-0.436481028795,-0.515714883804,-1.0606802702,-0.0855396389961
2017/07/09/10:24:23.111947,544778,1499567065,919567631,,0.735332730885,0.118308542563,0.0594361472569,0.748696488439,0.662507513378,-0.0194252482492,-0.0126500058255,-0.0688090366182,-0.166191181027,-0.133871205279,-0.095873536222,0.179383044738,-0.0973191474644,-2.20549750328,0.358329117298,-0.866796553135,-0.285694628954,-0.948944687843,-0.0548261478543
2017/07/09/10:24:23.122473,544779,1499567065,929564644,,0.735367943802,0.116895464347,0.0583124801903,0.749371728522,0.661732354511,-0.0196943032242,-0.0128233344715,-0.0850961164395,-0.155670718224,-0.152176188364,-0.0602984220805,0.217714182252,-0.0974395364209,-1.65892577171,0.638086378574,-0.707096040249,-0.336431592703,-0.818970322609,-0.0744417980313
2017/07/09/10:24:23.132016,544780,1499567065,939567261,,0.733919474018,0.115304901426,0.056864345151,0.74933999884,0.661707433347,-0.0213047712526,-0.0133770517319,-0.0672177642127,-0.166812991178,-0.144401613947,-0.0726562599229,0.17859118697,-0.123252462052,-1.91727185249,0.4720941782,-0.97851651907,-0.28839430213,-0.854764699936,-0.0570138022304
2017/07/09/10:24:23.142226,544781,1499567065,949567842,,0.733700587621,0.113620836574,0.0556025418514,0.749991222546,0.660955871701,-0.0216933954241,-0.0134126195881,-0.0712082728639,-0.158699597131,-0.139615622557,-0.0867961338693,0.179386854851,-0.0967788432829,-2.46274185181,0.554430186749,-0.436778157949,-0.214935004711,-1.14640569687,-0.00989304482937
2017/07/09/10:24:23.152218,544782,1499567065,959573596,,0.733180393609,0.112903614875,0.0543118070008,0.750087157303,0.660818975655,-0.0221118311981,-0.0140927210023,-0.0714755043849,-0.152967811157,-0.141278005746,-0.0579862335592,0.183393517423,-0.113330644772,-2.00365543365,1.07180452347,-0.473048955202,-0.454530179501,-0.925576984882,-0.084518045187
2017/07/09/10:24:23.162127,544783,1499567065,969566830,,0.732164683114,0.110914585295,0.0530698788943,0.750735178281,0.660036501401,-0.0231952277653,-0.0145082844689,-0.0975887562129,-0.120577338351,-0.154726586054,0.00342310079626,0.225950252259,-0.147417934095,-1.45073401928,0.110945850611,-0.593002378941,-0.330356836319,-0.687537848949,-0.0744549334049
2017/07/09/10:24:23.172070,544784,1499567065,979593830,,0.731419818914,0.109863191919,0.0518148076379,0.751530674711,0.659094866494,-0.02378441713,-0.0151625667902,-0.0968618666512,-0.115726525114,-0.148833198412,0.0119655393525,0.22463485,-0.145226957626,-1.66263699532,0.500140607357,-0.269345670938,-0.465169757605,-0.85236376524,-0.0643099471927
2017/07/09/10:24:23.181909,544785,1499567065,989570980,,0.729819211439,0.107606472131,0.0499873043924,0.75220907616,0.658249197957,-0.0251585139789,-0.0160171254127,-0.101747664567,-0.141024384075,-0.145741285527,-0.0190498928651,0.229440995587,-0.136527495869,-1.05573117733,0.221626207232,-0.510744214058,-0.36640393734,-0.568059146404,-0.0569665469229
2017/07/09/10:24:23.192328,544786,1499567065,999579435,,0.729218188122,0.107662818369,0.0489020070661,0.75185475938,0.658610375865,-0.0256531818393,-0.0169914055051,-0.0834060528842,-0.131661157797,-0.137911138211,0.0132409102802,0.187140766163,-0.147098099122,-1.14791715145,0.738513231277,-0.70174407959,-0.441853642464,-0.61540979147,-0.0675274953246
2017/07/09/10:24:23.202007,544787,1499567066,9575456,,0.727963072172,0.106371463433,0.0472018207175,0.752678714685,0.657604633157,-0.0263974920189,-0.0182776181877,-0.101676294641,-0.125394978287,-0.137418570968,0.0360809247442,0.221479355708,-0.1667363732,-0.911571741104,0.380467534065,-1.22665858269,-0.445868164301,-0.519978582859,-0.0874706804752
2017/07/09/10:24:23.212134,544788,1499567066,19573560,,0.727607140825,0.105765634303,0.045988366166,0.753032100262,0.657193923781,-0.0262022818265,-0.0187681364676,-0.105806051308,-0.120304323501,-0.148847936139,0.0520683622424,0.225151243137,-0.180698334768,-0.635254979134,0.692545115948,-1.21041190624,-0.384181767702,-0.416058778763,-0.0350155159831
2017/07/09/10:24:23.221961,544789,1499567066,29571225,,0.727017272168,0.104360507031,0.0449376292964,0.753853861652,0.65621330836,-0.0268105033521,-0.0192261829936,-0.0909841852742,-0.098877593434,-0.150804988172,0.0704583186336,0.192690222808,-0.146716663293,0.273560374975,0.660881400108,-1.13625311852,-0.389471113682,-0.0790576338768,-0.0528485588729
2017/07/09/10:24:23.231955,544790,1499567066,39569140,,0.72580882861,0.102618219531,0.0431362628342,0.75431324737,0.655625543046,-0.0277796947577,-0.0198736183627,-0.102566261658,-0.0974649748298,-0.156380378412,0.066578267494,0.219313015372,-0.152145022265,0.126073777676,-0.404580116272,-0.796842038631,-0.125958800316,-0.116577446461,-0.103226587176
2017/07/09/10:24:23.241992,544791,1499567066,49567562,,0.724221152084,0.102885798614,0.0417150966915,0.754293771025,0.655560795268,-0.0284029187483,-0.0217767055885,-0.102356898668,-0.103910154423,-0.154202383826,0.0550691622831,0.214772661611,-0.169703784146,-0.458716988564,0.78742647171,-0.691894054413,-0.331282883883,-0.284735590219,-0.0712452232838
2017/07/09/10:24:23.252199,544792,1499567066,59572145,,0.72331106045,0.101753621665,0.0401061812545,0.754635553807,0.655123429821,-0.0286214962283,-0.0227877726935,-0.0986091182338,-0.0944722583669,-0.142571574972,0.0994944073297,0.192067832277,-0.134851830279,-0.456711083651,0.731635987759,-0.61590218544,-0.396271944046,-0.219294264913,-0.0801942199469
2017/07/09/10:24:23.262027,544793,1499567066,69565242,,0.722489079069,0.101180412714,0.0386709015922,0.75461748354,0.65509007059,-0.0290043219888,-0.0238369934217,-0.106605681398,-0.0645831775395,-0.143261189388,0.129298318827,0.220955268839,-0.0709172690403,-0.367182195187,0.25288015604,-0.445923626423,-0.281863987446,-0.217957392335,-0.109818190336
2017/07/09/10:24:23.272025,544794,1499567066,79573493,,0.72142198867,0.0998055246894,0.0377395979051,0.755099291366,0.654481171639,-0.0294040469017,-0.0247963338676,-0.105873648251,-0.0861815641119,-0.134918635534,0.119345993595,0.212658109988,-0.0561378326143,-0.283156216145,0.395429730415,-0.187671244144,-0.273012667894,-0.203490629792,-0.0907926112413
2017/07/09/10:24:23.281878,544795,1499567066,89565865,,0.720315845079,0.0993196409782,0.0363110476381,0.755132764681,0.654373314555,-0.0299419650423,-0.0259528733261,-0.108606803979,-0.101966453466,-0.134818565541,0.0852463792448,0.216799692372,-0.0626969857936,0.588322818279,1.11027956009,-0.32742652297,-0.489375770092,0.123415157199,-0.0827808007598
2017/07/09/10:24:23.291736,544796,1499567066,99573577,,0.719659433387,0.0993543394252,0.0352201356802,0.754633838519,0.654899472789,-0.0301584044827,-0.0269243559374,-0.106470630527,-0.0778500277119,-0.129839443877,0.121771287653,0.212048518164,-0.0654636813768,1.34664547443,0.877811968327,-0.584664225578,-0.422843754292,0.371052861214,-0.0928580239415
2017/07/09/10:24:23.302458,544797,1499567066,109567252,,0.718371622726,0.0976570923374,0.0335529612205,0.755315403852,0.654042284959,-0.0306196161421,-0.0281028343356,-0.100588451522,-0.0911285578099,-0.133291124025,0.095987210169,0.195794976765,-0.0557541921054,1.1201454401,-0.0795481353998,-0.788140058517,-0.170221358538,0.321899473667,-0.0977485254407
2017/07/09/10:24:23.312290,544798,1499567066,119573605,,0.718040367241,0.0966041858256,0.0329135950922,0.755229556613,0.654123639215,-0.0306301127214,-0.0285022390911,-0.115763396743,-0.0807979323274,-0.143265830574,0.12985170472,0.226684734174,-0.0264072941121,1.50298261642,-0.351836532354,-0.588193297386,-0.118626207113,0.426398545504,-0.102636799216
2017/07/09/10:24:23.322097,544799,1499567066,129577314,,0.717025331601,0.0952660883932,0.0317501891484,0.755731185422,0.653483627928,-0.0312169494966,-0.0292408186423,-0.0914972635762,-0.100097122678,-0.125436214814,0.0944712143676,0.173975915056,-0.0145554865985,1.09607470036,-0.172896683216,-0.439311087132,-0.176596820354,0.283079624176,-0.144227385521
2017/07/09/10:24:23.332348,544800,1499567066,139573154,,0.715632014526,0.0946019675302,0.0303052921431,0.755939578485,0.65314786273,-0.0317435204407,-0.0307501544801,-0.0844851262353,-0.0913825048133,-0.127614921461,0.103892777364,0.163612223838,-0.0949355297134,0.487409174442,-0.0420714765787,-0.493545949459,-0.221455186605,0.122406847775,-0.115304499865
2017/07/09/10:24:23.342460,544801,1499567066,149572090,,0.715512536254,0.0947472866151,0.0291057811484,0.756205528979,0.652826699887,-0.0312699384324,-0.03150696443,-0.0989309131184,-0.0867104858977,-0.136734122757,0.110112840258,0.190568304423,-0.155201340922,1.29551708698,1.04709982872,-0.333421975374,-0.424866557121,0.310134708881,-0.128814682364
2017/07/09/10:24:23.352019,544802,1499567066,159567778,,0.71461109702,0.0933596424599,0.028170458642,0.756961646297,0.651897776057,-0.031789341762,-0.0320592164358,-0.0834923678457,-0.0953263732016,-0.113925342623,0.106494693916,0.143537328314,-0.201848816469,1.04641652107,0.63733291626,-0.2830093503,-0.495589762926,0.289194971323,-0.130348682404
2017/07/09/10:24:23.362398,544803,1499567066,169571311,,0.71382642988,0.0917979574094,0.0268293266935,0.757690158855,0.651008685584,-0.031923241897,-0.0327753122769,-0.0696774340468,-0.10184311946,-0.112922234097,0.088394499634,0.111569904093,-0.168186308006,0.620912432671,0.440463542938,-0.258728742599,-0.424773991108,0.142448097467,-0.154506757855
2017/07/09/10:24:23.372196,544804,1499567066,179574080,,0.712532933655,0.091369576342,0.0251747754255,0.757822459775,0.650770327245,-0.0322608351699,-0.0340930953714,-0.0722229419803,-0.105118167535,-0.118709954271,0.0869302013865,0.109010554636,-0.170668188173,-0.111076034606,0.200579583645,-0.409211158752,-0.403545111418,-0.0917440876365,-0.163239866495
2017/07/09/10:24:23.382077,544805,1499567066,189573451,,0.712145838661,0.0906950992314,0.0240733047747,0.758100908259,0.650412686145,-0.0323001715988,-0.0346850041489,-0.0711624518808,-0.107382098405,-0.118700881138,0.0809236439997,0.0992690468927,-0.183867045702,0.576457262039,0.609256982803,-0.709934234619,-0.399694740772,0.107798278332,-0.148659616709
2017/07/09/10:24:23.392144,544806,1499567066,199566501,,0.711911054592,0.0891610989937,0.0230714973058,0.758812829901,0.649596019165,-0.0319917742943,-0.0347077432448,-0.0713370084772,-0.105458224864,-0.13073163391,0.0790109134495,0.0956471617085,-0.152644740504,0.392698705196,0.275195747614,-0.300610035658,-0.20780223608,-0.00332181341946,-0.143640309572
2017/07/09/10:24:23.401826,544807,1499567066,209568391,,0.711786051101,0.0876244475444,0.0221660758696,0.759137634296,0.649224999216,-0.0319112345741,-0.0346211741134,-0.0462910828475,-0.0913422594859,-0.112122726751,0.0796984383642,0.0442977955719,-0.129501215626,1.37779963017,0.0128369629383,-0.521831214428,-0.261380791664,0.34360024333,-0.175690755248
2017/07/09/10:24:23.412009,544808,1499567066,219572467,,0.710633766036,0.0879606749108,0.0205209616638,0.759505081603,0.648726221087,-0.0319508426516,-0.0358533784469,-0.0539584130665,-0.116487349127,-0.115328606973,0.0662125204158,0.0401996723902,-0.164534257888,1.11612010002,0.800984084606,-0.791413247585,-0.349057972431,0.337222784758,-0.160929262638
2017/07/09/10:24:23.421976,544809,1499567066,229579663,,0.710851309098,0.0864017694069,0.0200700406461,0.760435754431,0.647667848759,-0.0313407551193,-0.035799135949,-0.0255767980807,-0.107571281881,-0.110363341852,0.0744015909024,-0.0217099893944,-0.166213797195,1.57450079918,0.140054136515,-0.289004206657,-0.227178022265,0.48768851161,-0.174202263355
2017/07/09/10:24:23.432098,544810,1499567066,239575246,,0.711147864635,0.0855192998741,0.0194412234145,0.760945878811,0.647122516908,-0.0303040441447,-0.0357138984161,-0.0321777966333,-0.122307819852,-0.110736194567,0.052730511955,-0.0102995620471,-0.195350671029,1.29507505894,-0.054006755352,0.407294362783,-0.125141397119,0.278918534517,-0.157477468252
2017/07/09/10:24:23.441979,544811,1499567066,249571348,,0.709881807449,0.083752761003,0.017907449943,0.761680743832,0.64619303002,-0.0309533975047,-0.0363166575062,-0.0321632833487,-0.106796618908,-0.103388559044,0.0834064863741,-0.008223795708,-0.216883066017,2.31231570244,0.0847353637218,-0.739490389824,-0.340592563152,0.803644776344,-0.200331136584
2017/07/09/10:24:23.452400,544812,1499567066,259565692,,0.709904671062,0.0826960665091,0.0166689611386,0.762454318699,0.645294001907,-0.0305929518033,-0.0363749130506,-0.029080208579,-0.11404923377,-0.1068919882,0.0651234320624,-0.0175371048241,-0.213984750115,2.06393003464,-0.172635897994,-0.22576636076,-0.172666668892,0.761382997036,-0.161108493805
2017/07/09/10:24:23.461933,544813,1499567066,269567279,,0.709793765187,0.0816019168391,0.0159863866543,0.76311783089,0.644528563074,-0.0300960555135,-0.0364463304173,-0.033309922329,-0.112102971316,-0.111236355232,0.0733754927381,-0.00256264970024,-0.208064131094,3.22247648239,0.0248162150383,-0.973261713982,-0.304736793041,1.37609803677,-0.189222574234
2017/07/09/10:24:23.472058,544814,1499567066,279573027,,0.708394361511,0.0801444621634,0.0146617907987,0.763505240413,0.643975393586,-0.0307101816426,-0.0375809135141,-0.0497154950155,-0.0889253702397,-0.117094453037,0.0980596083503,0.0460753474528,-0.163114369732,2.27896213531,-0.470886528492,-0.712422788143,-0.134475797415,1.03975212574,-0.164745867252
2017/07/09/10:24:23.482083,544815,1499567066,289568267,,0.707172468216,0.0797899866127,0.0130095898075,0.764237312943,0.64302466297,-0.0306520503071,-0.0390008221676,-0.0603652915678,-0.124567589833,-0.111207748009,0.072723604636,0.0650091615484,-0.188984282594,1.45505714417,0.111990571022,-0.745210468769,-0.176200583577,0.844319283962,-0.190392762423
2017/07/09/10:24:23.492025,544816,1499567066,299565925,,0.706626645912,0.0775814693461,0.0123104292849,0.764599505315,0.642573476808,-0.0311705130037,-0.0389271434077,-0.0777444496569,-0.117720546942,-0.107465018331,0.0830541555324,0.0990207001068,-0.196586019302,1.190300107,-0.647239089012,-0.366172045469,-0.0924092754722,0.755123436451,-0.196034550667
2017/07/09/10:24:23.502132,544817,1499567066,309573512,,0.705917045565,0.0777144181511,0.0115044422864,0.764927233112,0.642129885514,-0.0309310892072,-0.0399850709037,-0.0885039553409,-0.126479969815,-0.100314376143,0.0654294123209,0.126573342901,-0.190923436761,1.10741329193,-0.0172086954117,0.254258573055,-0.157239541411,0.622484028339,-0.225927382708
2017/07/09/10:24:23.512005,544818,1499567066,319573401,,0.705466808918,0.0762529901811,0.0104691485377,0.765326460078,0.641627287898,-0.0309418801675,-0.0404033783383,-0.104906124723,-0.11101164567,-0.111943696863,0.0923205609307,0.161788471707,-0.153624907795,1.45074605942,-0.0956565141678,-0.00434567779303,-0.224686682224,0.72041451931,-0.221478193998
2017/07/09/10:24:23.521972,544819,1499567066,329568153,,0.704745502725,0.0757341114566,0.00986019662678,0.765578334376,0.641270660028,-0.0311159897088,-0.0411527606091,-0.104543292902,-0.103182252071,-0.116322589626,0.115455804714,0.159532414177,-0.163819333824,2.39837837219,0.603106021881,0.0175362117589,-0.265425831079,1.00600218773,-0.185697704554
2017/07/09/10:24:23.532133,544820,1499567066,339573986,,0.703189607517,0.0743321519021,0.00810533275695,0.766141556127,0.640486737901,-0.0317774317785,-0.0423562200581,-0.0859620909688,-0.0918969464553,-0.109986827872,0.109406062198,0.127939152994,-0.120426148881,1.98399209976,0.176583230495,-0.707517325878,-0.350774765015,0.968514561653,-0.240570515394
2017/07/09/10:24:23.542074,544821,1499567066,349566098,,0.702576538459,0.0736976069136,0.00752822290434,0.766245594478,0.640320785142,-0.0315171861693,-0.0431699899651,-0.0992242488518,-0.0942493722624,-0.111873825791,0.10730783956,0.155931520826,-0.0757397783639,1.81820201874,-0.706109881401,0.177546665072,0.0357009619474,0.808246970177,-0.199642702937
2017/07/09/10:24:23.552217,544822,1499567066,359570825,,0.702056974126,0.0731887690746,0.006664050998,0.76591135961,0.64068173607,-0.0317216010222,-0.0435940628335,-0.106023857897,-0.116021618327,-0.0979777279143,0.0923003208516,0.163789783119,-0.0827827143848,1.95361161232,0.205493330956,0.472258925438,-0.118939325213,0.765576720238,-0.188968151808
2017/07/09/10:24:23.561856,544823,1499567066,369567001,,0.700631849487,0.0713576300876,0.00533237586778,0.766383284899,0.640012882772,-0.0324659107152,-0.0445660762673,-0.0973528856669,-0.0977084739912,-0.101608459041,0.104112004049,0.143769537114,-0.0676462454911,1.36863541603,-0.691682934761,0.0203244872391,0.0789186060429,0.638332426548,-0.168583422899
2017/07/09/10:24:23.572211,544824,1499567066,379580374,,0.699571162077,0.0710984523119,0.00421486015988,0.766231562239,0.64010008536,-0.0323004270447,-0.0460190847668,-0.090081259043,-0.101755693534,-0.101439442165,0.107057311924,0.135404111011,-0.033343909653,2.33508253098,-0.342137813568,-0.015810823068,0.00653812289238,0.998614013195,-0.149959117174
2017/07/09/10:24:23.582032,544825,1499567066,389565834,,0.698641176784,0.0703400875093,0.00315250836299,0.766173933257,0.640092602818,-0.0325546105093,-0.0468952145722,-0.102219483406,-0.0807524776069,-0.120885319987,0.133281153751,0.164080684495,0.00345928753286,2.598072052,-0.245566189289,-0.693067550659,0.00343222916126,1.13165462017,-0.129865452647
2017/07/09/10:24:23.592043,544826,1499567066,399570988,,0.696898402268,0.0687093739983,0.00146427432085,0.766044769838,0.6401152429,-0.033390677334,-0.0480931292172,-0.120159593885,-0.0959390757132,-0.13604966942,0.114243503318,0.191744457871,0.0102096387192,2.2746026516,-0.633586645126,-0.727890193462,0.0882809311152,1.02114415169,-0.109414502978
2017/07/09/10:24:23.601816,544827,1499567066,409568891,,0.696176338944,0.0684137944296,0.000587472575373,0.765565561601,0.640617534704,-0.0334414033077,-0.0489920163453,-0.109096509799,-0.0868856346045,-0.130271884309,0.13956979414,0.18071699289,0.0228336184713,2.61383247375,-0.315766274929,-0.576631724834,-6.65336847305e-05,1.10450100899,-0.140074163675
2017/07/09/10:24:23.611988,544828,1499567066,419573062,,0.695411974697,0.0678395313568,-0.000944294591802,0.7657452437,0.640319083147,-0.0334241212754,-0.0500851437637,-0.106082761063,-0.0764779469265,-0.131320653646,0.138677617393,0.179932596174,0.0424823174478,2.47976970673,-0.0588298588991,-0.654251873493,-0.0614303946495,1.05653119087,-0.0939806625247
2017/07/09/10:24:23.622167,544829,1499567066,429567378,,0.693280047573,0.0668270160577,-0.00285896360795,0.765883635025,0.639967281408,-0.0342425800766,-0.0518804591106,-0.106849684893,-0.0856125065953,-0.13687339107,0.133810915709,0.163251462902,0.0251603953434,2.00947880745,-0.507113754749,-0.891757547855,0.0671156197786,0.975075781345,-0.0912519320846
2017/07/09/10:24:23.632215,544830,1499567066,439569566,,0.692760182195,0.0664819866808,-0.00371309496191,0.765474019049,0.640409151351,-0.0342906955353,-0.0524384708626,-0.13106760282,-0.0757208393019,-0.139421769874,0.137999747118,0.213836262486,0.0364523318181,2.70047926903,-0.298505961895,-0.175327330828,0.0726412683725,1.0700378418,-0.0704479962587
2017/07/09/10:24:23.641718,544831,1499567066,449567372,,0.692354569469,0.0655956520899,-0.00456330385576,0.765138853632,0.640785346381,-0.0340722396572,-0.0528749185419,-0.104167974962,-0.0846204572754,-0.132766979717,0.136464140405,0.153304998089,0.0169783424047,2.5860004425,-0.696350634098,-0.20462846756,0.221830397844,1.03009259701,-0.0776261910796
2017/07/09/10:24:23.651860,544832,1499567066,459582688,,0.691243867365,0.0641915225875,-0.0060140314491,0.765068438797,0.640780410349,-0.0342775828813,-0.0538126098797,-0.100966219676,-0.0897316018444,-0.131661648763,0.127260250428,0.142260601489,0.0337849498088,2.64103865623,-0.860924482346,-0.272180259228,0.305416792631,1.11354494095,-0.0576232038438
2017/07/09/10:24:23.661990,544833,1499567066,469579231,,0.690657007782,0.0635008756236,-0.00698216879694,0.765479691868,0.640236114389,-0.0341723171297,-0.0545051549142,-0.108204037406,-0.0615335534358,-0.146463858944,0.156833954475,0.163650182553,0.036996937686,3.21133780479,-0.672422111034,-0.210068061948,0.167781770229,1.28178501129,-0.063082292676
2017/07/09/10:24:23.672001,544834,1499567066,479579544,,0.68922519748,0.0629751876277,-0.0087854359488,0.765421105833,0.64017120589,-0.0346273926592,-0.0557880056348,-0.0886961014831,-0.0461452696289,-0.137321573391,0.163760746435,0.136574389057,-0.0222202619491,3.53385162354,-0.975482523441,-0.190082520247,0.151523068547,1.5057053566,-0.0771590024233
2017/07/09/10:24:23.682027,544835,1499567066,489567528,,0.688394078013,0.0628368219744,-0.0100642990976,0.765828424546,0.639586856622,-0.0345834104861,-0.0569162956801,-0.0897552889168,-0.0683471746762,-0.128302945015,0.138815096803,0.121737564904,-0.0856949342936,3.28590297699,-1.00394129753,0.0530201420188,0.206281244755,1.43348991871,-0.0823231264949
2017/07/09/10:24:23.692022,544836,1499567066,499567337,,0.686844623653,0.0621314155233,-0.0117288907249,0.765736948225,0.639539696581,-0.0353124032264,-0.058214575483,-0.0871099102831,-0.0758427117781,-0.130504875839,0.109966754723,0.123435118411,-0.136250290214,2.96479916573,-1.034111619,-0.437033891678,0.349836140871,1.38501787186,-0.0679345726967
2017/07/09/10:24:23.701968,544837,1499567066,509568591,,0.686950589191,0.0614872046401,-0.0124191444392,0.765979440046,0.639271547251,-0.0347715430951,-0.0582951635453,-0.106564743981,-0.0603615978967,-0.14398692059,0.126267445992,0.170940080079,-0.0990933295676,3.41956949234,-1.06906163692,0.25695425272,0.284700781107,1.43718540668,-0.0679605305195
2017/07/09/10:24:23.712002,544838,1499567066,519570086,,0.685619781719,0.0607006767971,-0.0139410102984,0.766094621032,0.63899677511,-0.0352561783063,-0.0594907969038,-0.104061018378,-0.0659306717777,-0.13472802486,0.120890208895,0.168431084389,-0.0962049037649,2.60897302628,-1.09303677082,0.0293922256678,0.297872185707,1.17141675949,-0.080156058073
2017/07/09/10:24:23.722250,544839,1499567066,529573494,,0.68493162289,0.0608835884574,-0.0150938569192,0.76633906466,0.63859574814,-0.0351020672947,-0.0607268746521,-0.106210750639,-0.0699870166537,-0.132671986069,0.126879865181,0.169186899635,-0.0478410051164,2.99581170082,-0.503590285778,-0.456828653812,0.168952465057,1.2742395401,-0.0700264796615
2017/07/09/10:24:23.732023,544840,1499567066,539579195,,0.683683379433,0.0595922072505,-0.0167385747449,0.766147467862,0.638719868812,-0.035545237555,-0.0615753421573,-0.102735477261,-0.0457660331984,-0.141493545579,0.140373198782,0.174740096822,-0.0209345131238,3.37739658356,-0.999086618423,-0.558333456516,0.190156430006,1.35810732841,-0.0791271030903
2017/07/09/10:24:23.741845,544841,1499567066,549571136,,0.683061673918,0.0596932597507,-0.0180289079001,0.765951409386,0.638869348278,-0.0353235817764,-0.0625830557,-0.0866764307524,-0.0582520458979,-0.140174197795,0.146368596881,0.115831790725,0.00157074204145,3.97421813011,-0.59682905674,-0.495604038239,0.147308468819,1.55405902863,-0.0521853975952
2017/07/09/10:24:23.752100,544842,1499567066,559579185,,0.682129828509,0.0587451705556,-0.0192525190131,0.766601879638,0.638016176405,-0.034993064538,-0.0635011985296,-0.104611605519,-0.0489011493241,-0.149732959816,0.130437393619,0.153594691358,0.0123586197744,3.78755497932,-1.87439846992,-0.317551314831,0.523666083813,1.56599247456,-0.052638925612
2017/07/09/10:24:23.761728,544843,1499567066,569567805,,0.681248236887,0.058018833822,-0.0208777361247,0.766533118161,0.638018391946,-0.03536513565,-0.064100058355,-0.0883621356779,-0.0432841595234,-0.140198364231,0.14099774936,0.118839666266,-0.0195866099353,4.33162021637,-1.40819120407,-0.38574758172,0.37450799346,1.80793845654,-0.0722549259663
2017/07/09/10:24:23.772160,544844,1499567066,579571776,,0.679828905681,0.0579833056254,-0.0223118983131,0.766536077682,0.637844493803,-0.0357348121385,-0.0655733675998,-0.0820539946527,-0.0452018095671,-0.149919662454,0.148472710911,0.103988404383,-0.0581992829869,4.05480003357,-1.14534318447,-0.157517910004,0.292601078749,1.75942385197,-0.0754977464676
2017/07/09/10:24:23.781950,544845,1499567066,589568645,,0.679347302124,0.0572961403138,-0.0235908701394,0.766442559207,0.637938988251,-0.0355359557486,-0.0658547382855,-0.0747717843702,-0.0440066594439,-0.141273890239,0.13197119653,0.0818379045172,-0.0187937183182,3.65122628212,-0.674422740936,0.304656654596,0.202397584915,1.55378639698,-0.0437019839883
2017/07/09/10:24:23.792139,544846,1499567066,599579447,,0.679086156376,0.0567497695439,-0.0242740088357,0.766847633956,0.637418410419,-0.0351222131688,-0.0663995971134,-0.0753087931543,-0.0465226104835,-0.1337892229,0.128606856688,0.0783358648996,-0.0177313568663,3.79254674911,-1.70534992218,0.586055278778,0.424114763737,1.57738208771,-0.0543787926435
2017/07/09/10:24:23.801924,544847,1499567066,609565884,,0.678619694888,0.0568942421479,-0.0260697062553,0.766439704947,0.637865700062,-0.0346295436349,-0.0670695316302,-0.0824257170574,-0.0512123601933,-0.136567459282,0.124987045037,0.0905473786978,-0.0304395364374,4.04501008987,-0.53745496273,-0.128379613161,0.151301339269,1.67334544659,-0.0352984853089
2017/07/09/10:24:23.812043,544848,1499567066,619576979,,0.677343049539,0.0559344108358,-0.0274096871341,0.76621878877,0.638003854832,-0.0352722378823,-0.0679390770521,-0.0666322659217,-0.0419770432615,-0.139578774332,0.118507236584,0.0587238498084,0.00730729974687,4.87337636948,-1.30146944523,-0.255373001099,0.323030799627,1.9714744091,-0.0764015540481
2017/07/09/10:24:23.822030,544849,1499567066,629565551,,0.676608760471,0.0553818528253,-0.0292450186636,0.766501960356,0.637616851632,-0.0349230280653,-0.0685556518161,-0.045726777781,-0.0449456934891,-0.125493177982,0.101690753654,0.0225419766081,-0.0194096045919,4.72810268402,-1.93451750278,-0.913803458214,0.545269846916,2.03159570694,-0.063882574439
2017/07/09/10:24:23.832063,544850,1499567066,639572577,,0.677142739864,0.0556109776137,-0.0297263284276,0.766272676994,0.637937224115,-0.0343621658867,-0.0684216642336,-0.0284854080753,-0.059710558256,-0.114455103091,0.0750927962132,-0.0121571634077,-0.0245469252069,5.25515174866,-0.772375822067,-0.57231426239,0.259270310402,2.03046298027,-0.04560181126
2017/07/09/10:24:23.842362,544851,1499567066,649566818,,0.677083369771,0.0545316946348,-0.0308280813388,0.767002239055,0.637095906282,-0.0335867720293,-0.0684711634747,-0.0335096653625,-0.0396737103969,-0.123544840485,0.0902862871315,0.00802546339004,-0.0574006767819,5.24808216095,-0.855010569096,-0.218021661043,0.289694845676,1.97090697289,-0.0231623090804
2017/07/09/10:24:23.852129,544852,1499567066,659566747,,0.676182219768,0.054558426565,-0.0320118171471,0.767275938928,0.636652457111,-0.0338516101156,-0.0693927293684,-0.0577976450299,-0.0537687752494,-0.130918657532,0.0915746124261,0.0425313156551,-0.129795194515,5.11326980591,-0.943409144878,-0.0501841083169,0.223977953196,1.9695302248,-0.0449471175671
2017/07/09/10:24:23.861902,544853,1499567066,669567707,,0.675947945014,0.0541016378492,-0.0329999867657,0.767360235707,0.636546063001,-0.0336736290302,-0.0695231259474,-0.0423349871287,-0.0410992171837,-0.117075863025,0.0831031434434,0.0193625775505,-0.104546616624,5.31769561768,-1.45109152794,0.0131952436641,0.322578042746,2.11317706108,-0.0688128843904
2017/07/09/10:24:23.872009,544854,1499567066,679569779,,0.675257901038,0.0529654515187,-0.0343187453864,0.767712727867,0.636099221775,-0.0336156356088,-0.0697490972742,-0.0320912809612,-0.0511396965191,-0.111033342533,0.0658098492418,-0.00906547138882,-0.0986389120569,5.09729242325,-1.59711205959,-0.264323621988,0.480927497149,2.07032251358,-0.0382531695068
2017/07/09/10:24:23.881928,544855,1499567066,689566877,,0.675532600516,0.0528300179216,-0.0353772491535,0.768607241966,0.635055656249,-0.0328097945635,-0.0697906759104,-0.0383874292607,-0.0707874360559,-0.117833308651,0.0405337323903,-0.0021995264386,-0.15436259965,5.16604232788,-1.03052556515,-0.721060037613,0.328389197588,2.09336423874,-0.0402754247189
2017/07/09/10:24:23.892075,544856,1499567066,699573952,,0.674892778735,0.0525111414343,-0.0364890608357,0.768817461597,0.634730336746,-0.0328055846565,-0.0704336849311,-0.019055209679,-0.0217444629077,-0.116723760813,0.0743666218251,-0.025231658031,-0.145392464138,5.07011890411,-1.5969953537,-0.328359872103,0.400497078896,2.04368138313,-0.0338371954858
2017/07/09/10:24:23.901885,544857,1499567066,709569649,,0.674078114762,0.0526204208281,-0.0382131222096,0.769065177009,0.634350346152,-0.0326953494062,-0.0711997610616,-0.0529646830913,-0.0270122006074,-0.132461477852,0.0985439364744,0.0377664059616,-0.107872501543,4.86829710007,-0.890409231186,-0.648768782616,0.243389770389,1.99510276318,-0.0479344092309
2017/07/09/10:24:23.911869,544858,1499567066,719568443,,0.674731869476,0.0524891467155,-0.0384473214716,0.768787997455,0.634768029196,-0.0321740374432,-0.0707064027751,-0.0419682545276,-0.0343508479567,-0.108512621813,0.0715098907069,0.0194863388911,-0.142271864948,5.01901721954,-0.786446750164,0.0482221692801,0.209343582392,1.949436903,-0.0260192081332
2017/07/09/10:24:23.921823,544859,1499567066,729566225,,0.674629377678,0.0517076777565,-0.0391184132222,0.769594543826,0.633831448936,-0.0319022272267,-0.070456939687,-0.0172250146629,-0.0359997594728,-0.0932055651915,0.0495164261997,-0.0320785244731,-0.102770415077,4.49647808075,-1.14968836308,0.438046008348,0.263067156076,1.76407837868,-0.0549729205668
2017/07/09/10:24:23.931932,544860,1499567066,739572181,,0.673888822752,0.0519040390718,-0.040392215764,0.769230646941,0.634187660784,-0.0319424525514,-0.0712032474038,-0.0204571704995,-0.0401318156689,-0.0958249654596,0.0542643931972,-0.0298580571153,-0.120634341618,4.56007671356,-0.296404629946,0.163118645549,0.142023652792,1.81874477863,-0.0155102200806
2017/07/09/10:24:23.941792,544861,1499567066,749567261,,0.673792544751,0.0513240228177,-0.0415175677711,0.769903148942,0.633380763262,-0.0314998045258,-0.071314180172,-0.0332170266571,-0.0336986956555,-0.0970090539199,0.0713735651262,-0.00709706330587,-0.100520942329,4.93977832794,-1.33680820465,-0.321914434433,0.381055414677,1.97150051594,-0.0197599567473
2017/07/09/10:24:23.952226,544862,1499567066,759570503,,0.673247276425,0.050833935045,-0.0421805364332,0.770611838543,0.632488046848,-0.0312851129008,-0.0716764019881,-0.0254318814754,-0.014834715106,-0.0942480714758,0.0827809273934,-0.0173118438214,-0.0576475400815,3.81570649147,-1.68906807899,-0.540225207806,0.676894247532,1.55393826962,-0.0401393733919
2017/07/09/10:24:23.962202,544863,1499567066,769567946,,0.672533541638,0.0509956993592,-0.0435772181118,0.770406765628,0.632667280228,-0.0310288361188,-0.0724067630354,-0.0285203880412,-0.0414997985636,-0.0865047528349,0.0539196967811,-0.0113065285356,-0.105351916384,3.68236112595,-1.83110678196,-0.652155458927,0.901269555092,1.43843531609,-0.048486739397
2017/07/09/10:24:23.972216,544864,1499567066,779574058,,0.672275967608,0.0492285014159,-0.0440289998965,0.771462797227,0.631427610084,-0.0308813536625,-0.0720462886846,-0.0359207132377,-0.0627977047863,-0.0919817217953,0.0475106705898,-0.00916751753541,-0.148691749136,3.42104911804,-2.96278619766,-0.377473920584,1.21353304386,1.39375126362,-0.0875399559736
2017/07/09/10:24:23.982036,544865,1499567066,789568536,,0.67254751627,0.0493902314877,-0.0446078998912,0.771506919723,0.63141842296,-0.0303179493223,-0.0718934622571,-0.0315785526776,-0.0609238855214,-0.0881811875425,0.0485555968476,-0.032602250925,-0.122771823878,3.48737645149,-2.16716098785,0.0263734906912,0.971380472183,1.40677082539,-0.0573145449162
2017/07/09/10:24:23.992121,544866,1499567066,799573540,,0.671608122483,0.0491322125512,-0.0459220847537,0.771827017138,0.630938533194,-0.0305326842112,-0.0725767052292,-0.0195258853467,-0.0223841763138,-0.0756453434624,0.0650780974828,-0.032102498265,-0.108443330185,3.05251264572,-1.57892107964,-0.263750016689,0.598601341248,1.32136535645,-0.0300440937281
2017/07/09/10:24:24.002127,544867,1499567066,809588247,,0.671978198279,0.048603381409,-0.0464712103649,0.772062985888,0.630731121569,-0.0297034176952,-0.072212914934,-0.0261016474815,-0.0358712164832,-0.0846679654469,0.0637848274724,-0.027168938881,-0.113331520266,3.66848802567,-1.22531032562,-0.031557276845,0.481097400188,1.48706507683,-0.0327087379992
2017/07/09/10:24:24.012125,544868,1499567066,819571947,,0.672422792045,0.0489901177936,-0.0471256211957,0.771822758778,0.631068873519,-0.0289326714347,-0.0721429582889,-0.0139593601661,-0.0250953124603,-0.0893341414325,0.059744463815,-0.0536642362794,-0.0972864372739,4.56270503998,-0.854410886765,-0.317968994379,0.314925849438,1.86750650406,-0.0176742598414
2017/07/09/10:24:24.021847,544869,1499567066,829570260,,0.671711913183,0.048087231263,-0.04823749894,0.772719723994,0.629933790761,-0.0288925634579,-0.0724766664799,-0.0017713121738,-0.0503900893412,-0.0800500160625,0.0446735265877,-0.084578099926,-0.107337612222,4.29047822952,-1.79250538349,-0.658026993275,0.544689059258,1.82896518707,-0.0510819107294
2017/07/09/10:24:24.032187,544870,1499567066,839566757,,0.672761265098,0.0477186758458,-0.0480657253055,0.772848651017,0.629941457126,-0.0278992760948,-0.0714167599952,0.010184943568,-0.042782857275,-0.0691762073919,0.0139253057679,-0.0946361451946,-0.0865765511861,4.36733675003,-1.70406603813,-0.319556325674,0.697825372219,1.71039795876,0.0135540030897
2017/07/09/10:24:24.041930,544871,1499567066,849565654,,0.672415839755,0.0471740385663,-0.0493395384003,0.773082350486,0.629669421984,-0.0276952012792,-0.0713657775944,0.00172556578913,-0.0430470007482,-0.0772506704411,0.00285042806241,-0.0875991461566,-0.0826517750574,4.09891605377,-1.52996373177,-0.585886836052,0.652157127857,1.64166462421,-0.0054539591074
2017/07/09/10:24:24.052041,544872,1499567066,859583364,,0.672978551209,0.0468930348561,-0.0497827599998,0.773173508585,0.629642028081,-0.0270637002689,-0.0708604136551,0.0110574530238,-0.0329547034865,-0.0827510216622,0.0309342378202,-0.103485589268,-0.0816427362328,3.77920269966,-0.958880782127,-0.16036939621,0.53416031599,1.43563747406,0.005485214293
2017/07/09/10:24:24.061866,544873,1499567066,869573845,,0.671805896727,0.0457528149693,-0.0509685728248,0.7740754299,0.628460566259,-0.027358240256,-0.0713867786907,0.0118790656101,-0.0385779522464,-0.0817687647636,0.0134043792433,-0.106210334196,-0.079995243916,3.69419193268,-1.71291685104,-0.236093103886,0.494623541832,1.56874489784,-0.050964102149
2017/07/09/10:24:24.072267,544874,1499567066,879575637,,0.672503673202,0.0469930858576,-0.051869573897,0.773777228787,0.62886900548,-0.0262515189793,-0.0714383084171,0.0171128047665,-0.03658847232,-0.0694262209028,0.0368980893554,-0.123908897729,-0.101469717603,3.88689565659,-0.83720934391,-0.134155392647,0.467812538147,1.56129860878,-0.0170705094934
2017/07/09/10:24:24.082195,544875,1499567066,889569596,,0.672435269167,0.0460256570276,-0.0523623857295,0.774358983003,0.628207301607,-0.0258989227376,-0.0710844388895,0.00595902845702,-0.0151027433027,-0.0832337605731,0.0504020947789,-0.0929502789202,-0.0976744879778,3.78274893761,-1.12431097031,0.313426464796,0.534923255444,1.40517961979,-0.000687576830387
2017/07/09/10:24:24.091810,544876,1499567066,899570571,,0.673062781094,0.046195274552,-0.0527075303324,0.774648419816,0.627921521712,-0.0249361614619,-0.0707995487187,0.0113286234676,-0.0160783328763,-0.0763121344811,0.0326028580984,-0.0903858488261,-0.0602397287713,3.80880403519,-1.0753878355,0.704507291317,0.417019724846,1.30657029152,-0.0237497240305
2017/07/09/10:24:24.101965,544877,1499567066,909578126,,0.672904626564,0.0459064157811,-0.0538778551907,0.774375738247,0.628279257804,-0.0248867977189,-0.0706260400092,-0.00923749994863,-0.0340785338049,-0.0785177456806,0.046984661671,-0.0660237448394,-0.11144942729,2.65010881424,-0.938350200653,0.391985118389,0.411464631557,0.880590677261,-0.0401994585991
2017/07/09/10:24:24.112159,544878,1499567066,919564747,,0.672045046527,0.0452773036707,-0.054663651665,0.775004281839,0.627471690688,-0.025133143123,-0.0708234822179,-0.00776677249132,-0.0353657016792,-0.0860334805061,0.0115545700281,-0.066802562055,-0.0663493351701,2.60249972343,-1.06617355347,0.46672308445,0.411272019148,0.918087899685,-0.0604801550508
2017/07/09/10:24:24.122138,544879,1499567066,929567101,,0.672640513606,0.0447533494715,-0.054950578844,0.775119964191,0.627433907747,-0.0242333134322,-0.070203127013,-0.00305572688737,-0.0224373146158,-0.0696950677517,0.00711121185972,-0.0707692288499,-0.0417449746558,3.28103518486,-0.829112887383,0.406929016113,0.290457934141,1.18458235264,-0.0345202162862
2017/07/09/10:24:24.132015,544880,1499567066,939573208,,0.672761706409,0.0454112033792,-0.0556569163044,0.775242739889,0.627270251906,-0.0235970214351,-0.0705259236265,0.00179875616173,-0.0345957901942,-0.0627368557414,0.0166098209875,-0.0894013529182,-0.0759549316055,3.73847007751,-0.288291066885,0.483343333006,0.137108057737,1.30828249454,-0.0273732803762
2017/07/09/10:24:24.141865,544881,1499567066,949566252,,0.672572041225,0.0443903455507,-0.0562077260096,0.775298782441,0.627262997838,-0.0240544929702,-0.0698162649864,0.0113439503979,-0.00622265297456,-0.0602518387192,0.0402017633777,-0.0902105194709,-0.0618986178636,3.30902791023,-0.75725287199,-0.253966540098,0.231611981988,1.24075579643,-0.042011834681
2017/07/09/10:24:24.151990,544882,1499567066,959573081,,0.672402516369,0.0448753875365,-0.0571712853741,0.775251247504,0.627301712435,-0.0233246639647,-0.0702426143515,0.00309370612165,-0.0041933372968,-0.0663762840264,0.0294751772495,-0.0671122869516,-0.0508533721222,2.71241521835,-0.742451369762,-0.216135621071,0.21443657577,1.03754985332,-0.0324351340532
2017/07/09/10:24:24.161963,544883,1499567066,969571703,,0.672849686373,0.0447750635794,-0.0573586129621,0.775801895994,0.626673889889,-0.0224608569593,-0.0700482962524,-0.0106686214339,-0.0227512866645,-0.0680075557708,0.0260711490321,-0.0690559123897,-0.0558876319504,2.69588685036,-0.400665611029,0.306154936552,0.265278965235,0.973788619041,-0.0345647521317
2017/07/09/10:24:24.172087,544884,1499567066,979571014,,0.672570784526,0.0445402789372,-0.0580532502201,0.775878033454,0.626605619943,-0.0222531608531,-0.0698818366422,-0.00610984471393,-0.022296907182,-0.0640204875996,0.0329191933511,-0.0682619936802,-0.0495620057117,2.33810043335,-0.797218203545,0.169530451298,0.351552516222,0.928817272186,-0.0267558693886
2017/07/09/10:24:24.182054,544885,1499567066,989569687,,0.671378435482,0.0449043074839,-0.0593005530065,0.775396622647,0.627098925585,-0.0229297515575,-0.0705779116326,-0.0137142174344,-0.00519234859801,-0.0700667747044,0.0279722048461,-0.0481298392174,-0.0533135465788,1.81810772419,-0.222294509411,0.102581739426,0.164841324091,0.843359649181,-0.0374243706465
2017/07/09/10:24:24.191968,544886,1499567066,999573174,,0.671804327902,0.0445594098744,-0.0596110162612,0.776222172776,0.626128238105,-0.0220273270664,-0.0704085563047,-0.01439940762,-0.00906543963199,-0.0614039186881,0.0166678851805,-0.0433885274434,-0.0309872012334,1.84375667572,-0.603068232536,0.835557639599,0.294036030769,0.763251721859,-0.0422422625124
2017/07/09/10:24:24.202460,544887,1499567067,9593821,,0.671484974906,0.0440922165784,-0.060160836241,0.7764410551,0.625859663858,-0.0217621890896,-0.0704654258219,-0.0213564072871,0.000973115234342,-0.0626090704997,0.0465392567906,-0.0286145197613,-0.0572684571473,1.77575707436,-0.600983500481,0.631107032299,0.186349660158,0.678714692593,-0.0462068766356
2017/07/09/10:24:24.211984,544888,1499567067,19578720,,0.671294703926,0.0433436169784,-0.0605937301961,0.776690369669,0.625592787482,-0.0220708926067,-0.069990067964,-0.020834804013,-0.0407316264913,-0.0466486039108,0.00728626256296,-0.0432636392084,-0.0769884320082,1.87080216408,-0.355736523867,0.372396469116,0.212250158191,0.697862744331,-0.0630564168096
2017/07/09/10:24:24.221983,544889,1499567067,29572741,,0.670892689516,0.044302036102,-0.0612955497961,0.775958455921,0.626463482894,-0.0217205881968,-0.0704286542048,-0.0392611297711,0.00741512340431,-0.0610082997623,0.0267315247356,0.0182193666167,-0.00152343927018,2.16577386856,-0.327851057053,-0.133147194982,0.149659305811,0.853402018547,-0.0330761224031
2017/07/09/10:24:24.231974,544890,1499567067,39566232,,0.670078885882,0.0436002681063,-0.0619686849671,0.776737482154,0.625466548023,-0.0220096799387,-0.0706120040041,-0.0448086726703,0.0122196330259,-0.0597839129193,0.0524744314201,0.0169657713856,0.0122792677388,1.90891051292,-0.95101249218,-0.208680406213,0.334560334682,0.780661344528,-0.046628613025
2017/07/09/10:24:24.242252,544891,1499567067,49586054,,0.671177216071,0.0444904886555,-0.0617869229636,0.776295552815,0.626088989256,-0.0209756371683,-0.0702695870036,-0.0445335111205,-0.00371731402942,-0.0578117463931,0.0444694119411,0.0143872035557,-0.0301714448127,2.81170225143,-0.496461600065,0.28977394104,0.352875769138,0.961239635944,-0.00455716997385
2017/07/09/10:24:24.252154,544892,1499567067,59579219,,0.669946161464,0.0440829878834,-0.062715359451,0.776515577875,0.625736790864,-0.0212620078944,-0.0708869021539,-0.0236206822633,-0.00286430874125,-0.0462503263534,0.039900603022,-0.0213221630803,-0.0353018074813,1.94794952869,-0.382282823324,0.231099277735,0.161681115627,0.742699325085,-0.0433404818177
2017/07/09/10:24:24.262069,544893,1499567067,69571098,,0.668951475409,0.0440349973552,-0.0635305215447,0.77653529728,0.625655199545,-0.0218461348041,-0.0712127078105,-0.0429974730461,0.00584720276503,-0.0538542330718,0.0408046596337,0.0140234773816,-0.050190839537,1.09193003178,-0.884725451469,0.305730819702,0.210917025805,0.541495144367,-0.082181096077
2017/07/09/10:24:24.272022,544894,1499567067,79574273,,0.669628437882,0.0442259314652,-0.0633201545306,0.776807155552,0.625385235731,-0.0206687338393,-0.0709700884411,-0.0486678312855,0.00488581591503,-0.0526463282132,0.0293334073525,0.0330134793092,-0.00608828366113,1.09794378281,0.0176751464605,0.945053994656,0.0579675883055,0.389732182026,-0.0530045032501
2017/07/09/10:24:24.282063,544895,1499567067,89570002,,0.668392393087,0.0453752347252,-0.0642958648716,0.776114344024,0.626101725276,-0.021367465678,-0.072017956207,-0.0524887470798,0.0069849828339,-0.0453733275881,0.0229303906577,0.0363600951824,-0.013538185407,0.660876989365,1.15884160995,0.635571479797,-0.20017722249,0.379312038422,-0.064162813127
2017/07/09/10:24:24.292071,544896,1499567067,99567123,,0.668097741089,0.0443343772199,-0.064574657494,0.776761588067,0.62534697576,-0.021115347027,-0.0716710355083,-0.058744249822,0.0109547025208,-0.05698449719,0.0492556894269,0.0386615888241,-0.0190163241886,0.933803021908,-0.362069219351,1.14047074318,0.128473818302,0.425217837095,-0.0550115779042
2017/07/09/10:24:24.302022,544897,1499567067,109573763,,0.667717380119,0.0452763534985,-0.0651994116723,0.776484419767,0.625622574065,-0.0209798394068,-0.0723062031806,-0.0491319864578,0.0277796479812,-0.0520853641875,0.0461836679216,0.0271926452645,0.0118530815434,0.875567853451,0.0548114180565,1.28502857685,-0.0222640037537,0.332986474037,-0.0691060200334
2017/07/09/10:24:24.312123,544898,1499567067,119573104,,0.667022318902,0.0441823224867,-0.0656913501872,0.776322330959,0.625848691767,-0.0216488493726,-0.0718914514303,-0.0433858604138,0.0120885849003,-0.0504913160771,0.0339968324365,0.0208606007287,0.0089132921261,1.09087336063,-0.60525816679,0.98919993639,0.263245284557,0.467160820961,-0.0278525128961
2017/07/09/10:24:24.321829,544899,1499567067,129567770,,0.666664067599,0.0445629030063,-0.0662052481772,0.777055823281,0.624897311173,-0.0214271409154,-0.0723081988894,-0.0524580387501,0.00552145255427,-0.0493623050833,0.00864669513939,0.0339508488348,0.0128378534592,0.616195559502,-0.62581717968,0.712146282196,0.301605671644,0.244867295027,-0.088066264987
2017/07/09/10:24:24.331955,544900,1499567067,139570268,,0.666098483156,0.0449195029347,-0.066583280395,0.776793789952,0.625193615693,-0.0212778447394,-0.0726058132044,-0.0447661389809,0.0117470432362,-0.0446128317078,0.0133873012253,0.01723098484,0.0199359583948,0.868691623211,-0.0720612853765,0.134067952633,0.151623591781,0.432196170092,-0.0444666109979
2017/07/09/10:24:24.342271,544901,1499567067,149567743,,0.666390064611,0.0456510065929,-0.0665519988212,0.7764292502,0.625675491912,-0.0208258209457,-0.0724850566441,-0.04709291009,0.0261153233042,-0.048330110875,0.039260666188,0.0216762308,-0.00312896682919,1.92406511307,0.249990135431,0.528361022472,0.20391343534,0.618872880936,-0.0106160156429
2017/07/09/10:24:24.351933,544902,1499567067,159567777,,0.665798860904,0.0453896432427,-0.0671885106013,0.776177956193,0.62597234339,-0.0211754834897,-0.0725120991891,-0.0432479152199,0.0214882833237,-0.0411179538636,0.044854886029,0.0193949446115,-0.00653249130856,1.70407056808,-0.196105122566,0.174283117056,0.24456140399,0.632698237896,-0.0370424576104
2017/07/09/10:24:24.362237,544903,1499567067,169566519,,0.665542961424,0.0460709774333,-0.0677021028241,0.77650288359,0.625550517957,-0.0208253324612,-0.0727744926939,-0.0403700816043,0.00691504492095,-0.0364224320289,0.00497029700326,0.0126301829527,-0.00486620343067,1.52775919437,0.59042942524,0.081100165844,0.0467701628804,0.514628946781,-0.0367483980954
2017/07/09/10:24:24.372244,544904,1499567067,179573920,,0.664882430346,0.0453138686336,-0.0678335598003,0.776470948397,0.625587490667,-0.021273299508,-0.0726677682624,-0.026597538603,0.0267741661406,-0.0401323086847,0.0311892065299,-0.0143440630705,0.028806051302,1.24800479412,-0.802828848362,0.561877906322,0.430439680815,0.43240532279,-0.0559179857373
2017/07/09/10:24:24.381799,544905,1499567067,189567068,,0.664552206712,0.0465177694241,-0.0685184224381,0.775978163342,0.626159430627,-0.020968755682,-0.0730928774855,-0.0104161995554,0.0149402760137,-0.0363125565424,0.0277719511251,-0.0586362428184,0.00808369339286,0.765727341175,-0.302103042603,0.120930291712,0.323286861181,0.360254824162,-0.0544542148709
2017/07/09/10:24:24.391843,544906,1499567067,199567268,,0.664182068297,0.0472542107824,-0.0690166863369,0.775680519478,0.626473895949,-0.0209391359188,-0.0735645429711,-0.0427316960523,0.010495281467,-0.0363287014177,0.013650903319,0.0086337550929,0.0316236644466,0.529068171978,0.689099133015,0.312104582787,0.104150168598,0.201749965549,-0.0260840654373
2017/07/09/10:24:24.401964,544907,1499567067,209565914,,0.663748910415,0.047101796149,-0.0688400765465,0.776068357137,0.626013047052,-0.0211144547093,-0.0733467775293,-0.0575024877222,0.0314390115424,-0.0414704303056,0.0338177254875,0.0413388712561,0.0354456210542,1.06097769737,-0.102145254612,0.349742233753,0.231438368559,0.337067127228,-0.0655154436827
2017/07/09/10:24:24.412101,544908,1499567067,219566516,,0.663613959183,0.0472694457834,-0.069639541724,0.775987114472,0.626105707644,-0.0204935396218,-0.0735911398391,-0.0444009544381,0.0327394383951,-0.0390454677405,0.0261630700732,0.0144687675722,0.0545010908855,1.32500422001,0.0538347885013,0.0266406219453,0.209646195173,0.478068381548,-0.031743708998
2017/07/09/10:24:24.421923,544909,1499567067,229568388,,0.662757655495,0.0465570715818,-0.0701964552217,0.776136963227,0.625907339453,-0.0210352708481,-0.0735454560926,-0.0243537711142,0.0122838183233,-0.0334055634144,0.0215852592323,-0.0216009184667,0.012346065163,0.828523695469,-0.672440767288,0.100614957511,0.314431667328,0.327102094889,-0.0620581582189
2017/07/09/10:24:24.432074,544910,1499567067,239570922,,0.663214806272,0.0476402064303,-0.0702792711196,0.775864668991,0.626263585161,-0.0204501519615,-0.0735508572248,-0.0274124276811,0.0106376423354,-0.0350738604699,0.0235584869229,-0.00947736374452,-0.029241241913,1.00752103329,0.120535239577,0.139645934105,0.222965851426,0.264953404665,-0.0393084138632
2017/07/09/10:24:24.442245,544911,1499567067,249567347,,0.662262186571,0.0466890147399,-0.0706561389748,0.775916098906,0.626212302416,-0.0210721310278,-0.0732688546044,-0.0269980827548,0.0226855639627,-0.0409059687967,0.0101540945854,-0.0192184680498,0.043663387471,0.994533479214,-0.395058631897,0.00431762356311,0.244328916073,0.397541850805,-0.0387429147959
2017/07/09/10:24:24.452015,544912,1499567067,259569514,,0.661951427333,0.0470717655827,-0.0715253409933,0.775981301797,0.62611711716,-0.0206804642814,-0.073503015295,-0.0382118399258,0.0215264975038,-0.0448432432079,0.0169807905069,0.00492735980764,0.0163209322064,0.732072710991,-0.0719418525696,-0.282949566841,0.0930406078696,0.362732231617,-0.0535879060626
2017/07/09/10:24:24.462221,544913,1499567067,269565958,,0.662307786823,0.048329884429,-0.0714085526095,0.775526335206,0.626680582852,-0.0204597319291,-0.0735645964333,-0.0157140261576,0.026829096208,-0.0310125709223,0.0156402272646,-0.0205170293702,0.0396530727354,1.03457593918,0.304376512766,0.0121304579079,0.0414024144411,0.447492986917,-0.0620281398296
2017/07/09/10:24:24.472200,544914,1499567067,279569040,,0.662025495808,0.0484941229535,-0.0716097599239,0.775329980123,0.626908702137,-0.0202851039699,-0.0737388341626,-0.0256247055745,0.039208443164,-0.0310945005636,0.0323746104969,-0.000675835628754,0.0466539508043,0.648189604282,0.12006739527,-0.0361951738596,0.0957727953792,0.338116466999,-0.0637250840664
2017/07/09/10:24:24.481977,544915,1499567067,289573083,,0.661674679635,0.0491570366115,-0.0716458755223,0.775096795882,0.627169215632,-0.0202894395074,-0.0739734453819,-0.0303118961895,0.0168906521281,-0.0394069992527,0.0113498402332,0.00925016948157,-0.00742357646684,0.870017468929,0.0833324566483,0.117397196591,0.0891365334392,0.39667570591,-0.0658949315548
2017/07/09/10:24:24.492047,544916,1499567067,299570405,,0.661521277195,0.0481741679016,-0.0720732865076,0.775364673582,0.626910921284,-0.0203913790788,-0.0733246983998,-0.0268309275953,0.0159845384997,-0.040164883771,0.0147776802589,-0.00516569377773,0.0324151347893,0.68165910244,-0.27053925395,0.145523697138,0.221975922585,0.26708573103,-0.0697792246938
2017/07/09/10:24:24.502135,544917,1499567067,309570606,,0.661579201012,0.0490229418919,-0.0723499830761,0.774885790751,0.627485512087,-0.0200638698976,-0.0735621134754,-0.0304930261632,0.0219368986195,-0.0355246731792,0.0161755256562,0.00166646217738,0.0187823389558,1.06290078163,0.38657271862,0.431518703699,0.0690546780825,0.374508410692,-0.0382422208786
2017/07/09/10:24:24.512072,544918,1499567067,319577369,,0.661235566926,0.0488227852371,-0.073230564335,0.77538815826,0.626872356746,-0.0198914744864,-0.0735430596323,-0.00950760092849,0.0424415874727,-0.0353220151098,0.0343243938996,-0.0279007813274,0.0218174202989,0.849478721619,-0.158588111401,0.273772567511,0.181183457375,0.383514583111,-0.0408579558134
2017/07/09/10:24:24.521813,544919,1499567067,329566020,,0.661181349171,0.0488018386171,-0.0731028661199,0.775124689472,0.627223737763,-0.0201446389054,-0.0732549799042,0.00239542846254,0.0211796660093,-0.0277748933372,0.00112694381152,-0.0540086535507,0.0508450239516,1.50258100033,-0.594644010067,0.552365481853,0.271447241306,0.534075260162,-0.0543750412762
2017/07/09/10:24:24.532016,544920,1499567067,339579453,,0.661332564668,0.0498910538136,-0.0733075966666,0.774943784198,0.627435654146,-0.0196755795789,-0.0734813092469,-0.016243715052,0.0251504173347,-0.0313791044332,0.0238810833548,-0.0150634473183,0.00860660266218,1.49051046371,-0.24486489594,0.325303584337,0.313464999199,0.546038269997,-0.0317176058888
2017/07/09/10:24:24.542117,544921,1499567067,349569647,,0.660929219436,0.0496298449748,-0.0738338073035,0.774928643959,0.627466006889,-0.0195534049613,-0.073414380921,-0.00947015006673,0.00887163881167,-0.0240837047255,0.00662410690508,-0.025861166694,0.00334466039052,1.10937929153,-0.272177934647,0.102131612599,0.327151983976,0.442073434591,-0.0252530053258
2017/07/09/10:24:24.552187,544922,1499567067,359570238,,0.660288238536,0.0501763347679,-0.0742003412021,0.774933057834,0.627380335069,-0.0197391877384,-0.0740475219885,-0.018235557248,0.00958756101524,-0.0216706174135,-0.00216813839039,-0.0150411666266,0.0343325154616,0.875747323036,-0.1325083673,0.118663355708,0.229636877775,0.401530981064,-0.0250427685678
2017/07/09/10:24:24.561740,544923,1499567067,369565738,,0.660834997643,0.0506716924872,-0.0741405862498,0.774880908061,0.627507168552,-0.0191007579353,-0.0736850920158,-0.0340957773748,0.0205628650732,-0.0389170461954,0.0105942749569,0.0261974372852,0.0249515350387,1.12212586403,0.034090295434,0.258405297995,0.201194822788,0.361990511417,-0.0377222970128
2017/07/09/10:24:24.571975,544924,1499567067,379574559,,0.659925462208,0.0500225439486,-0.0744035316955,0.774755916444,0.627639321037,-0.0197941053115,-0.0736908815095,-0.0260648656088,0.024202298792,-0.024939668022,0.0045735552104,0.0111226675526,0.0202921254394,0.850838422775,-0.184916123748,-0.040297050029,0.315832972527,0.348593920469,-0.028277579695
2017/07/09/10:24:24.581954,544925,1499567067,389567182,,0.659978750043,0.0500240243435,-0.074764150722,0.774681733776,0.627757793692,-0.0196899199165,-0.073489256804,-0.00777004005175,0.0332198657586,-0.0189565064725,0.01979184625,-0.0210073870444,0.0489221567442,1.64292657375,-0.846317350864,0.0375453047454,0.354981809855,0.621601343155,-0.0225161090493
2017/07/09/10:24:24.592215,544926,1499567067,399570548,,0.659736211977,0.0493191471343,-0.0749948861286,0.774825098229,0.627633395264,-0.0198092246213,-0.0730067320454,-0.0146821163755,0.00835440412182,-0.0280143967298,-0.00735630822736,-0.0148798257732,0.0550464021034,1.19658172131,-1.58434867859,-0.281620115042,0.591610431671,0.515693664551,-0.0134740807116
2017/07/09/10:24:24.601992,544927,1499567067,409565152,,0.658898115134,0.0501561327916,-0.0752482768861,0.774619014427,0.627771758634,-0.020046809146,-0.0739332604047,-0.0182655442375,5.79649932583e-05,-0.0185216642535,-0.0212880980905,-0.00723366454419,0.0204636751719,1.15054404736,-0.480560541153,0.00273386249319,0.333042740822,0.461162239313,0.00319277867675
2017/07/09/10:24:24.612231,544928,1499567067,419608808,,0.659247552173,0.0510909850245,-0.0754364370032,0.774073700056,0.628471922679,-0.0198807680978,-0.0737407915987,-0.0194685541208,-0.00453623074846,-0.0107469724031,-0.0232318827064,-0.00528211789089,0.040482693803,1.24557316303,-0.13127887249,0.00500245997682,0.261205106974,0.455172300339,-0.00127788633108
2017/07/09/10:24:24.622037,544929,1499567067,429565995,,0.659203438556,0.0512851083928,-0.0754457748313,0.773691687691,0.628945648691,-0.0200463566321,-0.0736660503641,-0.0396813613917,0.0109150509222,-0.0247758871566,-0.0148495563464,0.0386257151483,0.0742657540379,1.22222471237,-0.130907997489,-0.192623361945,0.279834508896,0.424659192562,-0.017769947648
2017/07/09/10:24:24.632084,544930,1499567067,439573760,,0.658706363504,0.0513168685005,-0.0758352986399,0.773616674208,0.629016552361,-0.0203796931086,-0.0737569410417,-0.0222792390822,0.0260611624745,-0.0269936084211,-0.012911122962,0.0104377799064,0.0734690415601,1.34139800072,-1.06432569027,-0.0974611565471,0.51296287775,0.522847592831,-0.0470230542123
2017/07/09/10:24:24.642218,544931,1499567067,449571814,,0.658530753495,0.0506809350316,-0.0757788885002,0.773863673934,0.628758247982,-0.0202895137085,-0.073392202537,-0.0207620088661,0.0164915159085,-0.014696152007,-0.0144272055992,-0.00325138175849,0.0284324775567,1.7523419857,-1.15513813496,-0.198292896152,0.527556240559,0.698762238026,-0.027433745563
2017/07/09/10:24:24.652325,544932,1499567067,459574002,,0.658458428369,0.0517980585657,-0.0759072176667,0.773212927976,0.629521880772,-0.0201363734638,-0.0737461599217,-0.021577953158,0.0195831462485,-0.0203896380795,0.0045833144008,0.00255932328795,0.0227415894309,1.84385192394,-0.859251141548,-0.730035424232,0.509108781815,0.755894243717,-0.00800524652004
2017/07/09/10:24:24.662061,544933,1499567067,469570262,,0.658132161469,0.0512762074382,-0.0761185058233,0.773392254018,0.629310799308,-0.0205249697102,-0.0735599409865,-0.0226507431141,0.00616426689569,-0.0147253472702,0.00677170143627,0.0089665534453,0.0232435011375,1.3495606184,-0.565004706383,-0.663452148438,0.491340249777,0.530269861221,-0.00912834331393
2017/07/09/10:24:24.671747,544934,1499567067,479567856,,0.657784652034,0.0522519695159,-0.0765981424805,0.773218484746,0.62945949587,-0.0200281855541,-0.0742481628734,-0.0482855641916,-0.000495476692389,-0.0212373503784,-0.00589729809687,0.0537661219809,0.0361547893704,1.22798979282,-0.142405435443,-0.69617408514,0.339661926031,0.45724478364,-0.00282059982419
2017/07/09/10:24:24.682082,544935,1499567067,489569024,,0.657506507658,0.0524808666253,-0.0764414876895,0.772801614957,0.629961892329,-0.0203181146699,-0.0742485848375,-0.00864321939799,0.034554731482,-0.0184805994204,0.0456525640192,-0.0116811429638,0.0398745624294,0.939503610134,-0.272016346455,-0.599696874619,0.470109432936,0.361080378294,-0.00745989382267
2017/07/09/10:24:24.692133,544936,1499567067,499590134,,0.656837494669,0.0513526845276,-0.0768034918472,0.773147177185,0.629547068851,-0.0207748813587,-0.07404279045,-0.0133700566954,0.00242374578939,-0.0105464526807,0.00303538270926,-0.00892392990106,-0.00791795451691,1.26950514317,-0.558849334717,-1.00895524025,0.388771653175,0.568422973156,-0.0120584964752
2017/07/09/10:24:24.702040,544937,1499567067,509570046,,0.657250397395,0.051996941657,-0.0767861275554,0.772961392347,0.629802928372,-0.0203222788773,-0.0739321468442,-0.0321393150749,-0.00279731914765,-0.0220925734593,-0.00587522635398,0.0166899390455,0.00751386465677,1.70196378231,-0.423394083977,-0.952193796635,0.400291025639,0.677442610264,-0.0176126547158
2017/07/09/10:24:24.711886,544938,1499567067,519576058,,0.657312060406,0.052403968331,-0.0769942091806,0.773160864859,0.629560492018,-0.0199117103753,-0.0740228865268,-0.0192505922011,0.0243698334817,-0.0197158061991,0.023221496888,-0.000213346979822,0.00785909932538,2.16890096664,-0.179458364844,-0.771983087063,0.464484870434,0.815100729465,0.0237887501717
2017/07/09/10:24:24.721899,544939,1499567067,529567963,,0.656888069281,0.0520020234353,-0.0772895694831,0.773435259278,0.629214845671,-0.0200024408276,-0.0740707773281,-0.00797333254459,0.0251169406948,-0.0248196194086,0.037629008434,-0.0250834638149,0.0215709669419,1.53285646439,-1.09112131596,-0.867796480656,0.655248224735,0.68723654747,-0.00134314969182
2017/07/09/10:24:24.732669,544940,1499567067,539572841,,0.656957887754,0.0522066978846,-0.0773001868327,0.773310951987,0.629374631174,-0.0197888733313,-0.0740685200561,-0.0225178416686,0.00479702342235,-0.025073728514,0.000388943271425,0.0124665393826,-0.0123727209343,1.62239158154,-0.894347727299,-0.856713116169,0.462698459625,0.777865588665,-0.0253456309438
2017/07/09/10:24:24.741947,544941,1499567067,549567990,,0.656904203371,0.0517545354076,-0.0775939466034,0.773053848262,0.629733557454,-0.0199096187178,-0.0736681843588,7.62269354786e-05,0.00429056241258,-0.0150604044705,-0.00370117353357,-0.0399307699552,0.0117480435395,1.44837391376,-0.808122932911,-0.268235057592,0.442037403584,0.580215096474,-0.0114698074758
2017/07/09/10:24:24.752073,544942,1499567067,559573308,,0.656598794609,0.0521226112265,-0.0780564538046,0.773479549441,0.62918520367,-0.0197700158703,-0.0739223413576,-0.00742902500051,0.00647885038793,-0.0152209462188,0.00373730431756,-0.0217053002468,0.00591817980002,1.2041336298,-0.557472467422,-0.425973057747,0.422767013311,0.523894846439,-0.00920521467924
2017/07/09/10:24:24.762000,544943,1499567067,569572460,,0.657435990066,0.051978151008,-0.0776539360225,0.773287644047,0.62953069481,-0.0194736815439,-0.0730622993369,-0.00127954590502,-0.00984501319486,-0.0260413808758,-0.019200049395,-0.0398936541801,0.00123963140457,1.75044751167,-0.643569290638,-0.706726789474,0.383171021938,0.732106685638,-0.0107274204493
2017/07/09/10:24:24.772211,544944,1499567067,579573874,,0.656616576508,0.0520283015138,-0.0781766610407,0.77341339404,0.629308964505,-0.0194670520979,-0.073640905728,0.0119825720663,0.0134065886779,-0.0165274525009,0.0162647431402,-0.0736150386849,0.0251601599474,0.953767776489,-0.0981608629227,-0.686380505562,0.23814496398,0.490137785673,-0.0214642137289
2017/07/09/10:24:24.782036,544945,1499567067,589571577,,0.657443785218,0.0529589934527,-0.0783646441423,0.772945570906,0.629941441892,-0.0187509160598,-0.0733302621689,0.00716377344238,0.019350758649,-0.0232603716442,0.0178594680478,-0.0527034348557,0.0220073444527,1.69683945179,-0.439435273409,-0.467896342278,0.324518799782,0.670855224133,-0.00901564210653
2017/07/09/10:24:24.792105,544946,1499567067,599573453,,0.657420741748,0.0526630104853,-0.0784949161622,0.772866004851,0.63006790411,-0.0186841793607,-0.0730990848001,0.00675307788805,0.0180375556224,-0.0205935109277,0.0263255522404,-0.0437147168502,0.000730337989264,2.11824226379,-0.761902689934,-0.355063527822,0.477528065443,0.789576053619,0.00605347752571
2017/07/09/10:24:24.801961,544947,1499567067,609567302,,0.657871317986,0.0523345676258,-0.0787814341088,0.773476194851,0.629382685148,-0.0182245946449,-0.0726627537702,0.00587000418594,0.0150968087626,-0.0201708500642,0.0200511964541,-0.046092160938,-0.0131334024664,1.93751513958,-1.26287508011,-0.393175721169,0.473003417253,0.726244807243,-0.0191086530685
2017/07/09/10:24:24.812230,544948,1499567067,619573577,,0.658014419665,0.0527105978513,-0.0787982409977,0.772875396611,0.630156907759,-0.0179963898305,-0.0724018153721,0.00378601917291,-0.0165612225642,-0.0195290125453,-0.0195680959924,-0.0462895707998,-0.0630084646966,2.13352823257,-0.355647146702,-0.525679886341,0.185478433967,0.804022669792,-0.0218798927963
2017/07/09/10:24:24.822034,544949,1499567067,629572923,,0.658176790513,0.0522240319652,-0.0785987801641,0.773094788242,0.629945467079,-0.0178983564966,-0.0719222200271,0.0249791151799,-0.0109313498854,-0.0106018540261,-0.0291431619878,-0.0773338599717,0.0155775098105,2.19353437424,-0.397093743086,-0.394372045994,0.225134879351,0.819757342339,-0.00573573261499
2017/07/09/10:24:24.831983,544950,1499567067,639572686,,0.658673848489,0.0521379292273,-0.0787813822641,0.773411839061,0.629614384213,-0.0175127383548,-0.0715063520883,0.0318337205152,-0.00768630103773,-0.0122105626939,-0.0238911266992,-0.0995287673851,0.0242602265531,1.89568698406,-0.882484078407,-0.167960971594,0.314304471016,0.781758308411,-0.00411374121904
2017/07/09/10:24:24.842242,544951,1499567067,649568786,,0.658459112942,0.0521575690579,-0.0792106037913,0.773354906148,0.62968069095,-0.0173522258697,-0.0715773486397,0.0149786389509,-0.00408449293436,-0.0211151504983,-0.0148262499801,-0.0677783787279,0.000576593591213,1.90272557735,-0.754624128342,-0.0158042348921,0.316203445196,0.795244216919,-0.033821284771
2017/07/09/10:24:24.852051,544952,1499567067,659566463,,0.658734524165,0.0521964616879,-0.0791431245842,0.772918110163,0.630273027855,-0.0170159503338,-0.0711615259372,0.0212183460977,-0.0051055986528,-0.0179577345467,-0.00691810035899,-0.0865720729513,0.000114681653001,2.04164600372,-0.661347985268,0.194172874093,0.36602088809,0.801869988441,-0.00411473214626
2017/07/09/10:24:24.861876,544953,1499567067,669567230,,0.658476949687,0.0525985695131,-0.0795443877664,0.773515065948,0.629507892614,-0.0169585488955,-0.0714609229384,0.0214236045002,0.0168804774342,-0.0134947726381,0.0120260062603,-0.0810010496813,0.0113453648674,1.97484302521,-0.598573923111,-0.215271249413,0.250199317932,0.848747372627,-0.0219711735845
2017/07/09/10:24:24.872081,544954,1499567067,679564919,,0.659347178191,0.0520796683382,-0.0793228365039,0.773386574186,0.62978080813,-0.0164840937343,-0.0705522163581,0.0303201380771,-0.0210898280894,-0.00145537055666,-0.0342344291598,-0.0890447913004,-0.0343553213641,1.69597947598,-0.616580605507,-0.315581828356,0.242776691914,0.710759878159,-0.0552118718624
