time,.header.seq,.header.stamp.secs,.header.stamp.nsecs,.header.frame_id,.pose.position.x,.pose.position.y,.pose.position.z,.pose.orientation.x,.pose.orientation.y,.pose.orientation.z,.pose.orientation.w,.twist.linear.x,.twist.linear.y,.twist.linear.z,.twist.angular.x,.twist.angular.y,.twist.angular.z,.wrench.force.x,.wrench.force.y,.wrench.force.z,.wrench.torque.x,.wrench.torque.y,.wrench.torque.z
2017/07/09/10:17:49.022439,505369,1499566671,828841531,,0.782314196853,0.390143540711,0.164630564168,0.627470866769,0.776230138607,0.0522976541236,0.0318125548843,0.0157041017525,-0.119587139906,-0.0166776711248,-0.0661050530335,0.0127940187687,-0.214458326208,2.73024892807,1.6540197134,1.1051671505,-0.738486111164,0.956462204456,-0.0396228283644
2017/07/09/10:17:49.032470,505370,1499566671,838845405,,0.782427093516,0.389059925845,0.164290595034,0.629619386867,0.774499534515,0.0521390127395,0.0318028625811,0.0185903060379,-0.118713661564,-0.00717499243275,-0.0375209769382,0.0155609543134,-0.373225594673,2.79390192032,1.76883518696,1.0576813221,-0.770520329475,0.931574881077,-0.0570383220911
2017/07/09/10:17:49.042702,505371,1499566671,848851767,,0.782634494256,0.387683222201,0.164443979584,0.632578720153,0.77209290792,0.0517969762344,0.0321524120711,0.00482586074059,-0.136777028543,-0.0294512431068,-0.0454805313311,0.0616109019684,-0.61241013367,2.93710780144,1.52494251728,1.13646435738,-0.608099997044,0.96992534399,0.100048363209
2017/07/09/10:17:49.052568,505372,1499566671,858859350,,0.783021242852,0.385925228727,0.164109575149,0.633224204637,0.771577562443,0.0513935704918,0.0324634056938,0.0179928172535,-0.156264700912,-0.0158624868831,-0.0779466456365,0.0226355234234,-0.550873151606,2.31373929977,1.32398796082,1.47223079205,-0.493219256401,0.803729534149,0.124582916498
2017/07/09/10:17:49.062589,505373,1499566671,868842619,,0.783471033459,0.384482427056,0.164092656249,0.63364082298,0.771223958443,0.0511415430952,0.0331278726453,0.0326690491311,-0.170445949853,-0.0164628685735,-0.100332300066,-0.00969689629125,-0.302402942577,1.50103092194,1.11273777485,1.55593860149,-0.420160025358,0.502139270306,0.110026896
2017/07/09/10:17:49.072428,505374,1499566671,878843677,,0.783837153762,0.382538430017,0.163986004229,0.633940009837,0.770992419496,0.0505749094604,0.0336590484171,0.0292505067967,-0.174973399703,-0.0199777747872,-0.106350693003,-0.00685464811012,-0.149983841661,1.26764786243,0.617500126362,1.5709758997,-0.219380527735,0.411925673485,0.144473493099
2017/07/09/10:17:49.082360,505375,1499566671,888847067,,0.783417070492,0.3806538386,0.16330854909,0.634667545517,0.770463104961,0.0496190256719,0.0334912354503,0.0346915018253,-0.184803224251,-0.0166250449429,-0.104918878919,-0.00955989647674,-0.148528042489,0.564892828465,0.40797457099,1.72372436523,-0.0948586910963,0.156251430511,0.152405202389
2017/07/09/10:17:49.092368,505376,1499566671,898874083,,0.78436385812,0.37863534636,0.163297653293,0.635708270181,0.769567655674,0.0496241734923,0.0343228782106,0.0444506192333,-0.188317985377,-0.0101800045167,-0.0946293633444,-0.0333968666167,-0.188029818141,0.729632794857,0.708652853966,1.68654501438,-0.287837445736,0.201671674848,0.0874905884266
2017/07/09/10:17:49.102523,505377,1499566671,908845552,,0.784286849394,0.377782271562,0.163088561921,0.636009565606,0.769327022522,0.0496362682633,0.0341175284727,0.0249296858656,-0.183398308351,-0.0188036919788,-0.100651759525,5.75595786769e-05,-0.191160107491,1.11517286301,0.948121547699,1.75981903076,-0.387577146292,0.345522910357,0.0654225796461
2017/07/09/10:17:49.112442,505378,1499566671,918838762,,0.784365736367,0.375331603679,0.162949521072,0.637345198302,0.768264517866,0.0490525383596,0.0339790710568,0.0126277295115,-0.16492057887,-0.0151965294518,-0.0393670888949,0.0303964229329,-0.193249000509,1.27458071709,0.96010863781,1.68711555004,-0.324125140905,0.402755588293,0.104048535228
2017/07/09/10:17:49.122489,505379,1499566671,928838695,,0.784998073852,0.373483596778,0.163296574305,0.638653005025,0.767140342453,0.0496382216351,0.0339717692504,0.0276925862401,-0.203391415155,-0.00841000709134,-0.0256244199261,0.0144981396581,-0.270188510644,1.99878096581,0.989382624626,1.50638079643,-0.221116274595,0.655023336411,0.179402709007
2017/07/09/10:17:49.132690,505380,1499566671,938846390,,0.784979732413,0.371617216967,0.163169542236,0.639650269506,0.766335248936,0.0492870406965,0.0338910987968,0.0163505439811,-0.205798632255,-0.0118174541911,0.010376412871,0.045446424747,-0.311031131233,2.00322246552,1.10409796238,1.33404052258,-0.320291489363,0.565029263496,0.14641353488
2017/07/09/10:17:49.143374,505381,1499566671,948845694,,0.785374500093,0.368973837848,0.163367428751,0.640801434401,0.765375649999,0.0488023421,0.0345248818099,0.00628247874046,-0.206365306245,-0.015563765823,-0.00793914896055,0.0651608280715,-0.287929289252,2.68914103508,1.0673006773,1.29959094524,-0.40431073308,0.790231227875,0.0985143706203
2017/07/09/10:17:49.152345,505382,1499566671,958845501,,0.7848730027,0.367738100393,0.162235858114,0.641419523986,0.764925512205,0.0483401089244,0.0336628711936,0.0150311548566,-0.228133469395,-0.0183666095355,-0.0352679327541,0.054118458326,-0.305715407366,2.30010461807,0.816799998283,1.38917398453,-0.306640446186,0.599265098572,0.0722301974893
2017/07/09/10:17:49.162599,505383,1499566671,968837438,,0.785631921697,0.36496211961,0.162835240329,0.643044587021,0.763537464013,0.0483448977003,0.0341609575133,0.0050573891803,-0.212154518431,-0.0248263367299,-0.010613620228,0.06724485579,-0.284265466065,2.70625686646,0.895633459091,1.63966059685,-0.322313576937,0.782532334328,0.107322432101
2017/07/09/10:17:49.172244,505384,1499566671,978838304,,0.785604762802,0.363195527668,0.162457961847,0.64406177833,0.762690536336,0.0483662532028,0.0338862365773,0.0224390522922,-0.227362131006,-0.000997462428014,0.00631285946223,0.0202846475261,-0.320943346916,3.16871190071,1.0043566227,1.62428128719,-0.40731215477,0.928573071957,0.0825154110789
2017/07/09/10:17:49.182620,505385,1499566671,988847090,,0.785736284031,0.359853771011,0.162262006755,0.645624729118,0.761399563612,0.0478922895145,0.0338488151452,0.0208045125621,-0.242162907952,-0.00844095717785,0.00511387210197,0.0210490210219,-0.34768852211,2.86429047585,0.874547421932,1.55326747894,-0.331425845623,0.815802335739,0.112643539906
2017/07/09/10:17:49.192392,505386,1499566671,998845306,,0.78554082276,0.357812804087,0.162119262966,0.646813212698,0.760430766879,0.0474813624657,0.0335147263364,0.015721481478,-0.247427321821,-0.00588112931046,-0.00967233560282,0.0240946172534,-0.325351189259,2.84872364998,0.800652861595,1.53734111786,-0.326249569654,0.797750711441,0.0839265137911
2017/07/09/10:17:49.202480,505387,1499566672,8838924,,0.786072813291,0.35593210713,0.162497632976,0.64748427588,0.75981648576,0.0478116097556,0.0340157379485,0.00387458728128,-0.26909504843,-0.016818681317,-0.0282262739937,0.0565805935462,-0.355300522399,3.20637273788,0.941506743431,1.35148060322,-0.340857923031,0.935798585415,0.10886708647
2017/07/09/10:17:49.212056,505388,1499566672,18841388,,0.786395529586,0.353882590169,0.162314558232,0.64887176008,0.758627927248,0.0480103554117,0.0338247356778,0.015219067703,-0.273086009588,-0.00539473214582,-0.0170511650359,0.0264671341943,-0.359061575002,3.44208693504,0.74826157093,1.24353337288,-0.262187749147,1.02051568031,0.123717784882
2017/07/09/10:17:49.222512,505389,1499566672,28844840,,0.786235102069,0.350468792909,0.162083958713,0.65035007103,0.757421646932,0.0470280829647,0.0338466140558,0.018015517253,-0.242435105489,0.00108187926773,0.00988702534203,0.0164459099463,-0.341305847298,3.87029600143,0.850122332573,1.07394134998,-0.292914271355,1.16382527351,0.0973442643881
2017/07/09/10:17:49.232518,505390,1499566672,38845332,,0.786508473275,0.348093120427,0.162576822836,0.651739073443,0.756196673481,0.047548350847,0.033792388136,0.0089514708967,-0.259867700966,-0.00417797810293,-0.00683032240851,0.0361797216035,-0.345650312032,3.90997099876,1.00230526924,0.793272197247,-0.358136028051,1.15784657001,0.113429307938
2017/07/09/10:17:49.242534,505391,1499566672,48844513,,0.786590546405,0.344937316769,0.162306203079,0.652950557101,0.755187388181,0.0466046162117,0.034286855509,0.00313238201351,-0.277491497338,0.00691943023259,-0.0149915597502,0.0387611212685,-0.37295569414,4.25796985626,0.862454473972,0.628523766994,-0.279464304447,1.24723088741,0.0997341573238
2017/07/09/10:17:49.252551,505392,1499566672,58841263,,0.787025306796,0.341518979027,0.162862488983,0.654730487768,0.753625556837,0.0467652422834,0.0344894271367,0.0185499178853,-0.295854307583,0.0142334469081,-0.0196883111285,0.00943049063225,-0.399189665644,4.71717691422,0.880104124546,0.362154871225,-0.304659962654,1.36794114113,0.104524306953
2017/07/09/10:17:49.262393,505393,1499566672,68838264,,0.787122835985,0.338864036452,0.162756603897,0.656225914026,0.752335204597,0.0467511888134,0.0342580797798,0.0237574580641,-0.312393115992,0.00783673875956,-0.0234566043471,0.00713146555142,-0.421263006673,4.71339607239,0.835574865341,0.138068571687,-0.22942507267,1.31306660175,0.145353317261
2017/07/09/10:17:49.272412,505394,1499566672,78837688,,0.787181447477,0.336186704361,0.162840495414,0.657453219848,0.751277517822,0.0463947214199,0.0344221549329,0.0160730541671,-0.299126419096,0.00243191493368,0.0112207266062,0.0192827479814,-0.416897021208,4.76232671738,0.87304276228,-0.0160237234086,-0.258423626423,1.33216428757,0.14601239562
2017/07/09/10:17:49.282392,505395,1499566672,88837445,,0.787113250265,0.333107537549,0.162209940063,0.659333214402,0.74966478705,0.0461221937312,0.0339876843681,0.0079118751725,-0.313185805187,-0.00348495045824,0.00350823650344,0.0446156890453,-0.444181320036,4.97212028503,0.558289766312,-0.0311905704439,-0.111165717244,1.41142582893,0.19463005662
2017/07/09/10:17:49.292535,505396,1499566672,98842692,,0.787306608392,0.33028396909,0.162385751442,0.660793802007,0.748372063179,0.0462002946137,0.034004985818,0.0152651776896,-0.301966014667,0.00488648709457,0.016802353191,0.0134521531314,-0.417930655339,5.53300285339,0.940750062466,-0.0156589131802,-0.271946042776,1.61795568466,0.148037582636
2017/07/09/10:17:49.302564,505397,1499566672,108853485,,0.787530178547,0.327969552018,0.162938579551,0.662360427593,0.746967028776,0.0465974363757,0.0338762572357,0.0178654361234,-0.324651665523,0.00846638445315,0.0100395292177,0.00902694680442,-0.465081397206,5.48745775223,0.819839119911,-0.168267711997,-0.26968690753,1.56909263134,0.125108197331
2017/07/09/10:17:49.312602,505398,1499566672,118851418,,0.787485083183,0.323976282789,0.162464597568,0.664115169238,0.745455307518,0.0458148494328,0.0338884353775,0.0120936536821,-0.327299981013,0.00934225779579,0.0175244052233,0.0137366986263,-0.467337679868,5.66358470917,0.696606397629,-0.330093324184,-0.217256844044,1.59669566154,0.12611746788
2017/07/09/10:17:49.322567,505399,1499566672,128838142,,0.787415516142,0.32024028341,0.162174618523,0.666115306756,0.743696714848,0.0455476363996,0.0336304512002,0.00255743735533,-0.322226337357,7.46528951943e-05,0.0337399253534,0.0507262658857,-0.476864596122,5.75745916367,0.784516990185,-0.522281050682,-0.227238312364,1.59465110302,0.115704104304
2017/07/09/10:17:49.332433,505400,1499566672,138840227,,0.787449540117,0.317696338876,0.162203705035,0.667806546926,0.742189775002,0.0456425741142,0.0332491983833,-0.00539525182943,-0.331795941762,0.00403123482667,0.0140516334608,0.0588824396833,-0.460582663077,5.58541345596,-0.139567345381,-0.714645028114,-0.0149454437196,1.57401001453,0.180943846703
2017/07/09/10:17:49.343165,505401,1499566672,148839924,,0.78737755533,0.31474973113,0.162290275864,0.669621376847,0.740567366199,0.0456982834023,0.0328459234201,0.003430511029,-0.339379310934,-0.000809516803437,0.0208449711095,0.0479309604889,-0.486850080997,5.73002099991,0.00601618736982,-0.647382259369,-0.131818681955,1.65798199177,0.144911259413
2017/07/09/10:17:49.352600,505402,1499566672,158837707,,0.787316764899,0.31164455426,0.162266719478,0.671195921759,0.739169172907,0.045324476544,0.0327209453441,-0.0142643738824,-0.355024409412,-0.011850661731,0.0328522861708,0.0930812741701,-0.513246718423,5.97224140167,0.186055257916,-0.629352450371,-0.125058084726,1.75668013096,0.206151396036
2017/07/09/10:17:49.362494,505403,1499566672,168845891,,0.786841285386,0.30833673895,0.162304074731,0.672794473529,0.737772112643,0.0446990745909,0.0322784591562,-0.0165658165955,-0.331241559112,-0.00461133709481,0.0431625912255,0.0892869297595,-0.493000810809,6.00874090195,0.6305077672,-0.790113151073,-0.366753757,1.73932397366,0.106501042843
2017/07/09/10:17:49.372220,505404,1499566672,178844022,,0.786910288254,0.304273751479,0.162489524153,0.674846238604,0.735913544837,0.0442201873035,0.0325328111693,-0.0366533717126,-0.328861923937,-0.00152662431961,0.0235438670052,0.123913815542,-0.480270787057,5.90877389908,0.161417946219,-0.809515833855,-0.246777772903,1.76209771633,0.126284271479
2017/07/09/10:17:49.382502,505405,1499566672,188845701,,0.78626173705,0.30097885723,0.162523173972,0.676546413631,0.734405155666,0.0436650641427,0.0320527644268,-0.0316414002742,-0.34524557606,-0.00838748816759,0.0106991385191,0.120306546342,-0.493692659911,6.15785455704,0.348163306713,-0.893315732479,-0.392646312714,1.85252583027,0.0842408686876
2017/07/09/10:17:49.392468,505406,1499566672,198837995,,0.786231815965,0.297086502808,0.162228676588,0.678543562137,0.732606438307,0.0430244083459,0.0318644177902,-0.033317152751,-0.378421668823,-0.00786545013938,-0.0450956919239,0.117101723723,-0.486561427987,5.89364767075,0.134935170412,-0.874069809914,-0.293369799852,1.77051782608,0.0840684771538
2017/07/09/10:17:49.402530,505407,1499566672,208844990,,0.785818105987,0.29395123451,0.162223234075,0.679962649217,0.731325454816,0.0426481516951,0.0315437785583,-0.0377112284081,-0.377320250153,-0.0151868778945,-0.0264432894451,0.137896430459,-0.514577754239,5.53869628906,0.0239078104496,-0.866507291794,-0.182357251644,1.66037118435,0.141273021698
2017/07/09/10:17:49.412547,505408,1499566672,218845795,,0.784706517754,0.290283348904,0.161373697846,0.681793491806,0.729739103711,0.0413251022331,0.0305075559604,-0.0593101545486,-0.361465899827,-0.0171880569158,-0.0230720544429,0.178249105665,-0.476670933468,5.28213691711,-0.368405163288,-0.994775474072,-0.112007051706,1.60226225853,0.118566438556
2017/07/09/10:17:49.422513,505409,1499566672,228839369,,0.784417998636,0.286705848238,0.161808203424,0.683661052618,0.728017889933,0.0409560116282,0.0303335158177,-0.0637721484472,-0.376303456389,-0.0199723935432,-0.0295545157554,0.188488534954,-0.497659544904,4.98363637924,-0.311323553324,-0.893634319305,-0.112236857414,1.50094902515,0.148324146867
2017/07/09/10:17:49.432465,505410,1499566672,238841809,,0.784044916093,0.283179938294,0.161568914281,0.685486034589,0.726349059445,0.0403204422585,0.0300033691922,-0.0585083966241,-0.380560472253,-0.0104352473871,-0.0274414719148,0.167350390338,-0.508814792144,4.94976615906,-0.387213528156,-0.642300009727,-0.188647732139,1.52474331856,0.0547853186727
2017/07/09/10:17:49.442486,505411,1499566672,248836468,,0.783217684953,0.279132395942,0.16118741665,0.687346967981,0.724668752442,0.0391531849932,0.029603596855,-0.0737549200046,-0.374007423841,-0.0198104672397,-0.0441133443024,0.201900390981,-0.488592220967,4.66239786148,-0.834030687809,-0.689047515392,0.107795357704,1.46048498154,0.170141637325
2017/07/09/10:17:49.452520,505412,1499566672,258845099,,0.782567321719,0.275678732108,0.160729247956,0.689035048804,0.723129083023,0.0384035882694,0.0289861210715,-0.0651907522002,-0.38102744863,-0.0184636792691,-0.0396917389822,0.182221932753,-0.508844911009,3.92675161362,-0.783705413342,-0.500014722347,0.0301701240242,1.20920526981,0.125237077475
2017/07/09/10:17:49.462429,505413,1499566672,268841239,,0.781648363405,0.272341991719,0.160821412418,0.690799025938,0.721514572315,0.037687621729,0.0281615139509,-0.067559200439,-0.37680097771,-0.0131787445177,-0.0317163831619,0.182578131732,-0.505948182353,3.86381411552,-1.16048932076,-0.0925859585404,0.111510753632,1.25207269192,0.127666175365
2017/07/09/10:17:49.472628,505414,1499566672,278842486,,0.780805237529,0.26853861355,0.160615737862,0.692699747738,0.719763556857,0.0366202048495,0.0276846943487,-0.0791408504713,-0.397620476267,-0.0174392945865,-0.0547937800251,0.208878277185,-0.516040352198,3.7028529644,-1.08888602257,-0.0807263851166,0.180255234241,1.24267661572,0.16900421679
2017/07/09/10:17:49.482642,505415,1499566672,288848454,,0.780496548741,0.264745278998,0.160682886976,0.693971727274,0.718576297821,0.0356574472728,0.0279265537989,-0.0813773335199,-0.382427412966,-0.0146351586651,-0.0761390724341,0.206515178521,-0.473959845007,3.6661772728,-0.521298766136,0.119206435978,-0.201456606388,1.21730804443,0.0337787568569
2017/07/09/10:17:49.492474,505416,1499566672,298865668,,0.779351482062,0.260870074687,0.160057152128,0.695919944998,0.71678537445,0.0341557131493,0.0273412579743,-0.0766251843299,-0.374543135557,-0.0267719824476,-0.080537512904,0.202981346189,-0.473864898404,4.09428405762,0.79369699955,0.0438229553401,-0.921133756638,1.40802073479,-0.127505421638
2017/07/09/10:17:49.502573,505417,1499566672,308839454,,0.778699091468,0.256899853311,0.160040571323,0.697455323545,0.715346045429,0.0329853600395,0.0273509226703,-0.0906449239822,-0.382092297795,-0.0246080345095,-0.124854985582,0.227079988397,-0.437363823669,4.06440210342,1.56819152832,0.266478866339,-1.36454343796,1.37289571762,-0.223168626428
2017/07/09/10:17:49.512568,505418,1499566672,318845915,,0.777798865104,0.25310092684,0.159409889964,0.698944813166,0.713960847755,0.0316794670473,0.0270641347458,-0.0966693929102,-0.398836435924,-0.0370974632947,-0.119629115161,0.241773534607,-0.46751131099,3.62088298798,1.26129615307,0.372185230255,-1.15643119812,1.25991022587,-0.180535882711
2017/07/09/10:17:49.523030,505419,1499566672,328845833,,0.777170236657,0.249558153031,0.159599086385,0.700208734177,0.712764472464,0.0306272753911,0.0271386325771,-0.0844010037413,-0.409204475875,-0.0218662221759,-0.154342018364,0.198233306573,-0.457579147536,2.52139520645,0.364677667618,0.710639774799,-0.444622248411,0.896929860115,-0.0447298549116
2017/07/09/10:17:49.532539,505420,1499566672,338845539,,0.776644543235,0.244966848723,0.159769462606,0.702393615627,0.71064423566,0.0296277862031,0.0273892923146,-0.0816297264105,-0.423884336482,-0.00844473952547,-0.163313342911,0.173236661651,-0.476601540296,1.63032996655,-0.447011262178,1.01908993721,0.105826795101,0.545182526112,0.0211979970336
2017/07/09/10:17:49.542653,505421,1499566672,348843765,,0.775664494024,0.242179213399,0.159475639487,0.703404063237,0.709704423083,0.0285689606737,0.0269475446854,-0.0927069616511,-0.429937334122,-0.0216727424641,-0.154994289369,0.205034717352,-0.483129445763,1.04827690125,-0.261637836695,0.91871201992,0.260833770037,0.334951460361,0.0550504401326
2017/07/09/10:17:49.552662,505422,1499566672,358838320,,0.775229400544,0.23797622089,0.15929674533,0.705222636673,0.70791862282,0.0279974003767,0.0269889192371,-0.0840943629639,-0.391582246195,-0.0194541872622,-0.0971948798148,0.181506014319,-0.46541948199,0.772381067276,-0.77193403244,1.03116369247,0.36207729578,0.247007206082,0.0549238137901
2017/07/09/10:17:49.562517,505423,1499566672,368858632,,0.773969897135,0.234639710423,0.158988930772,0.707383802179,0.705842392781,0.0270404637772,0.0257582275526,-0.08394858068,-0.368707963091,-0.0194585360836,-0.022630323806,0.176706656587,-0.520271308065,0.494147866964,0.00476150214672,1.36207830906,0.0302544087172,0.181314319372,0.0159735828638
2017/07/09/10:17:49.573803,505424,1499566672,378843288,,0.773403841874,0.23221592713,0.15893282806,0.708501191709,0.704742075428,0.0268886814979,0.0253311522766,-0.089167339248,-0.326924624084,-0.0300270591911,0.0367596217554,0.186925548411,-0.49704248219,-0.512714624405,0.273285627365,1.54648983479,-0.106798753142,-0.214028269053,0.00507689081132
2017/07/09/10:17:49.582386,505425,1499566672,388838236,,0.772463175223,0.227935363583,0.158361923251,0.710876093059,0.702396411808,0.0260692917497,0.0247962300353,-0.0717363490485,-0.342214674852,-0.0177888730538,0.0348361694574,0.130502211845,-0.508019506211,-1.7077614069,-0.403038412333,1.6624134779,0.035423591733,-0.647945582867,0.0516341403127
2017/07/09/10:17:49.592654,505426,1499566672,398845027,,0.771742934246,0.22428961764,0.157970644617,0.712443872591,0.700843333588,0.0253654654258,0.024473318857,-0.0947389696832,-0.361077614618,-0.0346289392675,0.0258543473026,0.189733878517,-0.535698650058,-2.21846294403,-0.647324204445,1.70395803452,0.161295175552,-0.837042033672,0.0715984106064
2017/07/09/10:17:49.602498,505427,1499566672,408844281,,0.770766292433,0.220837368282,0.157826556685,0.714556386695,0.698746325868,0.024593414626,0.0236200397106,-0.0990444882256,-0.362706995834,-0.0338860407362,-0.00888963423808,0.19009975361,-0.490170646476,-2.65198779106,-0.588284730911,1.90290141106,0.110470667481,-1.05743920803,0.0564418397844
2017/07/09/10:17:49.612460,505428,1499566672,418845950,,0.769553051216,0.21816964659,0.157604679941,0.715403080675,0.697923578121,0.0238442962509,0.0230772788499,-0.0996290044886,-0.360499740323,-0.0346974412405,-0.0250665123817,0.184814969805,-0.480617129321,-2.48794770241,-0.395366042852,1.67408442497,0.145369917154,-0.981429338455,0.0736221894622
2017/07/09/10:17:49.622663,505429,1499566672,428838236,,0.769380716879,0.214829186347,0.15725057027,0.71710975531,0.696178871464,0.0235392418388,0.0231188637441,-0.0951452182896,-0.340660577629,-0.0427357905324,-0.00600224169236,0.17616643498,-0.477315131161,-2.2566587925,-0.33191922307,1.77121770382,0.0607658587396,-0.937333762646,0.0378177464008
2017/07/09/10:17:49.632547,505430,1499566672,438845291,,0.768671074362,0.211864090567,0.157131909994,0.718801971289,0.694457782777,0.023392095857,0.022470510953,-0.0801660151443,-0.312821694781,-0.0319138145533,0.00744251077254,0.137276486332,-0.445733224595,-2.50651812553,-0.160290583968,1.98725318909,-0.0521924979985,-1.04419457912,0.0269671529531
2017/07/09/10:17:49.642644,505431,1499566672,448844138,,0.767410957441,0.20845504892,0.15651574945,0.720211527779,0.69304782351,0.0221810373828,0.0220923326751,-0.0804490850661,-0.31691455444,-0.028607946957,-0.0114159228245,0.126846703184,-0.42954055046,-3.79411911964,-0.827946782112,2.14117455482,0.16376902163,-1.46483814716,0.0234846565872
2017/07/09/10:17:49.652637,505432,1499566672,458845134,,0.766643829987,0.205605233704,0.155766717737,0.721902622157,0.6913190821,0.0216944142912,0.0215379487549,-0.0771690255525,-0.323377823606,-0.022881549459,-0.0205700612741,0.109317161318,-0.44046216105,-5.31517601013,-0.475493371487,2.13012719154,0.0933500006795,-2.03808236122,0.0346039049327
2017/07/09/10:17:49.662202,505433,1499566672,468841724,,0.76653718149,0.202651867628,0.156079263207,0.723163393674,0.689984673327,0.0217485232389,0.0219740383191,-0.0832824573235,-0.337591794206,-0.0472145322024,-0.0240807466311,0.126806457809,-0.477080033162,-5.3190779686,-0.523112177849,2.43541479111,0.145416840911,-2.06844592094,0.0539237856865
2017/07/09/10:17:49.672596,505434,1499566672,478844030,,0.765240531223,0.199606977486,0.155237499868,0.724855948371,0.68825826555,0.0210681287663,0.0209892344698,-0.0787131842739,-0.330532677159,-0.0425644787225,-0.0203771549733,0.10707855011,-0.458289191759,-6.23987865448,-0.462550371885,2.39516949654,0.167546078563,-2.44061398506,0.0533946529031
2017/07/09/10:17:49.682611,505435,1499566672,488846685,,0.764687682027,0.196321609223,0.154835049483,0.726092365278,0.686970124508,0.0205779592007,0.0209397400592,-0.074508800919,-0.31462391887,-0.0390696748574,-0.00868875038005,0.0957226879628,-0.423078502413,-5.42918491364,-0.457776844501,2.51241874695,0.219401717186,-2.14445829391,0.103274233639
2017/07/09/10:17:49.692458,505436,1499566672,498845839,,0.763898304196,0.193286372879,0.154551848388,0.72759004449,0.685406755667,0.0200103459934,0.0207338490922,-0.078979568682,-0.324038850994,-0.0356631307013,-0.0217302881126,0.111654063408,-0.440938384681,-5.09799814224,-0.461234092712,2.21589565277,0.238236173987,-2.06919527054,0.0885607302189
2017/07/09/10:17:49.702756,505437,1499566672,508838598,,0.762610767575,0.18974678484,0.153882687568,0.729236480995,0.683709288114,0.0188563960236,0.020005010934,-0.0840095203225,-0.348732611593,-0.0421619346084,-0.0303621061187,0.121748878441,-0.480516971618,-5.02234888077,-0.844255268574,1.90622460842,0.419076293707,-2.11427426338,0.144473850727
2017/07/09/10:17:49.712826,505438,1499566672,518842464,,0.762058479617,0.18729868048,0.153380568867,0.730461320703,0.682414355035,0.0184983612845,0.0198675018536,-0.0859462597336,-0.302736827261,-0.0526661831662,-0.0257406800266,0.144001893285,-0.398709052366,-5.60158205032,-0.449006378651,1.74377787113,0.473356485367,-2.3819963932,0.155206769705
2017/07/09/10:17:49.722585,505439,1499566672,528843589,,0.761642278342,0.18377895024,0.153154246632,0.731889251194,0.680884701613,0.0180544538643,0.020203558867,-0.0786494220743,-0.303634861205,-0.0540793548244,-0.0132778727123,0.122614161139,-0.441476344126,-6.25933408737,-0.867281138897,1.61990320683,0.549215316772,-2.66353011131,0.152830094099
2017/07/09/10:17:49.732486,505440,1499566672,538845537,,0.76112822809,0.180896251472,0.152889516631,0.733193969016,0.679484768787,0.0176618175703,0.0203743217098,-0.0772612933762,-0.346898978494,-0.0541871009541,-0.0498269057587,0.11356483857,-0.459025845529,-6.14819002151,-0.625615239143,2.20183587074,0.576273679733,-2.62496376038,0.186847344041
2017/07/09/10:17:49.742537,505441,1499566672,548848041,,0.760281163798,0.177430687952,0.152118123349,0.734895138513,0.677676485121,0.0171287334031,0.0197566038525,-0.0668370656071,-0.332291361852,-0.0524765099122,-0.0301208433353,0.087666489906,-0.468771708701,-6.80514144897,-0.699451625347,2.07117819786,0.558189570904,-2.82763290405,0.14478315413
2017/07/09/10:17:49.752370,505442,1499566672,558844427,,0.75912121825,0.174751651512,0.151360765775,0.736254629562,0.676240737152,0.0162501417349,0.0190661678811,-0.0777488483972,-0.301120027038,-0.0645537151544,0.000620121717743,0.122646566493,-0.418746000901,-7.36856460571,-0.481551855803,2.00788974762,0.448741078377,-3.10407686234,0.173932045698
2017/07/09/10:17:49.762620,505443,1499566672,568850974,,0.758450220115,0.171480051183,0.150370226847,0.737983143422,0.674377697467,0.0160431687084,0.0183907020684,-0.0911304145327,-0.305338022015,-0.0691405784822,0.00746052779166,0.150693372217,-0.445003496728,-7.53784036636,-0.429872572422,2.26904630661,0.409950792789,-3.20615053177,0.17671006918
2017/07/09/10:17:49.772444,505444,1499566672,578843352,,0.757655863568,0.168998435391,0.15018940306,0.738937274788,0.673352257035,0.0153758495838,0.0182215565784,-0.0793618240944,-0.281222853451,-0.0628546797917,0.00671436761558,0.137004569203,-0.414898662988,-7.56514978409,-0.618569791317,2.20014619827,0.50462949276,-3.2410595417,0.189599096775
2017/07/09/10:17:49.782640,505445,1499566672,588845709,,0.756799891275,0.166668664438,0.149051180937,0.740132756077,0.672071072775,0.0145553778083,0.0176668474123,-0.0761438347445,-0.291229915892,-0.0637920534355,-0.00142307805843,0.133156916047,-0.409083945432,-6.24261045456,0.00889684259892,1.28244781494,0.287787795067,-2.81985831261,0.129756718874
2017/07/09/10:17:49.792411,505446,1499566672,598844896,,0.756402163175,0.163753757733,0.149158359258,0.741758876123,0.67027837223,0.0146553309055,0.0174898453194,-0.0788756724495,-0.293268928968,-0.0764932586189,-0.0167606372237,0.149087209808,-0.418936380682,-6.26607465744,-0.428411632776,1.53344738483,0.354029536247,-2.86640262604,0.142842620611
2017/07/09/10:17:49.802521,505447,1499566672,608845135,,0.755628344218,0.161279982471,0.147927780442,0.742807078909,0.669147432858,0.013755137878,0.0170338722975,-0.0865646599426,-0.292636501858,-0.0628843362845,-0.0082739064983,0.156027114543,-0.416316056827,-6.79050064087,-0.596794784069,1.01274180412,0.482270568609,-3.19061112404,0.177907347679
2017/07/09/10:17:49.812452,505448,1499566672,618846019,,0.754562600833,0.157995092802,0.147120790521,0.744674347806,0.667100862973,0.0128876379275,0.0164457632479,-0.0787521852629,-0.29212291501,-0.073173770005,-0.0103878544323,0.143188269117,-0.429357401877,-6.94726514816,-0.661188960075,0.959291100502,0.522977411747,-3.24796390533,0.177197098732
2017/07/09/10:17:49.823020,505449,1499566672,628855387,,0.753814240563,0.155217222128,0.146258835454,0.745817268709,0.665847174236,0.012298104793,0.0159027946157,-0.082059169027,-0.280455675382,-0.0889563735249,0.00992042788659,0.160119532933,-0.438804502728,-7.37180519104,-0.87826025486,1.13200998306,0.643635094166,-3.37484002113,0.237000077963
2017/07/09/10:17:49.832536,505450,1499566672,638845509,,0.753091882835,0.153029291201,0.145130413073,0.74695255832,0.664594753495,0.0115074896396,0.0155970166349,-0.0668970476678,-0.265169386365,-0.082930477506,-0.0180838260354,0.127604593915,-0.366175045362,-7.91751003265,-0.70183891058,1.15052998066,0.710603296757,-3.52166366577,0.259251743555
2017/07/09/10:17:49.842816,505451,1499566672,648839625,,0.752724216994,0.150029064214,0.144943415094,0.748139237318,0.663258952972,0.0111011846443,0.0158747153668,-0.0664126741234,-0.293995749128,-0.0836674557003,-0.0574682607001,0.125118581748,-0.39553385401,-8.10476779938,-0.571237564087,1.407533288,0.591225206852,-3.55310082436,0.233142733574
2017/07/09/10:17:49.852635,505452,1499566672,658838941,,0.752081701274,0.146582020605,0.143828093194,0.749666330305,0.661552316993,0.0100384083435,0.0157529503651,-0.0843834910374,-0.312026327924,-0.0930013744913,-0.0866322482793,0.174321828661,-0.405834278938,-8.68829250336,-0.817526459694,1.07838606834,0.612105250359,-3.77945375443,0.207407131791
2017/07/09/10:17:49.862647,505453,1499566672,668842753,,0.751699391136,0.144092531593,0.143507456144,0.750543651952,0.660560892227,0.00984277544492,0.0157052203422,-0.0971327016756,-0.282401343323,-0.103878477994,-0.0612005031985,0.212279716641,-0.369218621729,-9.65622806549,-0.642265200615,1.14631938934,0.580286383629,-4.21623277664,0.273011147976
2017/07/09/10:17:49.872516,505454,1499566672,678843185,,0.749937749445,0.141846172544,0.141358979052,0.751767204896,0.659225928305,0.00794565545755,0.0142867649333,-0.0974754261869,-0.279806145371,-0.106235310617,-0.0791185878742,0.223358825096,-0.353223106957,-9.15024375916,0.0143866539001,0.439040094614,0.323135674,-4.02218103409,0.236623704433
2017/07/09/10:17:49.882440,505455,1499566672,688844540,,0.748646200691,0.138564380994,0.140329039224,0.752735480051,0.658142015539,0.00611521499827,0.0141770448174,-0.117136152263,-0.276535749601,-0.118427517056,-0.0909475359816,0.276256811585,-0.334499940806,-9.56808757782,-0.733156859875,0.407681494951,0.424049377441,-4.11956071854,0.212897092104
2017/07/09/10:17:49.893292,505456,1499566672,698845318,,0.747501222501,0.135039150393,0.139208421402,0.754054693641,0.656647759456,0.00471173500412,0.013893831453,-0.126177659506,-0.294953421474,-0.119475140462,-0.128417170308,0.291393995154,-0.318350874965,-9.45858192444,-0.43967550993,0.380786806345,0.323278576136,-4.08196926117,0.235056191683
2017/07/09/10:17:49.902507,505457,1499566672,708845701,,0.746744259514,0.13204272405,0.138362763689,0.754671013989,0.655943789882,0.00305497490418,0.014144691188,-0.11620161053,-0.320166502386,-0.122976670334,-0.174637387042,0.268681025398,-0.328616024296,-9.69808101654,-0.204894810915,0.663625240326,0.227247774601,-4.18459415436,0.187099605799
2017/07/09/10:17:49.912540,505458,1499566672,718845528,,0.745390725602,0.129457671766,0.136709496242,0.75578012835,0.654683186552,0.00136156747968,0.0135819354757,-0.128247941394,-0.330965077795,-0.129972718456,-0.213427312818,0.299001031516,-0.303046601986,-10.6477966309,0.00522315502167,0.714743077755,0.279836624861,-4.51965093613,0.244313538074
2017/07/09/10:17:49.922495,505459,1499566672,728839377,,0.743916937487,0.126679616895,0.13513024336,0.756187885376,0.654221437918,-0.000652840951184,0.0131820323716,-0.137433625806,-0.316012433551,-0.13782490645,-0.222741419558,0.319812293844,-0.269466301963,-9.9474105835,0.198740422726,0.436001896858,0.126356616616,-4.29258155823,0.213062494993
2017/07/09/10:17:49.932512,505460,1499566672,738842723,,0.74259019113,0.123563708973,0.13409196155,0.757065955372,0.653198924167,-0.00270793711526,0.0132276891511,-0.136348589736,-0.317523296497,-0.144561207374,-0.225644924976,0.319605751332,-0.260797792273,-9.8952293396,-0.00543266534805,0.588971614838,0.231720551848,-4.256108284,0.247848153114
2017/07/09/10:17:49.942617,505461,1499566672,748845516,,0.741533840694,0.121006211344,0.132665058085,0.757498564993,0.652682658331,-0.00448217396116,0.0134603738257,-0.157213348162,-0.336272744212,-0.147350305164,-0.273970994065,0.367141395124,-0.255802578463,-9.52895545959,0.47273015976,0.61958616972,0.227309405804,-4.16698884964,0.274050086737
2017/07/09/10:17:49.952518,505462,1499566672,758845138,,0.739876012336,0.117958189064,0.131602520325,0.758191027601,0.651864893049,-0.00705157815864,0.0129923870308,-0.150777930792,-0.321356462514,-0.152195131103,-0.286076134758,0.361329813778,-0.222590182883,-9.62225723267,0.409687578678,0.74807715416,0.167486995459,-4.21089410782,0.242573484778
2017/07/09/10:17:49.962543,505463,1499566672,768842344,,0.737791199727,0.114318683601,0.129274425053,0.75867730339,0.651265146843,-0.01005412181,0.0127032461911,-0.144065443723,-0.320931420352,-0.144713254227,-0.318768470915,0.361887638954,-0.170500150551,-9.84587287903,-0.321425914764,-0.0879355370998,0.325328290462,-4.23626184464,0.274357140064
2017/07/09/10:17:49.972425,505464,1499566672,778843064,,0.737173715417,0.111003787587,0.128731736532,0.759205314113,0.650608244423,-0.0116479412159,0.0134360997524,-0.168042900059,-0.310022272931,-0.170520005135,-0.326463443197,0.430972225887,-0.121132624399,-8.83043003082,-0.466825217009,0.127504587173,0.260511040688,-3.85057258606,0.255564570427
2017/07/09/10:17:49.982543,505465,1499566672,788850053,,0.735578479468,0.108476156547,0.126475453706,0.759545297981,0.650167150632,-0.0142428664354,0.0130674140695,-0.145554626437,-0.323498353264,-0.164634112106,-0.343399788153,0.373449269543,-0.148418660446,-9.16699790955,0.00164821743965,-0.247118636966,0.180526018143,-3.93959593773,0.287551432848
2017/07/09/10:17:49.992394,505466,1499566672,798846001,,0.734390316396,0.105050112491,0.125298562039,0.759897376208,0.649686688426,-0.0167310501205,0.0135372255569,-0.143665527766,-0.348250396218,-0.15859951595,-0.376979031376,0.358327980229,-0.17760955788,-9.52515125275,0.29707545042,0.201759397984,0.00299617648125,-4.08708381653,0.262500852346
2017/07/09/10:17:50.002393,505467,1499566672,808839094,,0.732718698627,0.102341308399,0.123238402073,0.759869865891,0.649641637309,-0.0195385634264,0.0134823782665,-0.130331557802,-0.312713969064,-0.160696759965,-0.351737120201,0.346509652042,-0.123935411728,-9.71547985077,0.49853438139,-0.0677267313004,-0.0295448675752,-4.02622318268,0.29816582799
2017/07/09/10:17:50.013228,505468,1499566672,818845849,,0.730898684559,0.0984102533067,0.120846219525,0.760489818092,0.648807210543,-0.0227938864859,0.0135970167601,-0.15800238109,-0.327100914105,-0.182167015915,-0.405092284766,0.408467181509,-0.0802156631679,-9.53867912292,0.0883260518312,0.0489137656987,0.0957356318831,-4.00862693787,0.350464940071
2017/07/09/10:17:50.022449,505469,1499566672,828841827,,0.730442582514,0.0954525417175,0.120173729182,0.760665113522,0.648518321688,-0.0245028433596,0.0145664742775,-0.158774183217,-0.330609498532,-0.175076560105,-0.430987758363,0.418238884826,-0.0640362974539,-9.33735847473,0.488660752773,0.556641101837,-0.0829158425331,-3.97291779518,0.302082538605
2017/07/09/10:17:50.032456,505470,1499566672,838847145,,0.727977859603,0.0918751098905,0.117912872178,0.760962935285,0.648027583918,-0.0281398343013,0.0142762505591,-0.1523806422,-0.348797401684,-0.165853843523,-0.432669517356,0.386603590638,-0.085572604612,-9.17691707611,0.385018289089,0.329398393631,-0.0786404907703,-3.88321948051,0.319372683764
2017/07/09/10:17:50.042597,505471,1499566672,848843930,,0.727035139707,0.0892073756336,0.116531208338,0.760523335158,0.648407539336,-0.0307447138106,0.015055968425,-0.145847659148,-0.325334972205,-0.171639306963,-0.428729911132,0.383299782081,-0.0637253291496,-8.56949615479,0.483127295971,0.540812432766,0.086917437613,-3.69223451614,0.365430951118
2017/07/09/10:17:50.052454,505472,1499566672,858843166,,0.725637483194,0.0865463339214,0.114981038463,0.760648673027,0.648128500226,-0.0333368133629,0.0152217046266,-0.140836066092,-0.303096481097,-0.166806464145,-0.429051964608,0.384806729171,-0.0303886883767,-8.46668148041,1.00743663311,0.0213982909918,-0.0994025245309,-3.6187620163,0.371122539043
2017/07/09/10:17:50.062397,505473,1499566672,868846577,,0.724776026247,0.0833431977795,0.113907268961,0.760630739607,0.648001305262,-0.0357060628405,0.0161326817621,-0.143319576575,-0.284102076191,-0.168050972922,-0.392108740159,0.384344952823,-0.0182864734898,-7.6505112648,0.575556516647,0.387308984995,0.0325635001063,-3.33180522919,0.374562114477
2017/07/09/10:17:50.072429,505474,1499566672,878847531,,0.723490018193,0.0810607482467,0.111769126992,0.760442533182,0.64808016019,-0.0381687433911,0.0161989729284,-0.126978791241,-0.307046514627,-0.163967901897,-0.422708664358,0.340718880149,-0.0231629166422,-7.62931489944,0.441805273294,0.0346402600408,0.000636994838715,-3.25519108772,0.361440211535
2017/07/09/10:17:50.082613,505475,1499566672,888849809,,0.722003626863,0.0782037680419,0.10980007114,0.760435986023,0.647907430525,-0.0410388948184,0.0163976140033,-0.120495890785,-0.301819637113,-0.158332824974,-0.427231775571,0.328439793138,-0.00449730711021,-8.46692562103,0.427364766598,-0.498446017504,-0.14955124259,-3.53307390213,0.375108480453
2017/07/09/10:17:50.092438,505476,1499566672,898847509,,0.721457412884,0.0755301190551,0.108532249586,0.760288317436,0.647921939187,-0.0431000922355,0.0173556083254,-0.115838556492,-0.290186292178,-0.155123580583,-0.428079315624,0.322383583232,-0.00317449550754,-7.90197515488,0.783849060535,-0.0667784512043,-0.237974286079,-3.41741967201,0.378263950348
2017/07/09/10:17:50.102685,505477,1499566672,908841569,,0.720390414001,0.072675131193,0.107365444145,0.760453732337,0.64757023759,-0.0452320948269,0.0178035378206,-0.0982115906856,-0.27004795043,-0.152425978344,-0.384174167082,0.275376024433,-0.0113912741103,-7.41380882263,0.483656734228,0.177454829216,-0.129968881607,-3.19371604919,0.418815016747
2017/07/09/10:17:50.112477,505478,1499566672,918845798,,0.719621085983,0.0700066439484,0.105710217709,0.760264466712,0.647622396466,-0.0473470404659,0.0184778248246,-0.10588634003,-0.274507245659,-0.156064874118,-0.3859432454,0.293715269519,0.000701530567191,-7.43584442139,0.653180480003,0.372325867414,-0.156204938889,-3.23154807091,0.431351184845
2017/07/09/10:17:50.122343,505479,1499566672,928844165,,0.717994793005,0.0672857578355,0.1038773284,0.760272174348,0.647386706195,-0.050357110959,0.0184617152293,-0.101083361984,-0.277603297618,-0.157960246651,-0.389433809071,0.297684665803,-0.0229248893149,-6.62765884399,0.53436756134,-0.0434686280787,-0.12090010941,-2.8916208744,0.41977417469
2017/07/09/10:17:50.132793,505480,1499566672,938839978,,0.71768345723,0.0646185695173,0.103195152057,0.760707933326,0.646757391829,-0.0515104150177,0.0193647471799,-0.0968384458689,-0.274427980845,-0.161032186993,-0.369751521983,0.286591270965,-0.0360071805533,-6.62010908127,0.588094115257,0.268113791943,-0.130533859134,-2.94634914398,0.427388399839
2017/07/09/10:17:50.142563,505481,1499566672,948838282,,0.716808533045,0.0625811749679,0.101313491081,0.760073519669,0.647316126306,-0.0537409576977,0.0195444822932,-0.0959186588704,-0.268374699665,-0.143179607006,-0.370414586714,0.270515821267,-0.0309142104136,-6.28334951401,0.892566204071,-0.138985782862,-0.210343122482,-2.84186029434,0.450626820326
2017/07/09/10:17:50.152586,505482,1499566672,958845501,,0.715580737987,0.0597142533023,0.0999866975033,0.760397626825,0.646735832516,-0.0559513991752,0.0199412383849,-0.077854254114,-0.241915137692,-0.139529966014,-0.32274613252,0.234670301033,-0.00985919093062,-6.0690612793,0.591775417328,-0.284661501646,-0.265424460173,-2.65193319321,0.401734173298
2017/07/09/10:17:50.162380,505483,1499566672,968846649,,0.715120420848,0.0582639495638,0.0986029374682,0.760260032838,0.646770258064,-0.0573707423465,0.0200378061528,-0.0931589919764,-0.217984360478,-0.150595231653,-0.278373972472,0.26860191339,-0.0225684624937,-5.26487445831,0.532104551792,-0.298442363739,-0.238873928785,-2.39056873322,0.396297544241
2017/07/09/10:17:50.172236,505484,1499566672,978838836,,0.714260821855,0.055834464806,0.0976090192025,0.760589979367,0.646209318864,-0.059128189771,0.0205001627891,-0.0820016950791,-0.222722681538,-0.138255383808,-0.269520521356,0.235531138022,-0.049414513936,-4.86659383774,0.0720787793398,-0.201832801104,-0.0721727609634,-2.18446421623,0.36785903573
2017/07/09/10:17:50.182486,505485,1499566672,988852826,,0.713588329042,0.0547761803444,0.0962727020967,0.76032121347,0.646413511194,-0.0604771866824,0.0200931526685,-0.0784432559469,-0.206697021988,-0.12778274828,-0.268917420743,0.231870771783,-0.0338213766251,-4.68406486511,0.596601963043,-0.151836544275,-0.259019345045,-2.19050526619,0.352101504803
2017/07/09/10:17:50.192611,505486,1499566672,998844845,,0.713474511755,0.0524490084219,0.0955325377969,0.760620160873,0.645923921181,-0.0616100297676,0.021058564835,-0.069052317171,-0.204802304049,-0.126456087293,-0.246895835359,0.213134665344,-0.0394787170788,-3.9892013073,0.340998202562,-0.412532329559,-0.192472651601,-1.94165468216,0.33084577322
2017/07/09/10:17:50.202556,505487,1499566673,8846031,,0.712242632213,0.050470469797,0.0938503718829,0.760631510244,0.645728999387,-0.0635173568378,0.0209597317516,-0.0767651868953,-0.21465231557,-0.11534951337,-0.249031739667,0.221126014276,-0.0621803355889,-4.48727798462,-0.167566299438,-0.401949942112,-0.114413112402,-2.07645368576,0.326843589544
2017/07/09/10:17:50.212541,505488,1499566673,18845333,,0.711916407427,0.0492280420763,0.0927838091847,0.760589703357,0.645654461427,-0.0647392293019,0.0210345377107,-0.066309418899,-0.179053026882,-0.109844842621,-0.213593435589,0.192774609555,-0.0625043563252,-4.42121505737,0.724851489067,-0.571270942688,-0.251933783293,-2.13183236122,0.380259305239
2017/07/09/10:17:50.223243,505489,1499566673,28845531,,0.710982382891,0.0473329603103,0.0918209801075,0.760949445085,0.645087294714,-0.0661601269398,0.0210038526464,-0.0644435910293,-0.175597932441,-0.114219917763,-0.179699880843,0.188624480801,-0.0881812994411,-3.8619799614,0.323295176029,-0.465394943953,-0.164231017232,-1.92979598045,0.394333302975
2017/07/09/10:17:50.232605,505490,1499566673,38846453,,0.710460344606,0.0457202254846,0.0905475707654,0.76143566968,0.644466176294,-0.0667352511644,0.0206270406054,-0.0526268991122,-0.170348837702,-0.116333338398,-0.146190637899,0.159627108982,-0.106417617028,-3.38201498985,0.238355010748,-0.786512374878,-0.216253682971,-1.7025551796,0.348576337099
2017/07/09/10:17:50.242542,505491,1499566673,48848229,,0.710004099902,0.0443732061771,0.0897948746622,0.761806202639,0.643961595949,-0.0674305752824,0.0204423599693,-0.0602130190376,-0.169874971293,-0.108764478358,-0.116008655429,0.160988540426,-0.129628320517,-2.61040997505,0.610661566257,-0.886704325676,-0.233904823661,-1.48256158829,0.336777508259
2017/07/09/10:17:50.252542,505492,1499566673,58845408,,0.708932677037,0.0430902079553,0.0887344962706,0.762046338141,0.643559825694,-0.068717228768,0.0198512404642,-0.0607801356504,-0.145783239009,-0.104780817809,-0.100930885009,0.165950605418,-0.106179085709,-3.49356532097,0.350529849529,-0.681077361107,-0.228764802217,-1.75158286095,0.357828199863
2017/07/09/10:17:50.262262,505493,1499566673,68845591,,0.709338785709,0.0418340220023,0.0880130898747,0.762281950638,0.6432353186,-0.0689772645938,0.0204129764173,-0.0629615477566,-0.146215113108,-0.10538919562,-0.0903744889932,0.170468725284,-0.123744321377,-2.73326611519,0.274533331394,-0.770208895206,-0.191757291555,-1.58346927166,0.333562552929
2017/07/09/10:17:50.272583,505494,1499566673,78843540,,0.708144721549,0.0410318777114,0.0864901933135,0.762585752709,0.642779114291,-0.0701771890292,0.0193168873495,-0.0644807152907,-0.134110562973,-0.105143437273,-0.0555781836705,0.16457095967,-0.155466071931,-2.19666051865,0.67342031002,-1.42984235287,-0.346961528063,-1.32073307037,0.304976671934
2017/07/09/10:17:50.282583,505495,1499566673,88848809,,0.707390026943,0.0392192827675,0.0859082728713,0.763362237474,0.641785286909,-0.0709162721236,0.018990056724,-0.0523115202554,-0.137030751829,-0.0955175541226,-0.0459719422729,0.132054305281,-0.183926256325,-2.38434386253,0.386100530624,-1.28736519814,-0.26885843277,-1.37650418282,0.27893024683
2017/07/09/10:17:50.292407,505496,1499566673,98845432,,0.707689340813,0.039105801508,0.0851776893906,0.763718564165,0.64139183652,-0.0707007340584,0.0187582781243,-0.0363028386306,-0.116415635343,-0.0870437120714,-0.0241822187879,0.0914551870407,-0.164557574242,-1.88889145851,1.07241904736,-1.41456592083,-0.375572532415,-1.29098951817,0.292763739824
2017/07/09/10:17:50.302717,505497,1499566673,108847498,,0.706826028202,0.0376874727461,0.0841197453885,0.764193595386,0.64076913403,-0.0713623888698,0.0181789741207,-0.0422554398914,-0.0890738905844,-0.092808733881,0.0453287463916,0.0964457240207,-0.179587003128,-2.61106443405,0.679273426533,-1.04796636105,-0.2921679914,-1.50717449188,0.321246623993
2017/07/09/10:17:50.312558,505498,1499566673,118845658,,0.706750163722,0.0367862412801,0.0832419501919,0.765052107965,0.639794809762,-0.0710107006139,0.0177582065075,-0.0251868465477,-0.102435106297,-0.0757332967224,0.0179023595357,0.0553469658719,-0.174120720288,-2.3032438755,0.559068381786,-1.25916957855,-0.3352689147,-1.31343460083,0.286275029182
2017/07/09/10:17:50.322306,505499,1499566673,128849196,,0.707002471411,0.0358807098758,0.0825352490144,0.765425285146,0.639354675415,-0.0709242105777,0.0178742339151,-0.020717892007,-0.103020564148,-0.0785102603133,0.0273899854354,0.038797199723,-0.181313146325,-1.99077427387,0.589563131332,-1.11754906178,-0.375505805016,-1.20394551754,0.237676426768
2017/07/09/10:17:50.332579,505500,1499566673,138844250,,0.705741441301,0.03429901319,0.0815473751535,0.76618252461,0.638393528262,-0.0716247281864,0.0169688057087,-0.0450019164841,-0.129959240175,-0.076456723072,0.00729929137554,0.0772076335728,-0.200657103419,-2.91636586189,0.607284784317,-0.969001471996,-0.471482396126,-1.49095129967,0.260129213333
2017/07/09/10:17:50.342545,505501,1499566673,148837825,,0.705221725703,0.0330589861392,0.0810375118075,0.766887526626,0.637497301827,-0.0721316689539,0.0166653533521,-0.0463414516066,-0.0875503298237,-0.0872926553487,0.0232330528907,0.0969410964567,-0.164194623019,-2.93016290665,0.62942969799,-0.747913718224,-0.448467582464,-1.57535946369,0.28701749444
2017/07/09/10:17:50.352543,505502,1499566673,158839036,,0.705258823395,0.0326456970055,0.0808863848941,0.766957116915,0.637409001381,-0.0721986231073,0.0165500632772,-0.0328571462997,-0.0967303791913,-0.0668181230313,0.0253243834702,0.0670948789012,-0.192289162496,-2.51700019836,1.09839856625,-0.827072441578,-0.380265712738,-1.48100841045,0.329709380865
2017/07/09/10:17:50.362482,505503,1499566673,168850199,,0.704231373308,0.0304420645554,0.0798281813434,0.768064229612,0.636001320115,-0.0729646265545,0.0159944764032,-0.0484128387499,-0.112318100194,-0.0596138570588,0.0185251436463,0.0898456310626,-0.19594843773,-2.94471120834,0.0730391889811,-1.02447080612,-0.152776777744,-1.67555129528,0.345361173153
2017/07/09/10:17:50.372376,505504,1499566673,178843001,,0.704106080497,0.0305259974103,0.0798130454544,0.768155521206,0.635897560121,-0.0729760592214,0.0156806585865,-0.0619897566292,-0.0868834987344,-0.0595993347617,0.0453440215089,0.129149125418,-0.171653542004,-3.05796670914,0.914573073387,-0.607288897038,-0.345297813416,-1.85819518566,0.383231043816
2017/07/09/10:17:50.382856,505505,1499566673,188844990,,0.703074355402,0.0293329609957,0.078796763975,0.768954403294,0.634902979111,-0.0734033806326,0.0148079871392,-0.0681383779345,-0.0962702810464,-0.0577030226187,0.0397138122622,0.135883102001,-0.170783325786,-3.10662436485,0.558826208115,-0.852242052555,-0.301554858685,-1.83202981949,0.326569914818
2017/07/09/10:17:50.392540,505506,1499566673,198837324,,0.702011245943,0.027895651538,0.0783256029117,0.769292756516,0.634402458851,-0.0743325322488,0.0140303109493,-0.0785828493312,-0.107999295772,-0.0561012596663,0.0179227355603,0.143833631697,-0.189266149628,-3.5442969799,0.138653084636,-0.961112320423,-0.346837073565,-1.89084529877,0.302990943193
2017/07/09/10:17:50.402702,505507,1499566673,208846304,,0.702409611642,0.0281543685217,0.0781521581832,0.769576113225,0.634132603593,-0.0737642516375,0.0136851085065,-0.0625784081402,-0.0826294698639,-0.0504658167395,0.0552478479219,0.121705797946,-0.17001819118,-2.84020185471,0.917348027229,-0.977403044701,-0.323532938957,-1.66985785961,0.332036286592
2017/07/09/10:17:50.412329,505508,1499566673,218845027,,0.700970928038,0.0271019330592,0.0770346804978,0.77004179673,0.633466861382,-0.0748230991409,0.0125248015623,-0.0658342282907,-0.0930553047274,-0.0453584821113,0.0290630168821,0.123243692222,-0.175118564596,-3.05689382553,1.128895998,-0.841139733791,-0.416911840439,-1.63239955902,0.323704719543
2017/07/09/10:17:50.422314,505509,1499566673,228844247,,0.700356832806,0.0259884560754,0.0764996114629,0.770801526066,0.632522691579,-0.0750745339264,0.0119944323821,-0.075836128054,-0.0853722250713,-0.0637575782198,0.0455998240166,0.143534124277,-0.171593682452,-2.71425652504,0.902959167957,-0.457875281572,-0.416995048523,-1.44889163971,0.278934180737
2017/07/09/10:17:50.432786,505510,1499566673,238849604,,0.699718935183,0.0246875541587,0.0761697238434,0.771213844658,0.631972322427,-0.0755117656354,0.011754264941,-0.0860254124461,-0.0947354017947,-0.0597720647465,0.0400859039836,0.167791157905,-0.174238750004,-3.00808930397,0.720005273819,-0.263112396002,-0.350930333138,-1.54772543907,0.289780795574
2017/07/09/10:17:50.442550,505511,1499566673,248846079,,0.698840309548,0.0243604243727,0.0755371169282,0.771786695523,0.631279364954,-0.0756534208939,0.0104028795849,-0.0901132689283,-0.105995535202,-0.0465877976874,0.0353370977011,0.168344273182,-0.208067351229,-3.56923484802,0.64111995697,-0.544492959976,-0.373352855444,-1.71284461021,0.275971055031
2017/07/09/10:17:50.452526,505512,1499566673,258855210,,0.697722414208,0.0232692126977,0.0750163696328,0.772098415657,0.630767058236,-0.0768181754813,0.0097940134882,-0.105575301887,-0.0829189091215,-0.0568092913448,0.0766125632164,0.203134464154,-0.209780024524,-3.61984729767,0.971269786358,-0.610969543457,-0.401007205248,-1.82466602325,0.333235740662
2017/07/09/10:17:50.462536,505513,1499566673,268844759,,0.696248872656,0.0223543002939,0.074661599986,0.772387777851,0.6302930549,-0.0779248164686,0.00868956553609,-0.104880284157,-0.0733907037141,-0.0569612410421,0.0584048398791,0.226299676603,-0.161748244287,-3.26894664764,1.38847196102,-0.346168756485,-0.473130315542,-1.76756417751,0.344703763723
2017/07/09/10:17:50.472132,505514,1499566673,278846187,,0.69530523507,0.0211652657511,0.0744129084075,0.773230041547,0.629214177566,-0.0783822244164,0.00781335354209,-0.122521814685,-0.106631333432,-0.0538446118065,0.0342147009509,0.247615996369,-0.186011713354,-2.04448437691,0.848846614361,-0.548140406609,-0.439183652401,-1.28275477886,0.236657977104
2017/07/09/10:17:50.482731,505515,1499566673,288851342,,0.694285517136,0.0204471691643,0.0733722277633,0.773612997004,0.628655388977,-0.079171397546,0.00687186929499,-0.124532793753,-0.123441643971,-0.0476923976039,0.014713579,0.239742727007,-0.209608521397,-3.29733371735,0.633152544498,-0.457699269056,-0.216705679893,-1.79217839241,0.345082491636
2017/07/09/10:17:50.492545,505516,1499566673,298851194,,0.69303021912,0.0200059209205,0.0726929848687,0.774238380245,0.627817176142,-0.0798090000048,0.00557202076063,-0.120787776701,-0.116335620694,-0.0616918419402,0.0279424985483,0.233635437032,-0.230148048438,-3.03645634651,1.15870678425,-0.283877134323,-0.306311905384,-1.70926010609,0.323606491089
2017/07/09/10:17:50.502679,505517,1499566673,308851132,,0.692073980039,0.0186020022115,0.0724339779025,0.774631277286,0.62724531431,-0.0805199447091,0.00512234624431,-0.106471253496,-0.0830279725021,-0.058123776771,0.0569736345905,0.207279320084,-0.197698138233,-2.19129180908,1.38558411598,-0.804312705994,-0.545780897141,-1.32762134075,0.270968645811
2017/07/09/10:17:50.512500,505518,1499566673,318847773,,0.690849183988,0.0169789236085,0.0722697922433,0.775723980016,0.625805340872,-0.0812457785622,0.00437099880188,-0.111434319274,-0.102772833679,-0.0507383883505,0.0302644969454,0.211442857181,-0.185132886178,-3.94352054596,0.9510846138,0.275188744068,-0.436892718077,-2.06776499748,0.316905230284
2017/07/09/10:17:50.522473,505519,1499566673,328842579,,0.689590233075,0.0166901374172,0.0713253565063,0.775736629634,0.625687550978,-0.0820847206975,0.00314143645909,-0.0971837439775,-0.0921118501748,-0.0493015330699,0.0441207650233,0.181783164662,-0.181735304671,-4.3284034729,1.02791011333,0.0445651262999,-0.32574442029,-2.17402482033,0.345597535372
2017/07/09/10:17:50.532638,505520,1499566673,338855560,,0.688855545946,0.0154024291351,0.0703747837883,0.776392579834,0.624822968477,-0.0824872929391,0.0025819656288,-0.108306679959,-0.115652846386,-0.0535004230886,0.0392539124336,0.18800222979,-0.211286660921,-3.53431558609,0.821318984032,-0.762463092804,-0.302572131157,-1.82340478897,0.303182721138
2017/07/09/10:17:50.542551,505521,1499566673,348844877,,0.687829324033,0.0139104750599,0.0704145900659,0.777014611884,0.623949920701,-0.0832520613396,0.00197070025859,-0.111471648655,-0.117358580535,-0.0645675412136,0.0393279703874,0.201330154841,-0.208442197992,-3.22543072701,0.1996345222,-0.548600912094,-0.147392317653,-1.64992761612,0.246302962303
2017/07/09/10:17:50.552517,505522,1499566673,358851885,,0.686430631264,0.0135045785333,0.0693930688453,0.777021612802,0.623867378548,-0.0838242270853,0.000637319546226,-0.104629015954,-0.103883592662,-0.0629939369229,0.0379908336775,0.188891426332,-0.198416498609,-3.33053898811,1.05051124096,-0.469122588634,-0.339641988277,-1.69004392624,0.279976010323
2017/07/09/10:17:50.562310,505523,1499566673,368837205,,0.68564365641,0.0123809865495,0.0688546566079,0.777880279823,0.62273015161,-0.084317424785,-2.03791743062e-05,-0.115962818349,-0.103928898331,-0.0766939961042,0.0382128559476,0.215529093012,-0.195661583451,-2.49555659294,0.989079654217,-0.183234855533,-0.358727693558,-1.44680440426,0.232653364539
2017/07/09/10:17:50.572203,505524,1499566673,378841202,,0.684336698407,0.0113424024851,0.0680785287742,0.778265168254,0.622114905737,-0.0852978653814,-0.000803806411086,-0.106960413349,-0.109746716269,-0.0717997867984,0.0345252111081,0.186395353988,-0.204940074556,-1.73889398575,1.52716863155,-0.731562912464,-0.435593485832,-1.1031255722,0.211164325476
2017/07/09/10:17:50.582943,505525,1499566673,388843953,,0.68359698967,0.0107897797288,0.067237030675,0.778466496056,0.621835605753,-0.0854807406702,-0.00185389048075,-0.106130323653,-0.102631171479,-0.0723410282983,0.0467378204456,0.188724476608,-0.204131012517,-2.97228336334,1.53773832321,-0.378042161465,-0.50816577673,-1.59081089497,0.228979498148
2017/07/09/10:17:50.592601,505526,1499566673,398842132,,0.682346538672,0.00866085433465,0.0667877383151,0.77961994229,0.62029730415,-0.0861342053194,-0.00221330553399,-0.127291313122,-0.107803146618,-0.0874543340059,0.0568446049395,0.226256983128,-0.189778026168,-4.12165975571,0.349158525467,0.226961523294,-0.228892430663,-2.06875967979,0.270089268684
2017/07/09/10:17:50.602567,505527,1499566673,408864365,,0.681456799876,0.0080564079339,0.065915572565,0.779747885022,0.620054297672,-0.0867003620368,-0.00299181628555,-0.116061981665,-0.10797540586,-0.0787730718664,0.0679651789386,0.194468666451,-0.215845011698,-3.62941026688,0.717095792294,-0.0128231327981,-0.179183289409,-1.94210672379,0.285257697105
2017/07/09/10:17:50.612385,505528,1499566673,418851653,,0.679467437671,0.00664794319874,0.0646020008643,0.780538385443,0.61892815838,-0.0875609818747,-0.00456487319661,-0.107166607807,-0.0968041326975,-0.0863932192626,0.0594236469596,0.18383955944,-0.183861362583,-2.33957314491,0.23182079196,-1.28483057022,-0.221020966768,-1.30547833443,0.17626298964
2017/07/09/10:17:50.622132,505529,1499566673,428838489,,0.679166346381,0.00625816897477,0.0637410234421,0.780722036185,0.618651532762,-0.0878566900708,-0.00495835009107,-0.112090975546,-0.114063128835,-0.0945103221965,0.0337983973856,0.184805779734,-0.190649780335,-1.95213699341,0.557400047779,-1.23692309856,-0.339163988829,-1.18874788284,0.17911849916
2017/07/09/10:17:50.632889,505530,1499566673,438846339,,0.67837646153,0.00533239630572,0.0630377684221,0.78112200531,0.6181278165,-0.0879374220608,-0.00578144369513,-0.102603425663,-0.119086634585,-0.0891157483632,0.0223118318195,0.158620690597,-0.174672432763,-1.60401618481,0.841752886772,-0.828878700733,-0.396364301443,-1.12596535683,0.146543487906
2017/07/09/10:17:50.642529,505531,1499566673,448838805,,0.677556940091,0.00411634520258,0.0625800928989,0.781843640647,0.617172936782,-0.08820933286,-0.00609928515022,-0.0973961121732,-0.113282507697,-0.101162252431,0.0405352971079,0.140216996934,-0.187512982729,-2.45289993286,1.06381309032,0.127195194364,-0.31169912219,-1.451354146,0.181354060769
2017/07/09/10:17:50.652277,505532,1499566673,458845793,,0.676803819278,0.00333731128226,0.0608911843813,0.781975223722,0.616911263374,-0.0888228311647,-0.00676367289805,-0.0943816233938,-0.118779905846,-0.104099724077,0.0342296122382,0.140136240043,-0.179059684934,-1.63321590424,1.50733077526,-0.574984610081,-0.346457153559,-1.09580695629,0.13580468297
2017/07/09/10:17:50.662162,505533,1499566673,468837905,,0.675435987567,0.00163282848556,0.0599970292896,0.782745780351,0.615863235524,-0.0892518027443,-0.0074588323286,-0.0896469820898,-0.130518991012,-0.0955155696886,0.0218487176006,0.119463040785,-0.171608861946,-2.94704079628,0.601288199425,-0.366400867701,-0.172223329544,-1.44882059097,0.150632426143
2017/07/09/10:17:50.672493,505534,1499566673,478845686,,0.674490535785,0.000653697061791,0.0590321041575,0.782961259154,0.615485683114,-0.0899019198307,-0.00816611022934,-0.0804000245291,-0.111841685807,-0.0888779619737,0.0394039928048,0.112155455658,-0.151013565497,-3.47240543365,0.548134863377,-0.593620300293,-0.152249991894,-1.61718189716,0.14008282125
2017/07/09/10:17:50.682533,505535,1499566673,488839122,,0.673557609337,-0.000568424398465,0.0581076319363,0.783828931008,0.614293728523,-0.0904284291993,-0.0088386201148,-0.0980827196906,-0.102536418933,-0.105973193614,0.0727955615962,0.142444318994,-0.197768695298,-3.24174284935,0.549803972244,-0.627181231976,-0.134512230754,-1.53343236446,0.132034808397
2017/07/09/10:17:50.692593,505536,1499566673,498845521,,0.672650104105,-0.0010603203269,0.0569048392863,0.784093481261,0.613908629119,-0.0906538625734,-0.00977163947942,-0.104652350619,-0.102401613796,-0.10109763931,0.0534569497865,0.165678342727,-0.193425778157,-3.28235316277,1.14280760288,-0.764532387257,-0.431729853153,-1.5153979063,0.163211390376
2017/07/09/10:17:50.702471,505537,1499566673,508844887,,0.671859497154,-0.00263457230357,0.0563560682056,0.784537424977,0.613266163703,-0.0911386600946,-0.00996924782788,-0.0965155159887,-0.103238707813,-0.105514445071,0.0430339813654,0.149565216669,-0.169439208041,-2.55375909805,0.724551916122,-0.386346369982,-0.33934995532,-1.28129601479,0.13235104084
2017/07/09/10:17:50.712587,505538,1499566673,518837442,,0.670859344815,-0.00365488882456,0.0551486920901,0.785295607263,0.612229976557,-0.0914727193902,-0.0108630854874,-0.099364796449,-0.123818202438,-0.102331920503,0.018894729098,0.151008304888,-0.174301756272,-2.25036382675,0.801814198494,-0.197255849838,-0.404280930758,-1.1709382534,0.128828436136
2017/07/09/10:17:50.722273,505539,1499566673,528837363,,0.670421610248,-0.00488557501903,0.0543477084728,0.785326842004,0.612126646719,-0.091899633932,-0.0108248273949,-0.109342902582,-0.150248548139,-0.0962981554824,-0.000110206817613,0.155736730998,-0.210960274384,-2.58900523186,0.99899148941,0.0494397729635,-0.358547002077,-1.42542099953,0.147603303194
2017/07/09/10:17:50.732737,505540,1499566673,538845592,,0.669087148433,-0.00594226799811,0.0529952783911,0.785535078492,0.611719899175,-0.092714018062,-0.0117267330122,-0.100184275055,-0.119124838642,-0.102976783095,0.0126098407664,0.162428785282,-0.146600545783,-2.14458799362,0.858874678612,-0.742391765118,-0.300247251987,-1.16391992569,0.130660295486
2017/07/09/10:17:50.742528,505541,1499566673,548845785,,0.66818720365,-0.00710357457519,0.0523539495431,0.786160091789,0.61081567269,-0.0933017668523,-0.0123005844088,-0.109361136119,-0.124442948001,-0.105110127359,0.00951868299124,0.181417382253,-0.169467711333,-1.29362857342,1.02826619148,-0.83296251297,-0.421325832605,-0.844958364964,0.0689274817705
2017/07/09/10:17:50.752471,505542,1499566673,558845693,,0.667167453289,-0.00875466577369,0.0510264229234,0.786659104727,0.610114528361,-0.0935778243441,-0.0130731030708,-0.0964989338535,-0.124906264358,-0.10818637307,-0.00504109672899,0.169087333406,-0.129045737101,-1.50908720493,0.497750788927,-0.95507055521,-0.327737033367,-0.868067741394,0.0315382815897
2017/07/09/10:17:50.762647,505543,1499566673,568840468,,0.666515344379,-0.0101472649455,0.0502774569307,0.787003841475,0.609523595831,-0.0945216480566,-0.0130995296489,-0.0866405984438,-0.117503867472,-0.101056315876,6.52400180488e-05,0.144711765673,-0.128039904423,-0.787781715393,0.285059541464,-0.956337749958,-0.189265608788,-0.646662354469,0.0439436212182
2017/07/09/10:17:50.772304,505544,1499566673,578843211,,0.665420517366,-0.0105245321389,0.0494846416362,0.786959414901,0.609473021805,-0.0950883408645,-0.0139900829654,-0.0903594455791,-0.105229414416,-0.105184749644,0.0133038532678,0.15961131017,-0.134192611388,-1.00312685966,0.698096513748,-0.81519651413,-0.292999505997,-0.723149478436,0.0433907881379
2017/07/09/10:17:50.782783,505545,1499566673,588845967,,0.664466401699,-0.0119642243231,0.0482744033628,0.787364658833,0.608811046065,-0.0959258051835,-0.0142913998532,-0.0916511244181,-0.130063614332,-0.108453925471,-0.0132335190784,0.150684954657,-0.13439011797,-1.1093224287,0.42753970623,-0.645704448223,-0.211659640074,-0.758615732193,0.01573083736
2017/07/09/10:17:50.792540,505546,1499566673,598841762,,0.663973868179,-0.0134282669026,0.0473543128336,0.787533456624,0.608531396643,-0.0963115073114,-0.014306905898,-0.095859585003,-0.130973702784,-0.110919331453,-0.0251722841867,0.167352486417,-0.120275403977,-1.13654983044,0.206181555986,-0.953567922115,-0.127441078424,-0.750686347485,-0.0309290960431
2017/07/09/10:17:50.802571,505547,1499566673,608839466,,0.662683621908,-0.0147581330706,0.0460799786923,0.788044005475,0.607703635963,-0.0972616392094,-0.0149368607967,-0.0805364481138,-0.131517827006,-0.107252151129,-0.0416094175871,0.134686710524,-0.128933829524,-1.1916782856,0.408614039421,-0.820107579231,-0.171096116304,-0.672372639179,-0.0116473399103
2017/07/09/10:17:50.812479,505548,1499566673,618844732,,0.662466373202,-0.0158887227399,0.0449359473228,0.788511855925,0.607100346493,-0.0971980957797,-0.0151905407974,-0.0669474924245,-0.121133040023,-0.106223857614,-0.0398028564974,0.114614429923,-0.0981286204578,-1.04044032097,0.499099075794,-0.644205629826,-0.242756932974,-0.701294779778,-0.00338834524155
2017/07/09/10:17:50.822686,505549,1499566673,628861646,,0.661855499371,-0.0172327393903,0.0438814335094,0.788427204813,0.607071962949,-0.0980622406985,-0.0151648099908,-0.051874375296,-0.127128067941,-0.102566914005,-0.0405119302598,0.0700680059209,-0.0919518334955,-1.51811599731,0.689944267273,-1.01417243481,-0.279412418604,-0.813795983791,0.0225355438888
2017/07/09/10:17:50.832710,505550,1499566673,638842836,,0.661404566608,-0.0191328927527,0.043300195095,0.78865328611,0.606732846177,-0.0984072090968,-0.0147400432735,-0.0716356276431,-0.149545814092,-0.107293065742,-0.0525820303669,0.098903736911,-0.102067757896,-0.860769450665,0.267160654068,-0.46178022027,-0.169566169381,-0.615802824497,-0.00468376465142
2017/07/09/10:17:50.842872,505551,1499566673,648840035,,0.660704086394,-0.0200617791522,0.0423884346487,0.788859932765,0.606332354252,-0.0991874729615,-0.0149307692968,-0.071110686976,-0.15594108649,-0.0970977554718,-0.0914969394523,0.100422773567,-0.129106714252,-1.05259776115,0.417806625366,-0.41585072875,-0.24934437871,-0.68728774786,-0.0128304250538
2017/07/09/10:17:50.852613,505552,1499566673,658838913,,0.659242235088,-0.0218438682716,0.0409799171939,0.789463158922,0.605360452152,-0.100217198183,-0.0155934878192,-0.104847300386,-0.155137557775,-0.109913818792,-0.0705563102462,0.166944699709,-0.128737421267,-1.16048884392,-0.0204466432333,-0.905220985413,-0.128597706556,-0.657482743263,-0.0173578131944
2017/07/09/10:17:50.862401,505553,1499566673,668839790,,0.658617036755,-0.0231219342588,0.0399717092701,0.789644809222,0.605018685247,-0.100848547711,-0.0155896181841,-0.0862376702864,-0.12670235816,-0.108269138764,-0.0607843860856,0.151761761892,-0.0737726564378,-0.893793046474,-0.106321044266,-0.554781913757,-0.10755199939,-0.612573266029,-0.0289008133113
2017/07/09/10:17:50.872234,505554,1499566673,678845084,,0.657582472795,-0.0236444927666,0.0393802058015,0.789474272281,0.605059112224,-0.101811822237,-0.0163767205001,-0.0711700267665,-0.133748958478,-0.0921770883005,-0.0685265616738,0.11709602978,-0.0830156189132,-0.787532329559,0.438105165958,-0.624528825283,-0.266337424517,-0.493199169636,-0.0404059737921
2017/07/09/10:17:50.882709,505555,1499566673,688838552,,0.657432760031,-0.025113374476,0.0383993244263,0.789710704838,0.604699678429,-0.102180482554,-0.015951506457,-0.0751276097066,-0.139857023401,-0.0893441607638,-0.0671255575387,0.121676679089,-0.0778690689322,-0.351704835892,0.540201425552,-0.680731236935,-0.251013100147,-0.432698130608,0.0134352836758
2017/07/09/10:17:50.892521,505556,1499566673,698846207,,0.655850328053,-0.0269998066511,0.037117348446,0.790068817735,0.603994130495,-0.103499901947,-0.0164354454417,-0.0856204631726,-0.162900275615,-0.0888239080021,-0.102986980835,0.138338290124,-0.0973629914268,-0.914249420166,0.356685578823,-1.01692354679,-0.203467518091,-0.598419070244,-0.00948167219758
2017/07/09/10:17:50.902625,505557,1499566673,708840172,,0.65504791233,-0.0292214074449,0.0364087443567,0.79038065316,0.603457200967,-0.104316367292,-0.0159976631827,-0.109688496386,-0.156698243486,-0.113559325724,-0.100896505895,0.196447393522,-0.0822627420684,-1.01156330109,-0.586899936199,-1.11604690552,-0.0345683023334,-0.569856524467,-0.0433099679649
2017/07/09/10:17:50.912364,505558,1499566673,718837570,,0.654690849463,-0.0295652468994,0.0355462979461,0.790432597756,0.603330828359,-0.104587298769,-0.0164230597621,-0.0769101475193,-0.142905322228,-0.094605719959,-0.107564771196,0.132274351322,-0.0764572252969,-0.370530664921,0.458275854588,-1.20699417591,-0.182417854667,-0.41462507844,-0.0308271273971
2017/07/09/10:17:50.922557,505559,1499566673,728840904,,0.653745418443,-0.0313156537472,0.0346031378734,0.790495999589,0.603072124905,-0.105604127058,-0.0163662807252,-0.0658949566897,-0.117014319593,-0.104316828102,-0.0694925029138,0.112199222496,-0.0571052756437,-0.0513795688748,0.035251006484,-0.719106018543,-0.165426537395,-0.271886706352,-0.0535836555064
2017/07/09/10:17:50.932496,505560,1499566673,738842853,,0.653225793221,-0.0315234048487,0.0333890144228,0.790372751908,0.603161873066,-0.105913205243,-0.0170017903966,-0.0803365190703,-0.123352055852,-0.101819866113,-0.0812732997784,0.149550459347,-0.0569230693584,-0.109043762088,0.397492349148,-0.816190421581,-0.205281659961,-0.322704792023,-0.027610225603
2017/07/09/10:17:50.942322,505561,1499566673,748841243,,0.652435913534,-0.0327591802894,0.032423649981,0.790812968465,0.602468435499,-0.106546074866,-0.017162956188,-0.0837692136928,-0.106113217184,-0.109328537129,-0.0367901255683,0.148538099017,-0.069447660738,-0.36811286211,0.421298265457,-0.925519108772,-0.239294484258,-0.411437541246,-0.0132881402969
2017/07/09/10:17:50.953964,505562,1499566673,758844673,,0.651762667117,-0.0344547516774,0.0316616624554,0.790948671587,0.602176073489,-0.107229279214,-0.0169132229681,-0.0720200445946,-0.120369289631,-0.102496473774,-0.0659268827961,0.114490349432,-0.0599395751753,-1.01181328297,-0.190604329109,-0.317095935345,-0.141054421663,-0.640047192574,0.0120877679437
2017/07/09/10:17:50.962275,505563,1499566673,768843722,,0.651567198584,-0.034814143562,0.0306839725776,0.790857819623,0.602227007092,-0.107609232438,-0.016934998175,-0.0578189922214,-0.121688968824,-0.0946910168289,-0.0737153651903,0.0766946568873,-0.0535766300875,-0.751889765263,0.629619419575,-0.493985444307,-0.251583218575,-0.666396677494,0.0143479891121
2017/07/09/10:17:50.972452,505564,1499566673,778842992,,0.650355895585,-0.0361903138808,0.0293690392155,0.79083917868,0.602077687783,-0.10853923618,-0.0171780542931,-0.0406439906212,-0.106403101856,-0.0895226642414,-0.0667993025585,0.0460062884734,-0.0250607426933,-1.00792145729,0.0103363282979,-1.31207704544,-0.0925147384405,-0.614072322845,0.0236808601767
2017/07/09/10:17:50.982678,505565,1499566673,788840294,,0.650206235389,-0.0377814348315,0.0288113879297,0.791088489447,0.601750914613,-0.108631849363,-0.0165517349748,-0.0547855871159,-0.114564426402,-0.0999921556835,-0.0738314995721,0.0614161510059,-0.0335590336128,0.10719832778,-0.129147022963,-0.786766767502,-0.0236898064613,-0.301645100117,-0.0487044304609
2017/07/09/10:17:50.992488,505566,1499566673,798845959,,0.650056197609,-0.0377877469245,0.0269221577342,0.790922232121,0.60193375508,-0.108796706015,-0.0167646650198,-0.0528118228399,-0.110924799506,-0.110935691661,-0.089450590677,0.0596832894886,-0.0198269460839,0.69437867403,0.553007423878,-1.31770038605,-0.0235222354531,-0.169688791037,-0.0347428023815
2017/07/09/10:17:51.002510,505567,1499566673,808842021,,0.649381244408,-0.0398117178044,0.0262152130691,0.791203427974,0.601517667487,-0.109109046577,-0.0163965611956,-0.0456009944436,-0.117656022903,-0.122090830713,-0.0795842327877,0.0237113599973,-0.0254097431621,1.16506171227,-0.277185499668,-1.27701997757,-0.0809334740043,0.131509050727,-0.139801099896
2017/07/09/10:17:51.012319,505568,1499566673,818844245,,0.649399212369,-0.0397496991306,0.0253737562002,0.791111876655,0.601675540145,-0.108891865862,-0.0164652529709,-0.0321173114155,-0.084618350199,-0.116063358118,-0.0370144013949,0.00957194892721,-0.0107206969689,1.36361181736,0.119147151709,-0.628914952278,-0.116840682924,0.300122380257,-0.135682448745
2017/07/09/10:17:51.022443,505569,1499566673,828837339,,0.648599488194,-0.0405691571922,0.0243112890351,0.790820812296,0.601873161358,-0.109884428485,-0.0166298783327,-0.0309522627019,-0.0790911037627,-0.104402383646,-0.0243251002183,0.0115383792055,-0.0387978061995,1.35845291615,0.472093224525,-0.372541636229,-0.112818881869,0.378467649221,-0.120021775365
2017/07/09/10:17:51.032706,505570,1499566673,838838702,,0.649220778292,-0.0411269879184,0.0235471345519,0.79135684119,0.601337064411,-0.1090358539,-0.0161017835284,-0.0411254470554,-0.0696204354931,-0.0977916769325,-0.0183415062998,0.0412531483186,-0.0341717531577,0.590186595917,0.263231694698,-0.114508241415,-0.122795328498,0.0399706698954,-0.102530658245
2017/07/09/10:17:51.042591,505571,1499566673,848850866,,0.648076887555,-0.0423750134366,0.0226663930534,0.791327050156,0.601176644083,-0.110082457777,-0.0164315182101,-0.0562208479514,-0.118873057981,-0.0830738475297,-0.0634368477139,0.0568030556745,-0.0795305020016,0.389032721519,0.359475910664,0.0261938981712,0.00484997034073,0.00291228294373,-0.0898636877537
2017/07/09/10:17:51.052611,505572,1499566673,858851639,,0.64738641676,-0.042570099853,0.0219637435543,0.791434903259,0.600964410834,-0.110379676456,-0.0169969949999,-0.0741932739331,-0.114747500947,-0.0854531168836,-0.0442333084596,0.0975361059645,-0.0831130785327,0.567185521126,0.738769948483,-0.240092933178,-0.0697959512472,0.141148641706,-0.124343335629
2017/07/09/10:17:51.062204,505573,1499566673,868840440,,0.646520442864,-0.0438371716573,0.0210121894878,0.791649724079,0.600510358192,-0.111258901753,-0.0173055150425,-0.0582302395618,-0.084340044471,-0.085983717511,-0.033204695145,0.0983549219079,-0.0214227264371,0.352382749319,0.565042614937,-0.760493159294,-0.131842702627,0.103005632758,-0.106126599014
2017/07/09/10:17:51.072297,505574,1499566673,878851641,,0.645709887391,-0.0445530912167,0.0201825209233,0.791421744664,0.600632342417,-0.112179799629,-0.0175528878069,-0.0645761960382,-0.0802936256977,-0.0746721389561,-0.0510040901855,0.128248636529,-0.00955614859245,-0.172544628382,0.496954828501,-1.13901865482,-0.059955149889,-0.0701606869698,-0.0930812209845
2017/07/09/10:17:51.082806,505575,1499566673,888851842,,0.64503855931,-0.0457339348287,0.0196019297033,0.791600296116,0.60028998483,-0.112765401181,-0.0174605154477,-0.0879376720551,-0.0944032511081,-0.0759646267327,-0.066534565355,0.172622386225,-0.0166283917249,0.108436785638,0.291824102402,-1.17492556572,-0.184989333153,0.0402025431395,-0.153941035271
2017/07/09/10:17:51.092643,505576,1499566673,898859034,,0.644905898574,-0.0466373090497,0.0193440655598,0.791269235736,0.600659736979,-0.113180303504,-0.0170615312765,-0.0729693544075,-0.0770514619095,-0.0785580697879,-0.0447710266217,0.133171673888,0.000275765322039,0.278343945742,0.381032466888,-0.145011663437,-0.135759234428,0.0546603873372,-0.158919066191
2017/07/09/10:17:51.102373,505577,1499566673,908841450,,0.644206837568,-0.0469724619494,0.0183551339358,0.790986652869,0.600883706835,-0.113900259546,-0.0174818969118,-0.0668548323504,-0.11388585018,-0.0685782521303,-0.08929642163,0.108825508044,-0.0120420737544,9.00691413879,1.98481822014,-3.05514764786,-0.989779353142,3.68372297287,-0.499397486448
2017/07/09/10:17:51.112299,505578,1499566673,918838855,,0.643182041139,-0.0489300223354,0.017450710303,0.7912024169,0.600427139559,-0.114805621135,-0.0174829896739,-0.054835251871,-0.101168945461,-0.067633571891,-0.110881875347,0.112140190694,0.0468304561064,7.39940690994,1.70990395546,-2.69037652016,-0.854161262512,3.04085373878,-0.445938557386
2017/07/09/10:17:51.122342,505579,1499566673,928859092,,0.643080884246,-0.0493814778306,0.017171293524,0.790855383334,0.600837885007,-0.115098272276,-0.0171460290261,-0.0647215662796,-0.112495599081,-0.0580148235088,-0.110916311952,0.115386228975,0.0111015423919,2.4427614212,1.60885727406,-0.658787310123,-0.681225597858,1.03497207165,-0.262108922005
2017/07/09/10:17:51.132685,505580,1499566673,938841618,,0.642556606652,-0.0505957321929,0.017354591173,0.790972403835,0.600541171949,-0.115922965808,-0.0165777912912,-0.0563803523227,-0.111262842756,-0.0482639546806,-0.107131209739,0.0698464762982,-0.00998844859031,2.50034379959,0.452140152454,0.222634598613,-0.299766153097,1.12924146652,-0.354028493166
2017/07/09/10:17:51.142531,505581,1499566673,948837270,,0.642127368387,-0.0512317552018,0.0163575029335,0.790924975801,0.600554655596,-0.11614261724,-0.016813112674,-0.053301768698,-0.131634581172,-0.038698991979,-0.119437657171,0.0344026338083,-0.0458148467309,4.22585344315,-0.365503460169,0.345277488232,-0.0372868552804,1.85481083393,-0.513164699078
2017/07/09/10:17:51.152454,505582,1499566673,958845422,,0.641315471197,-0.0526807740689,0.0158186418379,0.791560129236,0.599665715523,-0.116399935366,-0.0168714692995,-0.0609553098481,-0.0775344691736,-0.0635429207675,-0.0315701364289,0.0757680436951,-0.0485206446979,5.33274030685,-0.57272285223,-0.492100328207,0.116867870092,2.16640782356,-0.53683412075
2017/07/09/10:17:51.162152,505583,1499566673,968842856,,0.640929705659,-0.0527336802545,0.0152300608406,0.791183905246,0.60013868464,-0.116440231687,-0.0174143539457,-0.0798172423969,-0.0717565172228,-0.0586652427583,-0.00204911119998,0.115190455402,-0.0407180278555,6.15086364746,-0.956599295139,-1.56790316105,0.255537390709,2.40909099579,-0.533237218857
2017/07/09/10:17:51.172422,505584,1499566673,978843568,,0.639989936671,-0.0537691583602,0.0150920750741,0.791223519619,0.599940703216,-0.117144022417,-0.0177136286021,-0.0605699765176,-0.0670090063886,-0.0406736545755,0.0260291767775,0.0819873271513,0.00638228235601,4.3372926712,-0.344684004784,-1.33595407009,0.00827984511852,1.60803246498,-0.428685128689
2017/07/09/10:17:51.182439,505585,1499566673,988841536,,0.639967266213,-0.0551095544304,0.0145832914776,0.791769644329,0.599383889648,-0.116375152227,-0.0172222847843,-0.0419375268656,-0.0699295381365,-0.0425150477629,0.0169304451392,0.0288103969612,-0.000999520405409,2.0254805088,0.615077614784,-0.252630531788,-0.343264818192,0.648594141006,-0.236230432987
2017/07/09/10:17:51.192315,505586,1499566673,998842761,,0.639396856621,-0.0559076825109,0.0142780274258,0.791824856767,0.599254474744,-0.116658622635,-0.0172695242892,-0.0238260887725,-0.0824779866151,-0.0398912965105,-0.00551648266595,-0.0478378994273,-0.0528997916044,2.66920137405,0.45563223958,0.138180270791,-0.298435509205,0.997591674328,-0.311315715313
2017/07/09/10:17:51.202399,505587,1499566674,8838774,,0.639107633611,-0.056666611291,0.0134725305784,0.792265795443,0.598684840183,-0.116600128964,-0.0171982973168,-0.0286754454902,-0.0768859493702,-0.0433050499203,-0.00259940877739,-0.0487310993957,-0.0841650550063,4.02117872238,-0.133994102478,0.0720323622227,-0.0242962762713,1.63248944283,-0.377895474434
2017/07/09/10:17:51.212346,505588,1499566674,18845704,,0.639229942902,-0.0569593671088,0.0133993261972,0.792478677513,0.598563010032,-0.115796181647,-0.0170620345732,-0.0212006072411,-0.0858387283541,-0.0381803283662,0.00231430208813,-0.0840675349368,-0.125018856228,4.72633218765,-0.308663606644,0.425608932972,-0.00740751624107,1.91099500656,-0.385240077972
2017/07/09/10:17:51.222426,505589,1499566674,28845698,,0.63894063825,-0.0573844124013,0.0132181539568,0.792460706865,0.598524719156,-0.116121206354,-0.017030973805,-0.0274306607186,-0.069574941615,-0.033023186489,-0.00236947394493,-0.0342806760094,-0.0748154074197,4.44296884537,-0.320815294981,0.390366882086,-0.133225530386,1.77442634106,-0.430146276951
2017/07/09/10:17:51.232654,505590,1499566674,38845406,,0.638068752241,-0.0586753522625,0.0132494384514,0.792914474487,0.597894943588,-0.11622117746,-0.0173467717815,-0.029506377589,-0.129954275232,0.0111733091396,-0.0919316255588,-0.0453492187817,-0.0931505033391,4.03147125244,-0.167007043958,0.213219851255,-0.154053479433,1.56085765362,-0.40249556303
2017/07/09/10:17:51.242404,505591,1499566674,48836930,,0.63841360708,-0.0600345538587,0.01374073281,0.792962341788,0.597954858867,-0.115711972856,-0.0164757579854,-0.041919894982,-0.115494241121,0.0035828768437,-0.0352542320025,-0.0125068546498,-0.0494405101615,4.68746328354,-0.495318651199,-0.116555772722,-0.0197148546576,1.77814090252,-0.44042083621
2017/07/09/10:17:51.252496,505592,1499566674,58851481,,0.637448392596,-0.0601628097967,0.0132342622465,0.792472426848,0.598462964655,-0.116309692594,-0.0173662900813,-0.0430187649424,-0.0648147761776,-0.0128544405467,0.0449259511914,0.021769894436,0.0427739075883,5.18680524826,0.484059631824,-0.204193562269,-0.61512696743,2.0573682785,-0.434000372887
2017/07/09/10:17:51.262301,505593,1499566674,68864957,,0.637168228172,-0.0615589594557,0.0130606043093,0.792630303194,0.598277021661,-0.116270091681,-0.0168247910041,-0.0374356658642,-0.0706282249856,-0.023677440224,0.0473917945173,-0.000514169564294,0.0307626815569,5.75884151459,1.23265707493,-0.206113725901,-0.932432413101,2.30652761459,-0.422451704741
2017/07/09/10:17:51.272371,505594,1499566674,78845354,,0.636815787366,-0.0622828316596,0.0134827514163,0.792960311025,0.597865820474,-0.116122239541,-0.0169124608626,-0.0338853338751,-0.0880797003689,-0.011366668815,-0.00603444946359,-0.0162405456403,-0.0185823638472,6.38550710678,1.67140603065,-0.17091087997,-1.13822901249,2.61911082268,-0.457809895277
2017/07/09/10:17:51.282880,505595,1499566674,88843990,,0.636339717028,-0.0630184304133,0.0134506081938,0.793313388113,0.597394966861,-0.1161092719,-0.0170809481194,-0.0337923489572,-0.0959394192705,0.00507886242865,-0.0365232576016,-0.0093969477675,-0.0674187959559,6.5249876976,2.57784962654,-0.183312892914,-1.55351901054,2.73445177078,-0.462723225355
2017/07/09/10:17:51.292369,505596,1499566674,98844378,,0.636456036652,-0.0632799212913,0.0132154567629,0.793534526091,0.597096436463,-0.116191664026,-0.0166822862655,-0.0364707238344,-0.0998753894858,-0.00362504923944,-0.0549374706085,-0.0221358263958,-0.145556378361,6.15121269226,3.15439271927,-0.164737790823,-1.69423043728,2.57780385017,-0.480856269598
2017/07/09/10:17:51.302486,505597,1499566674,108838444,,0.635791849586,-0.0651108821917,0.0130018087514,0.794802353345,0.595396105331,-0.116299494649,-0.0163439413259,-0.0117178404764,-0.0793102969238,0.0133836870302,-0.0817910260088,-0.0628924630038,-0.208959919495,6.34956169128,3.09025979042,-0.252367556095,-1.64246034622,2.70242118835,-0.521434783936
2017/07/09/10:17:51.312350,505598,1499566674,118837863,,0.635946120994,-0.065779555084,0.0136077806322,0.795211170728,0.594887490979,-0.116209759225,-0.0155999643242,-0.0360123156516,-0.0983777891589,0.0113580340098,-0.095038745723,-0.019016509861,-0.228117362661,6.32561635971,3.36885690689,-0.29769974947,-1.64235246181,2.67358541489,-0.504248678684
2017/07/09/10:17:51.322596,505599,1499566674,128839293,,0.635312660156,-0.0659000600337,0.0135893058685,0.795445747536,0.594464107517,-0.116689425715,-0.0161884380674,-0.0305491094417,-0.0815928180034,0.0168300051692,-0.0808604192092,-0.00858373794946,-0.181125791858,5.68132781982,3.85489964485,-0.42602545023,-1.97311520576,2.44201350212,-0.458761394024
2017/07/09/10:17:51.332716,505600,1499566674,138844667,,0.635456069587,-0.0674659054236,0.013875533268,0.796061667837,0.593646102498,-0.116812744077,-0.0149969600602,-0.0273844043373,-0.0839417607251,0.0103362547646,-0.0826356046571,-0.00525751305945,-0.162005068608,5.25833129883,4.00186538696,-0.555743575096,-1.94020199776,2.24024963379,-0.439163029194
2017/07/09/10:17:51.342653,505601,1499566674,148838521,,0.634942758464,-0.0682494961755,0.0140819540718,0.796493411546,0.593027247655,-0.117006285618,-0.0150485224609,-0.0262209191823,-0.0806290166135,0.0126620847943,-0.0708127837965,-0.0121520660116,-0.146157664589,4.90170001984,4.03528833389,-0.655571818352,-1.95273447037,2.10997200012,-0.38979780674
2017/07/09/10:17:51.352503,505602,1499566674,158837535,,0.635228229355,-0.0681133765386,0.0140379249264,0.796322476415,0.593292984688,-0.1168325991,-0.0149696914792,-0.0199249345905,-0.0871621573055,0.0148535607334,-0.0939671431528,-0.0170412344547,-0.081738841315,4.46276140213,4.23858833313,-0.59286648035,-2.06300806999,1.9762032032,-0.369702935219
2017/07/09/10:17:51.362631,505603,1499566674,168845532,,0.63488819213,-0.0692714644644,0.0143183938592,0.796580437707,0.592867998369,-0.117297999568,-0.0144333665696,-0.015591115244,-0.0868302663005,0.0166047208302,-0.10195010144,-0.0122112912787,-0.0641705503009,4.45481157303,4.32532405853,-0.677235901356,-2.17238473892,2.03796052933,-0.37246799469
2017/07/09/10:17:51.372381,505604,1499566674,178845339,,0.634476545275,-0.0697701910361,0.0140911447349,0.796636170456,0.592700899844,-0.117763462412,-0.0144299052582,0.000699419072509,-0.0532605223149,0.00503907676457,-0.0791041763545,-0.0344385060663,-0.0268365623064,4.58255767822,4.09289503098,-0.658345878124,-2.03852939606,2.08684015274,-0.370059967041
2017/07/09/10:17:51.382420,505605,1499566674,188838420,,0.634766040493,-0.0706356572935,0.0139751468913,0.797018476307,0.592276167346,-0.117377860656,-0.0138898469195,-0.00530408032266,-0.0427432814395,0.0124778591385,-0.0553868741605,-0.0179519931115,-0.01914893715,4.85962820053,3.7961473465,-0.955613970757,-1.85156846046,2.20552158356,-0.39110159874
2017/07/09/10:17:51.392564,505606,1499566674,198836563,,0.634480259101,-0.0699913315493,0.0141344627078,0.796326391235,0.593150687288,-0.117621346606,-0.0142042111939,-0.0136793762503,-0.0478997076778,0.00421850993314,-0.0442022642532,0.00687116485583,-0.00551434153578,4.60459136963,1.66158366203,-1.03927016258,-0.832732200623,1.97848761082,-0.422198355198
2017/07/09/10:17:51.402630,505607,1499566674,208847316,,0.634211853932,-0.0709469576066,0.0142725148657,0.796788565425,0.592474217584,-0.117915647926,-0.0140777654731,-0.0248982198174,-0.0464300264308,0.00879334765587,-0.0235500264387,0.0169767875064,-0.025303494935,4.70086717606,-0.395731627941,-1.08605706692,0.0355788916349,1.87718474865,-0.55863070488
2017/07/09/10:17:51.412516,505608,1499566674,218843158,,0.634451307145,-0.0711062519081,0.0147233382699,0.796828437849,0.592454283672,-0.117788625857,-0.0137186738589,-0.0267662269001,-0.0307559774097,0.00406765709933,-0.00685450310064,0.0273584224767,-0.0704745073889,4.54942131042,-0.532633185387,-1.12628853321,-0.0071362555027,1.82039999962,-0.582608580589
2017/07/09/10:17:51.422314,505609,1499566674,228839747,,0.634036017939,-0.0714693731165,0.0145686972517,0.797483965699,0.591570533992,-0.11775136132,-0.0140799386473,-0.00296842068073,-0.018954915112,0.00944627153722,0.00896016970121,-0.0228055523996,-0.0645622229615,3.46357822418,-0.26144900918,-0.984468221664,-0.114019788802,1.3937920332,-0.488710105419
2017/07/09/10:17:51.432404,505610,1499566674,238842817,,0.633960717671,-0.0709788043234,0.014133198511,0.797196361312,0.591997328238,-0.11752274018,-0.0143363318546,-0.00191135836525,-0.0150322604438,0.00188102625423,0.0300998808638,-0.0323029432207,-0.0795479735101,2.83537054062,0.0550203919411,-0.906495153904,-0.172630161047,1.13790154457,-0.430256843567
2017/07/09/10:17:51.442267,505611,1499566674,248838568,,0.634153151108,-0.0712460167355,0.0142244320309,0.797643482508,0.591467214764,-0.117153875619,-0.0143658657869,-0.0120616232263,-0.00442784860861,-0.00788311611609,0.055219421082,-0.0190966432444,-0.0808949972865,2.14570021629,-1.31241035461,-0.603045582771,0.578525185585,0.817288041115,-0.39643061161
2017/07/09/10:17:51.452464,505612,1499566674,258845667,,0.633357905738,-0.0721483036756,0.0140505598641,0.797902539579,0.591048649987,-0.117462508494,-0.0146829759005,-0.0168637481435,-0.0114113706893,-0.0146249073895,0.0567355268894,-0.00814348853633,-0.0798482974443,0.964781880379,-1.95399653912,-0.268911480904,1.02437019348,0.28027138114,-0.318111568689
2017/07/09/10:17:51.462391,505613,1499566674,268844063,,0.63323402157,-0.0724584157366,0.0144981488124,0.797872596389,0.591076024314,-0.117550647544,-0.0145016783094,-0.0227560902354,-0.0208297489506,-0.00423360640393,0.0420747995,-0.00475909178895,-0.0673573404756,1.40666878223,-2.16392183304,-0.372738480568,0.995597958565,0.493052572012,-0.390866279602
2017/07/09/10:17:51.472361,505614,1499566674,278846130,,0.63350469926,-0.0718764630227,0.0141314064709,0.797975023182,0.591072693788,-0.116822709864,-0.0148790959506,-0.0144522347175,-0.0273996259654,0.00261913167956,0.00485832119874,-0.00818186080593,-0.0388280382181,1.91759777069,-1.72052598,-0.386319309473,0.61698025465,0.737766504288,-0.436660140753
2017/07/09/10:17:51.482574,505615,1499566674,288845209,,0.633430287306,-0.0719963867468,0.0143052521963,0.798326320831,0.590620508301,-0.116721698997,-0.0147832887636,-0.0180413369725,-0.0193120835093,-0.00206704104881,0.0264096694222,0.00134441168383,-0.0455429194192,2.61203789711,-0.987709641457,-0.249279767275,0.150211557746,1.07988250256,-0.434116303921
2017/07/09/10:17:51.492323,505616,1499566674,298844202,,0.632998691672,-0.0722386156473,0.0137734948147,0.79835720331,0.590594772316,-0.116573024669,-0.0153075391596,-0.0177790650671,-0.00933970228398,-0.00702818317083,0.0350571298486,-0.000908140291205,-0.0700037282274,2.9882133007,-0.743842124939,-0.218540892005,-0.10333365947,1.25634801388,-0.445448994637
2017/07/09/10:17:51.502555,505617,1499566674,308858023,,0.632736471614,-0.0724251195806,0.0138138175445,0.798739127169,0.590075143886,-0.116565202533,-0.0154817588124,-0.0322683721795,-0.0225716048645,-0.01995263084,0.0469891523808,0.00992410112837,-0.0950397362324,2.80193114281,-0.532102108002,0.0499570965767,-0.160627260804,1.17076218128,-0.437136530876
2017/07/09/10:17:51.512484,505618,1499566674,318845430,,0.632560378634,-0.073081981552,0.01403612737,0.798608030296,0.590194819147,-0.11689870856,-0.0151651355545,-0.0377529557298,-0.046007364917,-0.0104093289719,0.00310516395849,0.0243441056826,-0.0657325115335,2.79744362831,-0.539333939552,0.0872017294168,-0.120630547404,1.15948534012,-0.424291968346
2017/07/09/10:17:51.522269,505619,1499566674,328844804,,0.631627929924,-0.0739006475693,0.0136114787403,0.798864558348,0.589709042407,-0.11754795067,-0.0155287479516,-0.0316718225801,-0.0410841400646,-0.00752055009487,-0.014511375653,0.0340535623354,-0.0276623338981,2.57053613663,-0.425376951694,0.367038995028,-0.163881033659,1.0555151701,-0.46099409461
2017/07/09/10:17:51.532599,505620,1499566674,338839582,,0.631743262468,-0.0743700076915,0.0138457369885,0.79899388918,0.589582662017,-0.117349393695,-0.0151713381311,-0.0388075370138,-0.0604635849895,-0.0111582069097,-0.0257340236568,0.0314199371729,-0.0601515828732,2.63736534119,-0.29528465867,0.428104370832,-0.163867026567,1.0956581831,-0.468354344368
2017/07/09/10:17:51.542559,505621,1499566674,348842544,,0.63124785123,-0.0751893963895,0.0135840435526,0.79938387703,0.589040023611,-0.117409245044,-0.0152426017149,-0.0157178078614,-0.0370864911756,0.00294804858548,-0.0140979785149,-0.00494473916721,-0.0311812834661,2.30589270592,-0.48187983036,0.56674861908,-0.0113063156605,0.962275445461,-0.482277333736
2017/07/09/10:17:51.552405,505622,1499566674,358837349,,0.631793176123,-0.0750775263321,0.0139553167252,0.799150171461,0.589425375997,-0.117111892553,-0.0148840252419,-0.018422348754,-0.0499585884626,-0.000297668042018,-0.0247596876592,-0.0071701509339,-0.0482430394861,2.26396131516,-0.306650519371,0.709841787815,0.0136635601521,0.933706462383,-0.452601343393
2017/07/09/10:17:51.562594,505623,1499566674,368839966,,0.631532785418,-0.0757175368136,0.0137488717493,0.799586654019,0.58888956454,-0.116806359524,-0.015051174877,-0.0153295011227,-0.0368349785897,-0.0131181404053,0.0186548575025,-0.0123601905703,-0.0294318194192,2.05012965202,-0.385807096958,0.495294004679,-0.0183530598879,0.908803164959,-0.439473569393
2017/07/09/10:17:51.572260,505624,1499566674,378842911,,0.631748232902,-0.0755108659372,0.0138605829509,0.799273150823,0.589363757928,-0.116571565715,-0.0149619945973,-0.00255960886076,-0.039606563617,-0.00598798010001,-0.00579059663818,-0.0361419658221,-0.00212451148269,4.94412088394,-0.462388247252,-0.972851276398,-0.0730404108763,2.1433236599,-0.5955914855
2017/07/09/10:17:51.582882,505625,1499566674,388843518,,0.631270655112,-0.0765408103239,0.0137597933959,0.79947010568,0.589079307502,-0.116653001794,-0.0150065575299,0.000488969145863,-0.0543996168247,0.00975296775812,-0.00581329822177,-0.0535089747257,-0.0155618095762,4.98722505569,-0.609842538834,-1.33643817902,-0.073493167758,2.17386555672,-0.599397420883
2017/07/09/10:17:51.592430,505626,1499566674,398841077,,0.631550778622,-0.076642422204,0.0135208918317,0.799452193972,0.589193393631,-0.116238325579,-0.014696466248,-0.00470693577204,-0.0284973882545,-0.00460566383677,0.0180954987187,-0.0255324319649,0.0236935368206,4.0394320488,-0.281749010086,-1.23772263527,-0.249932557344,1.72498202324,-0.497236251831
2017/07/09/10:17:51.602732,505627,1499566674,408837896,,0.631157310989,-0.077293837205,0.0135100326358,0.799630803112,0.588925357858,-0.116363851425,-0.0147294150512,0.0080057069733,-0.0495254641936,0.00659396667161,-0.00438609205494,-0.0807380657606,-0.0196298199059,3.93860650063,-0.295242905617,-1.01346182823,-0.207531452179,1.68114960194,-0.467528223991
2017/07/09/10:17:51.612288,505628,1499566674,418840247,,0.632111521162,-0.0769476188683,0.013292242519,0.799529860715,0.589287859013,-0.115288720444,-0.014153868169,0.0112519042124,-0.0376873306823,-0.00958728785134,0.000312240291428,-0.0837240201341,-0.00740231605342,4.42984437943,-0.407068312168,-1.25805783272,-0.213364720345,1.91303706169,-0.494463860989
2017/07/09/10:17:51.622391,505629,1499566674,428842123,,0.632344391019,-0.0771486482198,0.0135577806279,0.799653773432,0.589184448157,-0.115007017693,-0.0137446195738,0.0212227885612,-0.0151963901989,-0.00640719066898,-0.0066105007572,-0.0888537493069,0.0228744598903,4.57024765015,-0.505217432976,-1.23748862743,-0.159718245268,1.97381579876,-0.507934689522
2017/07/09/10:17:51.632788,505630,1499566674,438842634,,0.63192910378,-0.0781904479914,0.0135307006761,0.799507149819,0.589336941124,-0.115267317378,-0.0135548057996,0.0232155710342,-0.0288148313831,-0.00250349753099,-0.0310332353236,-0.099815321543,0.0155985247399,5.32634925842,-0.973817646503,-1.29220438004,0.081667304039,2.27094078064,-0.558250069618
2017/07/09/10:17:51.642506,505631,1499566674,448844190,,0.632919082226,-0.0771851104903,0.0136851930978,0.799404540685,0.589646083684,-0.11442249959,-0.0133179546683,0.0190503953905,-0.0120579763672,-0.00624421701386,0.00603132644571,-0.081666254041,0.00404855010326,5.56748914719,-0.95233798027,-1.50447916985,-0.0386198908091,2.3567712307,-0.590738832951
2017/07/09/10:17:51.652501,505632,1499566674,458839390,,0.632250242159,-0.0779443657541,0.0128284922748,0.799728076321,0.589146207434,-0.114723238266,-0.0134286563627,0.0232016532724,-0.0244413412442,-0.00857829149242,-0.0137306251502,-0.0843631564115,-0.0117655844473,4.90130615234,-0.768395066261,-1.39482629299,-0.0384098738432,2.01918458939,-0.486763268709
2017/07/09/10:17:51.662337,505633,1499566674,468845478,,0.633152556403,-0.0783768853871,0.0134579486024,0.800075874604,0.588856306751,-0.113881658727,-0.0125623517811,0.00973715098944,-0.0264820612011,-0.0217688268233,-0.0140038704286,-0.0578903339716,-0.00970438123595,4.65131139755,-0.461446255445,-1.18647074699,-0.154349535704,1.9228361845,-0.501503288746
2017/07/09/10:17:51.672342,505634,1499566674,478838121,,0.633006766174,-0.0787238336235,0.0130301222645,0.800042079926,0.588896525135,-0.113926005041,-0.0124265203199,0.024096956045,-0.0351477870336,0.00351939246429,-0.0220058141104,-0.0984126332998,-0.0305122402683,4.4547996521,-0.525657057762,-1.08491194248,-0.160520404577,1.93286323547,-0.498746007681
2017/07/09/10:17:51.682653,505635,1499566674,488849070,,0.633021689077,-0.0787238871703,0.0130568445064,0.800137190406,0.588818386169,-0.113649632253,-0.0125357779019,0.0344936717541,-0.0289501996408,-0.000998593205189,-0.0417509878604,-0.102190056249,-0.00869897913754,4.1978354454,-0.548679947853,-0.97806417942,-0.104332819581,1.8813252449,-0.495325237513
2017/07/09/10:17:51.692408,505636,1499566674,498842607,,0.633105930037,-0.0781854731306,0.0129681540575,0.799799639526,0.589280476938,-0.113609652519,-0.0127241097097,-0.00484686269089,-0.020553435861,-0.0161184609568,-0.00224324583625,-0.0270879400896,-0.0273533673487,3.38983941078,-0.0432087779045,-0.75238597393,-0.295087039471,1.60529756546,-0.434547692537
2017/07/09/10:17:51.702683,505637,1499566674,508839297,,0.633070766215,-0.079253387447,0.0127267304442,0.800141085183,0.588832919461,-0.113609419946,-0.0119556037651,-0.0087824239885,-0.000541964375835,-0.0184164110408,0.0149430942446,-0.00166390634039,-0.00172370277565,3.33449220657,0.159790992737,-0.710912644863,-0.304082930088,1.63311004639,-0.404772847891
2017/07/09/10:17:51.712461,505638,1499566674,518845512,,0.633573336012,-0.0792808476262,0.0127693924374,0.800187196431,0.588895068023,-0.112986851621,-0.0117055920903,0.013552601265,-0.0193062542809,-0.00176616181992,-0.0110640908064,-0.0707993839262,-0.0210517607414,3.86720252037,-0.292955726385,-0.567512214184,-0.162542909384,1.88503038883,-0.512811839581
2017/07/09/10:17:51.722418,505639,1499566674,528839960,,0.633101974007,-0.0792036017608,0.0124886077269,0.800174146494,0.588825289882,-0.113406136276,-0.0120482999974,-0.00522794026758,-0.0230127281097,0.00177460183204,-0.0267503762167,-0.0157813167242,-0.0160889221834,4.17326641083,-0.459260493517,-0.560985445976,0.00626386702061,1.9491161108,-0.486707687378
2017/07/09/10:17:51.732552,505640,1499566674,538845620,,0.632753613103,-0.0791181177411,0.0126642553368,0.800251200148,0.58865990871,-0.113695201483,-0.0122853448731,-0.0197009229885,0.00775466462444,-0.00530881215487,0.0112994538302,0.045919948959,-0.000306886630596,4.16299819946,-0.499929577112,-0.84445554018,-0.0313243865967,1.92660868168,-0.506549715996
2017/07/09/10:17:51.742446,505641,1499566674,548846179,,0.632491729767,-0.078702802711,0.0125582971038,0.800249025943,0.588686016427,-0.113508847035,-0.0128845716114,-0.010163219006,0.0261384326686,-0.00267568675313,0.0465641290912,0.0279467513219,-0.00821665664479,4.05535936356,-0.382176101208,-0.779919028282,-0.208664640784,1.88212132454,-0.492364346981
2017/07/09/10:17:51.752556,505642,1499566674,558846335,,0.632257455618,-0.0784487660145,0.0123355225734,0.800169359166,0.588774033199,-0.113561140865,-0.0133417302875,-0.0132397680071,0.0082230848091,-0.0101583822915,0.0410485600889,0.0229231265962,-0.0168518047985,3.71564793587,-0.438138067722,-0.822573006153,-0.212897032499,1.73005700111,-0.450818538666
2017/07/09/10:17:51.762456,505643,1499566674,568838841,,0.632404261988,-0.0783906814258,0.0125398910818,0.800583651928,0.588249792069,-0.113373346587,-0.0132091892414,-0.014813136426,0.0118664082243,-0.00523835127988,0.0303315939985,0.0325676606212,-0.0205740684598,4.03051280975,-0.468134641647,-0.800761699677,-0.234651863575,1.85921251774,-0.469555079937
2017/07/09/10:17:51.772340,505644,1499566674,578850672,,0.632595570711,-0.0788338398501,0.0123864784909,0.800675941921,0.588162003411,-0.113217257594,-0.012858707389,0.00588863128441,0.0133378389836,0.00340123192222,0.0156884911602,-0.00960859464583,0.00333389011131,4.27457094193,-0.699752569199,-0.7050537467,-0.202583447099,2.00269246101,-0.475193202496
2017/07/09/10:17:51.782693,505645,1499566674,588838682,,0.632664192307,-0.077705821867,0.012590202915,0.799996427894,0.589070954733,-0.113225062279,-0.0134614604954,-0.00784103047658,0.00518644021465,-0.00395394413815,0.0240720351503,0.00757583868636,-0.00751696285874,3.87534856796,-0.594595253468,-0.816114723682,-0.303662925959,1.83710336685,-0.474022865295
2017/07/09/10:17:51.792610,505646,1499566674,598846057,,0.631744902392,-0.0779606347487,0.0121983622564,0.800115067722,0.588773804815,-0.113871714061,-0.0139469675859,0.0158385538896,0.0158100348646,-0.00097030751828,0.0275508493511,-0.0243209217814,0.00741917112898,3.94620227814,-0.708390116692,-0.800606071949,-0.22633716464,1.86471545696,-0.453249186277
2017/07/09/10:17:51.802646,505647,1499566674,608841791,,0.632609822473,-0.0784441483351,0.0123891208743,0.800389632247,0.58854714836,-0.113208385355,-0.0131359138994,-0.00619246404486,0.0219774320023,-0.015584011341,0.0397825707218,0.00757230885467,-0.0092092222795,3.19106316566,-0.450703293085,-0.624292969704,-0.242652788758,1.58603572845,-0.396400928497
2017/07/09/10:17:51.812619,505648,1499566674,618844545,,0.632591788329,-0.0782722911098,0.0127190448945,0.800482580463,0.588454064082,-0.113049647646,-0.0130088434668,-0.00630034366225,0.00377761636429,-0.00908851385693,0.00265814689652,-0.000360029281564,0.00151458029938,3.26020073891,-0.576398849487,-0.527566373348,-0.179560884833,1.63386452198,-0.423320502043
2017/07/09/10:17:51.822522,505649,1499566674,628841029,,0.632268732599,-0.0781886229284,0.0125995734639,0.800501130558,0.588336598775,-0.113502294893,-0.0132369018688,0.000129220870152,-0.00340321257555,0.00263386880665,-0.0239727221262,-0.00476426011548,0.00408382679665,3.58621382713,-0.776766598225,-0.567440092564,-0.102436244488,1.75750076771,-0.457921087742
2017/07/09/10:17:51.832648,505650,1499566674,638846315,,0.631837829045,-0.0789809881332,0.012596544786,0.800462559851,0.588315100541,-0.113898318321,-0.0131227221428,-0.00939289485707,0.00923572633221,-0.00483852295855,-0.00702366023134,0.0290962964936,0.0257128442274,3.70992016792,-0.92295384407,-0.725394129753,-0.0117733329535,1.75535869598,-0.485890477896
2017/07/09/10:17:51.842887,505651,1499566674,648839468,,0.632176367427,-0.0768691023104,0.0119616824284,0.799860992418,0.58915081813,-0.113676848622,-0.0141873321239,-0.0159813233278,0.00301096407009,0.00193539928011,0.00843615757835,0.0474153160118,0.0337073349007,3.86230540276,-0.996693372726,-0.963671386242,-0.00978048145771,1.76690459251,-0.457317590714
2017/07/09/10:17:51.852452,505652,1499566674,658842607,,0.631828815699,-0.0784709411168,0.012208864503,0.800072697156,0.588832793178,-0.113930494962,-0.0133963898832,-0.0100953648715,0.0174761226717,-0.00685063098915,0.0229379165359,0.0385702209168,0.0190869979211,3.5375790596,-0.853728055954,-0.996020793915,-0.0727397575974,1.64057767391,-0.424203872681
2017/07/09/10:17:51.862217,505653,1499566674,668850043,,0.632710748892,-0.0772560071946,0.0125540366582,0.800049992614,0.588995938655,-0.113239093518,-0.0134425170658,-0.00319312300646,0.0212241798675,-0.0134164518492,0.0246794725612,0.0144409552175,0.00804494793428,3.00814652443,-0.629226148129,-0.882111430168,-0.202703207731,1.477465868,-0.390077620745
2017/07/09/10:17:51.872411,505654,1499566674,678838991,,0.63223547571,-0.0779081915423,0.0120176493737,0.800143571706,0.588801105392,-0.113600856818,-0.0133554587017,0.00598810506353,0.0124876101307,-0.00393457703087,0.0103991797399,-0.00899223005674,0.00353847085123,3.32837772369,-0.869864940643,-1.04698967934,-0.0636563897133,1.57796502113,-0.4223279953
2017/07/09/10:17:51.882698,505655,1499566674,688844309,,0.631952105345,-0.0780040390268,0.0122461858018,0.800115387536,0.588772299264,-0.113930340447,-0.0135064344923,-0.00608813714825,-0.012279878577,0.00123911879353,-0.0181860974988,-0.00342665509704,-0.00467229937829,3.73860573769,-1.03676593304,-1.08042573929,-0.0417855009437,1.76936078072,-0.459212899208
2017/07/09/10:17:51.892552,505656,1499566674,698843821,,0.632060696858,-0.0768645919485,0.0120547356488,0.800100052902,0.588896771002,-0.113311898036,-0.0141743505347,-0.0185379905057,0.0266525091981,-0.0146115552635,0.0249157596697,0.0572442953064,0.0223155166474,3.65177941322,-1.26514112949,-0.983558952808,0.0396802872419,1.70560026169,-0.456487357616
2017/07/09/10:17:51.902404,505657,1499566674,708846321,,0.631771146209,-0.0768908117316,0.0118760702649,0.79990646176,0.589092573443,-0.113631338541,-0.014405250768,-0.0125377991559,0.00607114388547,-0.00404890771839,0.0101433868467,0.0300938797023,0.00511517934858,4.14455270767,-0.923059046268,-1.00308644772,-0.165979474783,1.87027919292,-0.462341159582
2017/07/09/10:17:51.912309,505658,1499566674,718846532,,0.63147177932,-0.0768656070592,0.0117278744252,0.799935189651,0.589003754363,-0.113866295098,-0.014585490914,-0.0079394042791,0.0148697433594,-0.00239412624431,0.0235686892171,0.0254418532768,0.00725399013825,3.7865986824,-1.18964064121,-1.04445850849,-0.0729593858123,1.69942927361,-0.435838490725
2017/07/09/10:17:51.922430,505659,1499566674,728845457,,0.631891826982,-0.0766739220703,0.0118616493363,0.799633023008,0.589438217843,-0.113770213096,-0.0143511140395,-0.0234524547395,-0.00860697607846,-0.00115927494575,0.0235017806529,0.0294697246492,-0.0383795317841,3.8148624897,-1.0157648325,-1.21227514744,-0.139655053616,1.71791267395,-0.440971255302
2017/07/09/10:17:51.932731,505660,1499566674,738845420,,0.631053446547,-0.0771087845566,0.0115503388436,0.799854331218,0.589046071447,-0.114182340774,-0.014838045709,-0.0173296252116,0.00343812099701,-0.0124556980509,0.0282733528779,0.032891932393,-0.0210133295033,4.17335224152,-1.04789197445,-1.4691991806,-0.192569285631,1.85510766506,-0.4301623106
2017/07/09/10:17:51.942572,505661,1499566674,748845152,,0.631802668399,-0.0769623276932,0.0119879266014,0.80001353052,0.588915894891,-0.113804512882,-0.0143161648871,-0.00281529078036,0.0188831775607,-0.0135176222747,0.0178980288464,0.023329441135,0.0179452132848,4.33405780792,-0.664067983627,-1.4401371479,-0.433997273445,1.97804474831,-0.434104382992
2017/07/09/10:17:51.952590,505662,1499566674,758858034,,0.631799749037,-0.0764518589832,0.0116145188503,0.799557566751,0.589547198694,-0.113695636194,-0.0146662972316,0.0161390703583,0.0150331042558,-0.00520691521473,0.01217588002,-0.0230066722512,0.006401790054,3.98425579071,-0.79596722126,-1.23668313026,-0.252191156149,1.84583425522,-0.427074193954
2017/07/09/10:17:51.962457,505663,1499566674,768844010,,0.631645464823,-0.0759100797985,0.0112533099379,0.799727306417,0.589275690282,-0.113869261474,-0.0149728923537,-0.00686745087392,0.0222863401912,-0.0196149256516,0.0200696460029,0.0305968768479,0.0218305287983,4.23604345322,-0.763226151466,-1.56138551235,-0.310524761677,1.96464824677,-0.446652233601
2017/07/09/10:17:51.972355,505664,1499566674,778836965,,0.631672222364,-0.0763703439359,0.0113753255938,0.799716951023,0.589289173844,-0.113901517872,-0.014748290208,-0.00676073044726,0.0166873822825,-0.0263513569562,0.00673918395327,0.0241717125215,0.0258562586659,4.21722221375,-0.55835723877,-1.72043514252,-0.408365130424,1.9643727541,-0.455915093422
2017/07/09/10:17:51.982603,505665,1499566674,788845439,,0.631442122343,-0.0774350044699,0.0112520239945,0.79969316113,0.589289154072,-0.114141861714,-0.0141695567619,-0.00390761384697,0.000290238164783,-0.00582917721248,-0.00182738609028,0.00913422518478,0.0223668080096,4.84538555145,-0.934446930885,-1.70135605335,-0.217539906502,2.23283052444,-0.473544627428
2017/07/09/10:17:51.992382,505666,1499566674,798839407,,0.630806392263,-0.0769451307226,0.0110860293715,0.799994069937,0.588797639748,-0.114450056473,-0.0151000683924,-0.0310151150153,-0.00451826063815,-0.00810034645024,0.00246790649143,0.0621425832077,-0.00235054119708,5.21433925629,-1.17024290562,-2.01759624481,-0.0455357432365,2.3077750206,-0.50577712059
2017/07/09/10:17:52.002301,505667,1499566674,808845560,,0.630405908719,-0.0762881030924,0.0105534061631,0.799669029234,0.589202954746,-0.114520746657,-0.0159474257338,-0.0287545168821,0.000246704481124,-0.0217559206761,0.0202952090999,0.0567274455045,-0.0295037815295,5.62949848175,-1.35344946384,-2.41077709198,-0.0727908313274,2.50464010239,-0.526566505432
2017/07/09/10:17:52.012390,505668,1499566674,818844695,,0.630812919924,-0.0764859215024,0.010682743057,0.799767380861,0.589100012793,-0.114436577139,-0.0154136708971,-0.0153463183303,0.0179730860796,-0.0223934634463,0.049692404065,0.0339334131207,-0.0192089741801,4.99052810669,-0.958839416504,-2.00276303291,-0.248937010765,2.2372379303,-0.503726065159
2017/07/09/10:17:52.022426,505669,1499566674,828864049,,0.630032005103,-0.0766826879014,0.010484293351,0.79991313101,0.588777479348,-0.115026753222,-0.0157768404192,-0.0186278781427,-0.00888600951409,-0.00865621340418,0.00161015396758,0.0316819241777,-0.011895421455,5.29666423798,-1.17107903957,-2.08711647987,-0.143734559417,2.35932826996,-0.512258052826
2017/07/09/10:17:52.032815,505670,1499566674,838836668,,0.630546385806,-0.075861305847,0.0101109433989,0.799512674754,0.58941228211,-0.114521986176,-0.0160424215025,-0.0036395145348,0.0255494022994,-0.022718894368,0.0334719981953,0.0271073154996,0.00251500062186,6.15537166595,-1.41912949085,-2.54140353203,-0.115454904735,2.72482419014,-0.582132041454
2017/07/09/10:17:52.042568,505671,1499566674,848838813,,0.629923362444,-0.0768051706132,0.0100794339596,0.800199940681,0.588476755332,-0.114512676908,-0.0161867289999,-0.0217451861126,0.0212749701899,-0.0310202913529,0.0383696613739,0.0649620910783,0.0163421908992,6.15669488907,-1.28727602959,-2.78630208969,-0.203333377838,2.71957087517,-0.580585420132
2017/07/09/10:17:52.052387,505672,1499566674,858844734,,0.630373635434,-0.0759260822193,0.010004321775,0.799639030186,0.589266369702,-0.114336827605,-0.016421229982,-0.00705738524435,0.0078312962875,-0.0219712382754,0.0264305992559,0.0215577733483,-0.0108723514404,5.94209718704,-1.37289869785,-2.79824233055,-0.0681627318263,2.63205170631,-0.54041159153
2017/07/09/10:17:52.062314,505673,1499566674,868845508,,0.630589928786,-0.0757231827565,0.00978084525675,0.799350317731,0.589598347526,-0.114687471272,-0.0161134127968,-0.000749285836966,0.00444955039768,-0.0179094191911,0.0145384849181,0.00479904403607,0.00581886592592,5.36568069458,-1.10795998573,-2.46513867378,-0.134087324142,2.3938794136,-0.495407938957
2017/07/09/10:17:52.072445,505674,1499566674,878845080,,0.630246095102,-0.0754741151284,0.00913355033225,0.799612877382,0.589242162546,-0.114600910636,-0.0167197931704,0.00568054924099,0.00261528978711,-0.0190464413549,0.00200083000195,0.00200189809847,0.0287590473424,5.10386323929,-0.989145874977,-2.5074429512,-0.251227796078,2.34650540352,-0.495381742716
