time,.header.seq,.header.stamp.secs,.header.stamp.nsecs,.header.frame_id,.pose.position.x,.pose.position.y,.pose.position.z,.pose.orientation.x,.pose.orientation.y,.pose.orientation.z,.pose.orientation.w,.twist.linear.x,.twist.linear.y,.twist.linear.z,.twist.angular.x,.twist.angular.y,.twist.angular.z,.wrench.force.x,.wrench.force.y,.wrench.force.z,.wrench.torque.x,.wrench.torque.y,.wrench.torque.z
2017/07/09/10:20:26.812780,521148,1499566829,619511944,,0.78102904226,0.400683251374,0.167340373292,0.622481967165,0.780004644793,0.0567157643033,0.0298710015879,-0.00359150219234,0.0174719034653,0.00306764106558,-0.00899789363506,-0.0109617388368,0.0420118235152,7.39959526062,1.8483774662,-1.10157704353,-0.730138301849,2.86269426346,-0.0540761947632
2017/07/09/10:20:26.822708,521149,1499566829,629503469,,0.781156464579,0.401457792432,0.167378371066,0.622065703723,0.780303914518,0.0571402046518,0.0299175241658,-0.0134958045328,0.00596403573048,-0.00855359748099,0.00132887279888,0.0252570754611,-0.00046653439251,7.36762428284,1.78465735912,-1.14827644825,-0.705873370171,2.86272478104,-0.041545778513
2017/07/09/10:20:26.832757,521150,1499566829,639516316,,0.780897782057,0.400833606325,0.166997995002,0.622298400319,0.780162169346,0.0566071962305,0.0297878468021,0.00418247513134,-0.00485837205969,0.00104014704389,0.00368213199689,-0.00372057197781,-0.0143753002158,7.26296329498,1.6576513052,-1.13970160484,-0.63971978426,2.78348708153,-0.0267738103867
2017/07/09/10:20:26.843040,521151,1499566829,649505842,,0.781518659302,0.401307879392,0.167909173192,0.622358043184,0.780043143747,0.0573025492318,0.0303245416973,0.00143087059658,-0.0211965502641,-0.00264694135825,0.00162347767091,0.0165943836067,-0.0362531556273,7.13886833191,1.76866984367,-1.1589922905,-0.671178400517,2.74758338928,-0.0136581063271
2017/07/09/10:20:26.852679,521152,1499566829,659507359,,0.781244388358,0.401188319686,0.167374798228,0.621973963294,0.780379917931,0.0569402020374,0.030222277662,-0.00988209867512,0.0185814418062,-0.00427325322137,0.00303485069624,0.0194861350465,0.0302551605437,6.84524011612,1.48963236809,-1.1459454298,-0.571473538876,2.61158490181,-0.0133619606495
2017/07/09/10:20:26.862507,521153,1499566829,669509522,,0.780942727151,0.401512622892,0.167190581563,0.622245774833,0.780183533962,0.0569602940359,0.0296542398482,-0.00353869871518,-0.00416473990803,-0.00607745829518,-0.0050863607977,0.0104930115749,-0.0079026954505,7.158826828,1.59658145905,-1.12426781654,-0.625274777412,2.70969247818,-0.0317014828324
2017/07/09/10:20:26.872764,521154,1499566829,679510539,,0.780845183824,0.400606232746,0.166675958747,0.622252030031,0.780221060272,0.0563110797605,0.0297753342125,-0.0137505934646,0.00349054144682,-0.0122493519364,-0.0113987213386,0.0350969209744,0.00102810123481,7.05948162079,1.62041282654,-1.12813735008,-0.602509438992,2.69040679932,-0.0240450054407
2017/07/09/10:20:26.882782,521155,1499566829,689505429,,0.780442071376,0.401233457093,0.166356940288,0.622494968171,0.780046872613,0.0563520671428,0.0291776568098,-0.00715959499759,-0.00127801313988,0.00162337407394,0.000389380238899,0.0162596089081,0.00163070208368,7.10831689835,1.63197577,-1.09855949879,-0.669372498989,2.68136262894,-0.0493655204773
2017/07/09/10:20:26.892662,521156,1499566829,699511281,,0.780594130022,0.401816827654,0.166713446082,0.621878176824,0.780513825979,0.0565250763962,0.0295062092434,-0.0122236092312,0.00757903305435,-0.00533249535722,0.00261577927758,0.0244212464403,0.0114881730342,7.42559766769,1.7332662344,-1.034075737,-0.676799237728,2.80716466904,-0.0265078619123
2017/07/09/10:20:26.902752,521157,1499566829,709507004,,0.780291031368,0.401003832082,0.166562103772,0.622001806129,0.780458724643,0.0560267550374,0.029307593224,-0.0073878198579,-0.00787579873257,-0.0050713982238,-0.0213679577571,0.0115138862117,0.00502472328891,7.72046613693,1.72664153576,-0.833790540695,-0.676190793514,2.93798542023,-0.0274117216468
2017/07/09/10:20:26.912563,521158,1499566829,719509929,,0.780324694095,0.401008466005,0.166557724,0.621910032535,0.78053472638,0.0558377805926,0.0295904478875,-0.0140692384777,-0.00135137266574,-0.0157331608607,-0.0190182624111,0.0275759880385,0.025298062072,7.73044109344,1.81503224373,-0.838754177094,-0.711171984673,2.9148004055,-0.0748068392277
2017/07/09/10:20:26.922587,521159,1499566829,729510290,,0.779950378746,0.401551767567,0.166372808901,0.622192094648,0.780323058438,0.0560061470254,0.0289176991436,-0.00184980548969,-0.00131007351026,-0.0035389246037,0.0151187364125,0.0133202882611,-0.00307371659137,7.90601301193,1.78007376194,-0.691281437874,-0.659442663193,2.99730348587,0.0028814971447
2017/07/09/10:20:26.932588,521160,1499566829,739511463,,0.780599074356,0.401010237591,0.167054680807,0.622311582721,0.780187234445,0.0562016901658,0.0296233563912,0.00270179279171,-0.00322542140048,-0.000747463963384,-0.00171429623324,0.000595935405447,-0.00154440094314,8.23016643524,1.86302375793,-0.695210516453,-0.649885118008,3.11342859268,-0.0264014750719
2017/07/09/10:20:26.942415,521161,1499566829,749502925,,0.780280618706,0.401143232635,0.166559453022,0.62210559566,0.78037747488,0.055943349772,0.0294273030565,-0.0239641736254,-0.0090946490416,-0.0186178990633,-0.0318651781007,0.0554147414212,0.0144173057286,7.54869031906,1.72810268402,-0.686184406281,-0.58412873745,2.83405613899,0.0062930136919
2017/07/09/10:20:26.952833,521162,1499566829,759505374,,0.780134166878,0.401139061017,0.1666160956,0.622134677578,0.780356505832,0.056006477139,0.0292479277957,0.00428966986392,-0.0245963147773,0.000429530378481,-0.0303541056484,0.000489577800991,-0.0125571672801,8.18946170807,2.01049351692,-0.596970021725,-0.751106142998,3.08360171318,-0.0494018942118
2017/07/09/10:20:26.962566,521163,1499566829,769506845,,0.779831995749,0.401091310572,0.166048723454,0.622101406945,0.780420490972,0.0556199955923,0.028984700072,-0.00856045815025,-0.00538119894319,-0.00630334315549,0.00291850324385,0.0204469669356,-0.0136653132846,7.74687767029,2.01334142685,-0.54508626461,-0.743585944176,2.90071988106,-0.0265400037169
2017/07/09/10:20:26.972422,521164,1499566829,779509213,,0.77986966244,0.400997886555,0.166122081728,0.622227776112,0.780308055296,0.0557485144814,0.0290523081385,0.000542224070612,0.010914943538,-0.00569521931549,0.0120539679199,-0.000364279882006,-0.00364459823437,5.63758420944,1.44400751591,0.0084903948009,-0.50300359726,2.14728116989,-0.0106683075428
2017/07/09/10:20:26.982477,521165,1499566829,789505510,,0.780567686021,0.400664804745,0.166689971993,0.621908886116,0.780504384626,0.0561964249106,0.0297355809915,0.00253460846707,-0.00632426868133,0.00512506696505,-0.00199205258378,-0.0163839206284,0.00243971775156,4.41967153549,1.44329500198,0.670806288719,-0.648033797741,1.7129317522,-0.117837250233
2017/07/09/10:20:26.992681,521166,1499566829,799510615,,0.779776856382,0.400347620887,0.165795875009,0.622251275526,0.780309056952,0.0554057997728,0.0291774415613,0.00221931136631,-0.0186178407655,0.00644562669289,-0.0139090380302,-0.0217790595633,0.0023567455015,4.06030321121,1.16352367401,0.755333602428,-0.492953717709,1.60655844212,-0.0695390179753
2017/07/09/10:20:27.002493,521167,1499566829,809505649,,0.779800344037,0.400539945661,0.166399050497,0.622263893158,0.780287304337,0.055468698484,0.0293699412764,-0.0106137445947,-0.022859021555,-0.00662318536813,-0.0247299436095,0.0146220224923,-0.00439012437792,4.85922765732,1.44253337383,0.701648116112,-0.54361397028,1.94053089619,-0.0765552967787
2017/07/09/10:20:27.012709,521168,1499566829,819503914,,0.779894309372,0.399081959325,0.166132094068,0.622557541541,0.780080587339,0.0549201670273,0.0296674902972,-0.0146024004253,-0.0406448126202,-0.00459273298637,-0.0671135916628,0.027550418173,-0.0169038335605,5.22318983078,1.60801994801,0.428317844868,-0.506840467453,2.0230076313,-0.0433179885149
2017/07/09/10:20:27.022621,521169,1499566829,829503199,,0.779809758925,0.398998267313,0.166187512209,0.62238031909,0.780232127506,0.0547396785286,0.0297343776077,-0.0119685621273,-0.0453344811242,-0.00594830127611,-0.0614518374471,0.0297996816101,-0.0375848653546,5.64399051666,1.79198312759,0.380734145641,-0.528494298458,2.15728616714,-0.0628005638719
2017/07/09/10:20:27.032426,521170,1499566829,839510563,,0.780258476981,0.399049661194,0.166698425018,0.622534336315,0.780069500418,0.0550684842486,0.0301668140246,0.0158330680172,-0.0555414945966,0.0234959164212,-0.0612379970862,-0.0358552005264,-0.0427978895255,5.00371217728,1.71835851669,0.149422675371,-0.348668694496,1.87048757076,-0.00833383202553
2017/07/09/10:20:27.042610,521171,1499566829,849508983,,0.780119653811,0.397621563515,0.166580470738,0.623111782343,0.77964539913,0.054417289955,0.0303894204339,0.000134359498286,-0.050730754034,0.00239998507877,-0.0579319533152,0.00769193654657,-0.0259534560029,4.99063777924,1.7956969738,-0.137253135443,-0.345492422581,1.84593355656,-0.00897469371557
2017/07/09/10:20:27.052420,521172,1499566829,859509609,,0.779884211349,0.397515323532,0.166256935733,0.623077540825,0.779689782849,0.0542798807848,0.0301979334152,-0.00176463798661,-0.0477727377026,0.00411347537747,-0.036151949024,0.00791107797375,-0.0563036319957,5.84126138687,2.259349823,-0.0791736915708,-0.626072049141,2.19346904755,-0.0681398287416
2017/07/09/10:20:27.062724,521173,1499566829,869504432,,0.779843150996,0.397551309134,0.166657060276,0.623176899262,0.779607402133,0.0544080815353,0.0300434923025,-0.00203132845046,-0.0331073537545,-0.00977395307269,-0.0112090717346,0.0172170339061,-0.0391204865932,5.98002767563,2.33829426765,-0.0895488262177,-0.545223712921,2.27761316299,0.0105529725552
2017/07/09/10:20:27.072678,521174,1499566829,879504433,,0.779701558977,0.397722792481,0.166276414885,0.622814085653,0.779911757959,0.0542068210462,0.0300314012466,0.00963822247001,-0.0210905707034,0.00261043245093,0.0118243421461,-0.0112544781805,-0.0537921984074,6.2634935379,2.24427747726,-0.15803489089,-0.498866766691,2.39860773087,0.0201244652271
2017/07/09/10:20:27.082597,521175,1499566829,889506039,,0.780507180107,0.396946558205,0.166981494529,0.623318168206,0.779450443654,0.0547496898188,0.0305604080045,0.018428042112,-0.0462380318501,0.0118918819039,-0.0131434796016,-0.0305108031915,-0.0416998289629,6.54294538498,2.22620606422,-0.336195975542,-0.49683201313,2.44017672539,0.000211343169212
2017/07/09/10:20:27.092709,521176,1499566829,899509717,,0.780678655842,0.396425701355,0.166796228433,0.62365037393,0.779179358479,0.0548745856906,0.0304715976387,0.0139907171483,-0.0575082109318,0.0102669524578,-0.016815045945,-0.0114986572579,-0.0613109288889,5.97594499588,2.00734114647,-0.374611079693,-0.378237366676,2.21736192703,0.0210627987981
2017/07/09/10:20:27.102778,521177,1499566829,909504554,,0.780837774322,0.395720494431,0.166835391079,0.624081339985,0.778831475574,0.0548560861552,0.0305748842718,0.0109908093045,-0.0566952784377,0.00118839357569,-0.00142353136491,-0.00941592720693,-0.0730951951822,6.00264692307,1.92237865925,-0.340892970562,-0.354306101799,2.24764609337,0.0161380320787
2017/07/09/10:20:27.112843,521178,1499566829,919508059,,0.780716909449,0.395173614577,0.166942400885,0.624255132483,0.778701664196,0.0545933703568,0.0308027865584,0.0101749721748,-0.0676703901544,-0.00482927726698,-0.000289500453358,0.00641547066721,-0.10721486194,5.92953491211,1.70651054382,-0.524310708046,-0.2640209198,2.20903873444,0.0518163666129
2017/07/09/10:20:27.122530,521179,1499566829,929522061,,0.780971488944,0.394047414951,0.167080257121,0.624731866707,0.778319468027,0.0545551172897,0.0308648600881,0.0220097136481,-0.0705159235257,0.0202039446991,-0.0040105432076,-0.0323047804101,-0.0908153297873,5.89696025848,1.78594386578,-0.503460049629,-0.301244080067,2.19542813301,0.0437023043633
2017/07/09/10:20:27.132607,521180,1499566829,939509724,,0.781262560724,0.392944896534,0.167328029163,0.625466343994,0.777715206276,0.0546490925328,0.0310545832881,0.0136382970854,-0.0660075729342,0.0127793558638,0.0137309124639,-0.00263244883891,-0.10232936555,6.45346069336,1.91545665264,-0.639101326466,-0.328589648008,2.38898253441,0.0475754141808
2017/07/09/10:20:27.142573,521181,1499566829,949503517,,0.781150627383,0.392551687025,0.166743397503,0.625442730484,0.777758961803,0.0544135981239,0.0308471807271,0.00884164797816,-0.0759349976701,-0.00737531775957,0.00111826031889,0.0127098611863,-0.0994465338665,6.26761817932,1.89931058884,-0.651447296143,-0.322034865618,2.31318759918,0.0747122094035
2017/07/09/10:20:27.152416,521182,1499566829,959507070,,0.781167419784,0.39227310988,0.166747784774,0.626130798864,0.777202914672,0.0546158334137,0.0305444410436,0.0277102368464,-0.0964420852895,-0.000309308998703,-0.0133350349625,-0.0213471953562,-0.128537844487,6.36144256592,1.92603087425,-0.703907728195,-0.35336971283,2.34029364586,0.0362072885036
2017/07/09/10:20:27.162618,521183,1499566829,969503052,,0.781352981434,0.390755233913,0.166902679298,0.626859329141,0.776623027783,0.05445450438,0.0306392091709,0.0214887157288,-0.0949442356136,0.0129018288793,0.00290623912134,-0.00752988193598,-0.137338002024,6.2739815712,1.98125255108,-0.734208345413,-0.429626941681,2.29362559319,0.021263346076
2017/07/09/10:20:27.172696,521184,1499566829,979506660,,0.781929700233,0.39008115383,0.167396196208,0.627618979958,0.775958279815,0.0549525635109,0.0310383592865,0.0120721457548,-0.1167496709,0.00438305549027,-0.00367750018841,0.014666256864,-0.167579207886,6.18560504913,2.00277256966,-0.641391932964,-0.451636254787,2.25920248032,0.012111634016
2017/07/09/10:20:27.182415,521185,1499566829,989506062,,0.781960463855,0.388126265063,0.167037073054,0.627849761296,0.775827561988,0.0539058065286,0.0314711824239,0.0239350254322,-0.13843625397,-0.00940419152295,-0.0356865562086,0.00295074238201,-0.165987387802,6.23990535736,1.79520988464,-0.80999815464,-0.337643265724,2.25362801552,0.0594944432378
2017/07/09/10:20:27.192569,521186,1499566829,999510441,,0.782556057716,0.387494961072,0.167308071205,0.628258561355,0.775442191447,0.0546251111378,0.031570319,0.0385567720448,-0.145480176986,0.00857580026001,-0.0439713951256,-0.0436894549118,-0.157261088879,5.7748913765,1.71481370926,-0.674883365631,-0.254319220781,2.08996105194,0.0893300846219
2017/07/09/10:20:27.202541,521187,1499566830,9511146,,0.782458471345,0.385089678745,0.166837890616,0.628987158957,0.774917364427,0.0536117323062,0.0316861852578,0.0244563154302,-0.139885375329,-0.00276325159328,-0.039694929573,-0.00557812098206,-0.149350529318,6.02364015579,1.87157273293,-0.646760821342,-0.437602341175,2.15576434135,0.0476911365986
2017/07/09/10:20:27.212734,521188,1499566830,19510783,,0.78273374933,0.383195030176,0.166558415052,0.630065773783,0.774059503196,0.0531895621649,0.0319355083975,0.00996546683111,-0.151906427238,-0.0213589182857,-0.0775031794257,0.034580397455,-0.145147297384,6.11037826538,1.82901072502,-0.662065207958,-0.456354141235,2.18497681618,0.0428944453597
2017/07/09/10:20:27.222834,521189,1499566830,29512846,,0.783628068561,0.382119841491,0.167353486981,0.630491129608,0.773629458797,0.0539152261824,0.0327344520809,0.0372931108248,-0.180487883948,-0.00494579845898,-0.0898115987318,-0.0299714153768,-0.188398836296,6.41861820221,1.85819554329,-0.634980797768,-0.474865168333,2.28904938698,0.0297051370144
2017/07/09/10:20:27.232825,521190,1499566830,39508191,,0.783080456594,0.380145661241,0.16665015982,0.631001602802,0.773296965084,0.0527434793183,0.0326635338323,0.039997966881,-0.17782043548,0.0114205523042,-0.0833770231888,-0.0490393088997,-0.183879327561,6.27889299393,1.55218112469,-0.508121609688,-0.308072417974,2.24839186668,0.0873643755913
2017/07/09/10:20:27.242756,521191,1499566830,49508833,,0.783530138695,0.377166336547,0.16681044734,0.63241082127,0.772158340292,0.0523089014248,0.0330428432525,0.0310322028953,-0.222172609474,-0.00967548821011,-0.0933915331974,0.00124155946252,-0.239373224792,6.05598592758,1.41036248207,-0.549874663353,-0.273144066334,2.12277650833,0.0619019791484
2017/07/09/10:20:27.252612,521192,1499566830,59510410,,0.783848544891,0.375680838684,0.166476483177,0.63276159765,0.771885236222,0.0519026032274,0.033347599913,0.0221339284597,-0.236905321961,-0.00568160580677,-0.103228733539,0.0168572815957,-0.256319249765,6.08229446411,1.65260529518,-0.641518354416,-0.402338951826,2.0999712944,0.072468534112
2017/07/09/10:20:27.262691,521193,1499566830,69504511,,0.784357789853,0.373206735555,0.166786836755,0.634053615589,0.770816735546,0.0517703186532,0.0337254631946,0.0268548304698,-0.206535343287,-0.00436863193314,-0.0664055389721,0.0051695317455,-0.230167637549,6.10765218735,1.57689225674,-0.818970739841,-0.31997025013,2.09095144272,0.0801144093275
2017/07/09/10:20:27.272616,521194,1499566830,79504746,,0.784391434382,0.371689403465,0.166541859932,0.634870860891,0.77015512269,0.0515944951615,0.0337355162378,0.0094489500123,-0.195486383892,-0.0109677178413,-0.0559393535385,0.0292776146006,-0.216833202557,6.03814983368,1.59201264381,-0.862560749054,-0.345901250839,1.99442398548,0.0735153108835
2017/07/09/10:20:27.282357,521195,1499566830,89502790,,0.784285433517,0.36917062205,0.166186937416,0.635746113705,0.769481175211,0.0507928795731,0.0338479436435,0.0102907468332,-0.188791379791,0.00286387427608,-0.0625392438699,0.0158806420239,-0.213901235729,6.4168844223,1.55035758018,-0.785455286503,-0.275781571865,2.13111615181,0.09575586766
2017/07/09/10:20:27.292860,521196,1499566830,99507855,,0.784310905979,0.368098784419,0.166583128462,0.636458410746,0.768887580652,0.0507707631619,0.0339839567563,0.0210231551989,-0.213164339037,-0.0027682465409,-0.0591633563596,0.00452645640077,-0.263676745527,6.75550270081,1.57534182072,-0.901565253735,-0.29564422369,2.22042417526,0.0725101977587
2017/07/09/10:20:27.302492,521197,1499566830,109502286,,0.784372890019,0.365473763935,0.166344545318,0.637371633897,0.768166748678,0.0501183144286,0.0341379713433,0.0114972351801,-0.209357554957,-0.0108947817751,-0.0483920138826,0.0378819212571,-0.251880448482,6.61098337173,1.40564417839,-1.11233401299,-0.192487314343,2.13070559502,0.0941259115934
2017/07/09/10:20:27.312866,521198,1499566830,119510191,,0.784615180251,0.364096589947,0.166199979851,0.638553776687,0.767176337881,0.0505211235883,0.0337217577511,0.0173193100472,-0.213846460794,-0.0035649740567,-0.0191468198045,0.0256829297617,-0.279416374692,6.32361507416,1.47985601425,-1.25064349174,-0.217309057713,2.02659249306,0.0623373389244
2017/07/09/10:20:27.322425,521199,1499566830,129516233,,0.785021558305,0.361038198216,0.166396447677,0.639900240269,0.766057752195,0.0501140137702,0.0342313953864,0.0228721916485,-0.221728775017,0.00286525063984,0.00481990995175,0.010935448944,-0.316045115916,6.24178409576,1.31460833549,-1.20757448673,-0.156773760915,2.03606915474,0.0983514487743
2017/07/09/10:20:27.332509,521200,1499566830,139502253,,0.784973243806,0.359336333932,0.166378920098,0.640607366713,0.765478617586,0.0499721900692,0.0341682301584,0.0257562395892,-0.209638615559,-0.00136315445853,0.0167393426471,0.0067696914873,-0.29925891067,6.60626220703,1.51195704937,-1.29807305336,-0.307478159666,2.19133329391,0.0480988509953
2017/07/09/10:20:27.342942,521201,1499566830,149506227,,0.78555115964,0.357472087005,0.166221031592,0.642076720804,0.764229188251,0.0503743085791,0.0339655923311,0.0248974949227,-0.216731331678,-0.00297142812022,-0.0151601517548,0.00216732582604,-0.300210131938,6.34062814713,1.53236556053,-1.2674113512,-0.307886064053,2.06632995605,0.0425213202834
2017/07/09/10:20:27.352653,521202,1499566830,159502261,,0.785566681532,0.355822871681,0.166806753701,0.642605750864,0.763784119014,0.0501798793362,0.0342585494172,0.00515325785658,-0.232781443558,-0.0195152555824,-0.0138442131475,0.0485927294777,-0.310927851317,6.35251235962,1.35034716129,-1.33310580254,-0.166538074613,2.03588724136,0.0975435376167
2017/07/09/10:20:27.362695,521203,1499566830,169511891,,0.785438742029,0.353293651758,0.165869031493,0.644172427684,0.762508079159,0.0498039232444,0.0338065357318,0.0135383277442,-0.24256986505,-0.00620854015841,-0.0181398942864,0.0389832107272,-0.323608052665,5.48556423187,1.0780633688,-1.31552684307,-0.113911852241,1.66418755054,0.0628955513239
2017/07/09/10:20:27.372674,521204,1499566830,179510561,,0.785687793332,0.350356937838,0.165859775203,0.645448963805,0.76144264799,0.0494748983,0.033955314511,0.00863398583082,-0.220128096673,-0.00794101200864,-0.013311461129,0.0334271808507,-0.263960119948,4.92924213409,0.945296823978,-1.19328773022,-0.0274491757154,1.44151222706,0.0725112110376
2017/07/09/10:20:27.382431,521205,1499566830,189503448,,0.785267815949,0.348211822427,0.16543004875,0.64639381435,0.760696366166,0.0488224307503,0.0336518279938,0.00980508532385,-0.253386180126,-0.00743797590445,1.91893553487e-05,0.0317752764372,-0.369846904388,4.80954933167,0.715451896191,-1.01839697361,0.0560693591833,1.41852927208,0.10631339252
2017/07/09/10:20:27.392713,521206,1499566830,199503563,,0.785748487044,0.345613828111,0.165552966627,0.648035857871,0.759285935343,0.048929817662,0.0337678581931,0.0104308171684,-0.253776818828,-0.00049569201805,-0.0108788847166,0.0222124387496,-0.354201566774,5.10134410858,0.838754475117,-1.00913393497,-0.0142890550196,1.49816548824,0.0813169032335
2017/07/09/10:20:27.402717,521207,1499566830,209508584,,0.785298703327,0.342651812929,0.16518029015,0.649353385763,0.75821850033,0.0481312432286,0.0335897243245,0.0072065908361,-0.264659695242,-0.0101570267352,-0.0204164193341,0.0387576739985,-0.358086568247,5.00749969482,0.87389332056,-1.19160091877,0.033287409693,1.43821144104,0.103281602263
2017/07/09/10:20:27.412848,521208,1499566830,219508457,,0.785396928335,0.341086975204,0.165411558837,0.650121859471,0.757560360648,0.0481428124451,0.0335579710796,-0.00782161698255,-0.272328670516,-0.0240322783757,-0.0333952718245,0.0794781666564,-0.353123669365,4.97938776016,1.06028032303,-1.61946320534,-0.119431242347,1.35991215706,0.0456065610051
2017/07/09/10:20:27.422478,521209,1499566830,229503153,,0.784705141671,0.337947142068,0.164818632478,0.652106721258,0.755935817926,0.0472935238113,0.032881390973,-0.0238121461744,-0.264060340202,-0.0200258498892,-0.015038939419,0.104457021914,-0.361844903259,4.9296913147,1.04108154774,-1.73190867901,-0.0430023446679,1.32204830647,0.0763144791126
2017/07/09/10:20:27.432759,521210,1499566830,239508622,,0.785724849532,0.334128547762,0.165651915598,0.653682112666,0.754509556502,0.0474307887575,0.03413714993,-0.00938710634904,-0.315007052738,-0.0134653976547,-0.0327640971856,0.0737793036904,-0.429233699428,4.80141735077,1.07870316505,-1.77268671989,-0.123324997723,1.26091599464,0.0579513758421
2017/07/09/10:20:27.442456,521211,1499566830,249504185,,0.785318029516,0.33187234252,0.165134455186,0.655074363216,0.753354848958,0.0471299267637,0.0333589599893,-0.0128593599013,-0.299454202817,-0.0130204693469,-0.0151737804413,0.0748307661851,-0.409304103188,4.76252317429,0.945671141148,-1.5735822916,0.0136686023325,1.27265810966,0.097220338881
2017/07/09/10:20:27.452615,521212,1499566830,259509916,,0.785012759844,0.32899300251,0.164652756414,0.656613150231,0.752059339997,0.0466486835025,0.0330124278805,-0.0191821572026,-0.304788837513,-0.0323537302339,-0.0190571338762,0.0933836828777,-0.397557495506,4.3672504425,-0.417578458786,-1.35249245167,0.30663895607,1.15042412281,0.133699119091
2017/07/09/10:20:27.462553,521213,1499566830,269504523,,0.784828901286,0.325962291459,0.164885813717,0.658013768986,0.750858243598,0.0462693550953,0.0329988579321,-0.0218885740532,-0.326644690448,-0.0196454664648,-0.027056951759,0.0987404929278,-0.426367095748,3.23186230659,-0.467134535313,-1.37249243259,0.269066631794,0.713293612003,0.0835952535272
2017/07/09/10:20:27.472557,521214,1499566830,279509749,,0.784306131515,0.323608927051,0.164386669998,0.658979402003,0.750070028901,0.0456352766638,0.0325349197741,-0.048216570973,-0.301633556521,-0.0228974504481,-0.0364813644004,0.14470915644,-0.391271294452,2.71488547325,0.154881477356,-1.15398144722,0.0704585984349,0.508362829685,0.0366826914251
2017/07/09/10:20:27.482348,521215,1499566830,289501924,,0.783949443686,0.320814429611,0.163873261452,0.660560069829,0.748730140435,0.0451288892139,0.0320461278426,-0.0423771355311,-0.283182141665,-0.0245584079864,-0.0325114190761,0.126856167356,-0.356099983054,2.14398765564,-0.0592508688569,-1.02509462833,0.0145836751908,0.366819918156,0.0193334855139
2017/07/09/10:20:27.492875,521216,1499566830,299511060,,0.78344052739,0.317000785721,0.163830268128,0.662430362675,0.747135899404,0.0441738132085,0.031978690619,-0.0570214138196,-0.306268825046,-0.0336520466781,-0.0278740186415,0.162431879799,-0.394984198153,2.68765068054,-0.0481252968311,-0.852759301662,-0.0752943307161,0.662921607494,-0.0312369912863
2017/07/09/10:20:27.502526,521217,1499566830,309501775,,0.782684022362,0.312938276359,0.163102806857,0.664352683666,0.745521497793,0.0429928794276,0.0313818475072,-0.0496743401514,-0.326619375475,-0.0199749894971,-0.0552744203556,0.140090414869,-0.408679636914,2.2959215641,-0.613221526146,-0.973307549953,0.172001123428,0.564238965511,0.0404302217066
2017/07/09/10:20:27.512888,521218,1499566830,319505926,,0.782321669067,0.31049675932,0.163594327521,0.665734195545,0.744304289128,0.042725823428,0.0313625585756,-0.0689356181688,-0.348310873623,-0.0321807867353,-0.0698971497804,0.19058281361,-0.43068230381,2.16760897636,-0.339108705521,-1.03272998333,0.105377852917,0.544991254807,0.00449718534946
2017/07/09/10:20:27.522590,521219,1499566830,329504558,,0.781920450788,0.307143319424,0.163273278075,0.666897814009,0.743315063151,0.0418419674318,0.0312933271552,-0.0591754913482,-0.35815548881,-0.0230292939008,-0.0717116101961,0.165502783869,-0.427305166125,2.19330000877,-0.0518243908882,-1.01577031612,0.0534724518657,0.571877121925,-0.0249603576958
2017/07/09/10:20:27.532714,521220,1499566830,339503659,,0.781099064861,0.303972618301,0.163148094571,0.668443460214,0.742005299887,0.0408297544884,0.0307311988726,-0.0580193788195,-0.336586988934,-0.011831581554,-0.065731271271,0.155807286046,-0.398380750676,1.53249061108,-0.300911962986,-1.36512517929,0.184801667929,0.375645786524,-0.0260159447789
2017/07/09/10:20:27.542783,521221,1499566830,349507022,,0.780475924431,0.300859981723,0.162851648749,0.669866438384,0.740782664989,0.0401105207873,0.0301851635913,-0.0634626372351,-0.346243096781,-0.0107372830075,-0.0579074329235,0.168258093506,-0.428423340123,2.07107019424,-0.166433244944,-1.3014523983,0.0591815039515,0.58154886961,-0.0803302451968
2017/07/09/10:20:27.552757,521222,1499566830,359510149,,0.779511060943,0.29724612589,0.162283889994,0.671474512624,0.739418976463,0.0388174658266,0.0295763501601,-0.0721760660754,-0.338283700763,-0.0272803452925,-0.0491743471668,0.190420831172,-0.42059922468,2.73539710045,-0.485194534063,-1.24762094021,0.236883401871,0.877324998379,-0.0134058445692
2017/07/09/10:20:27.562541,521223,1499566830,369506608,,0.778845447359,0.29378776515,0.161820727935,0.67321673404,0.737894449504,0.0379200702754,0.029207510505,-0.066225994254,-0.354783154232,-0.0340489617489,-0.0307369012271,0.185793021917,-0.468538536253,2.64573144913,-0.379556894302,-1.38362145424,0.234919548035,0.902990818024,-0.0121766850352
2017/07/09/10:20:27.572680,521224,1499566830,379507694,,0.778891579805,0.290778244942,0.162451684033,0.674865206665,0.736386167154,0.0379461821972,0.0291967963174,-0.0670769725802,-0.338799775096,-0.0283528414761,-0.034811569014,0.191531974117,-0.440560280429,3.60020923615,1.16533374786,-0.824869275093,-0.777639687061,1.19489240646,-0.271539747715
2017/07/09/10:20:27.582650,521225,1499566830,389507829,,0.778357676867,0.28709518291,0.161629306146,0.676646594417,0.734825509602,0.0368340981965,0.0287072449372,-0.0629755496002,-0.344972691525,-0.0221504745816,-0.0370540873032,0.176913317338,-0.45968187384,3.18399333954,2.36807799339,-1.16781449318,-1.34035027027,0.994196593761,-0.404213249683
2017/07/09/10:20:27.592563,521226,1499566830,399508820,,0.777467903534,0.282965240594,0.161415072385,0.678616558786,0.733071740969,0.0357541872498,0.0284082176201,-0.0501175037452,-0.364725510565,-0.012608458698,-0.0596939730726,0.152631313677,-0.482721099598,1.96300923824,2.02775001526,-0.957896411419,-1.17638099194,0.568846464157,-0.378496527672
2017/07/09/10:20:27.602965,521227,1499566830,409509856,,0.777579917805,0.280375897221,0.161952925924,0.679680432474,0.732084045031,0.0357130161888,0.0284963365695,-0.0606810053307,-0.374659364733,-0.0140042526845,-0.0605890556355,0.169284049715,-0.485476247124,1.25545048714,1.93990159035,-0.532538354397,-0.930412828922,0.256634831429,-0.292742669582
2017/07/09/10:20:27.612673,521228,1499566830,419503168,,0.776819773137,0.276260806297,0.161355338233,0.681511723413,0.730450662561,0.0344956365664,0.0281718205343,-0.0602026519215,-0.364080590538,-0.0146835437049,-0.072101732246,0.157517321879,-0.465407189254,0.473141640425,0.355377316475,-0.238728433847,-0.117522411048,0.0123192183673,-0.169408872724
2017/07/09/10:20:27.622593,521229,1499566830,429501091,,0.776183960465,0.272984020699,0.161336357075,0.683202790109,0.728924230834,0.0336702152389,0.0277440064882,-0.0399018063252,-0.365938765541,0.000476319421528,-0.0838927184598,0.104649714854,-0.432772191722,-0.115035206079,-0.328610777855,0.157734379172,0.288569092751,-0.108558125794,-0.0821090862155
2017/07/09/10:20:27.632645,521230,1499566830,439515849,,0.776046824159,0.269998314637,0.161199017064,0.684576415605,0.727645149214,0.0334711839911,0.0277010444784,-0.0243196981647,-0.354853722788,0.00835980205813,-0.0563694929946,0.0675636410769,-0.442260447028,-0.815778017044,-0.464765280485,0.132684826851,0.447955608368,-0.347884595394,-0.0791234299541
2017/07/09/10:20:27.642434,521231,1499566830,449504779,,0.77615342572,0.266328252916,0.16180143245,0.686306031651,0.726017141839,0.0332225993779,0.0279177285227,-0.0297314362918,-0.340446816124,0.00468626752038,-0.0258524799219,0.0778869992136,-0.464934497835,-0.836655795574,-0.395680785179,0.551218390465,0.285602390766,-0.322031706572,-0.149541720748
2017/07/09/10:20:27.652627,521232,1499566830,459509744,,0.776059334001,0.262874309059,0.161835816627,0.688102290953,0.72432342694,0.0329965763508,0.0279649123091,-0.0373309302343,-0.361787791321,0.000529858089513,-0.000703478766379,0.100121193662,-0.510087727062,-1.34519541264,-0.0569073855877,0.335426211357,0.0813363045454,-0.568354666233,-0.150610119104
2017/07/09/10:20:27.662613,521233,1499566830,469509552,,0.775193338874,0.259728081451,0.161514621599,0.690005601522,0.722567107497,0.0325468839037,0.0270137997846,-0.0264476450265,-0.336366100803,-1.45665551296e-05,0.0117670734008,0.0781812425896,-0.488408778095,-2.23478984833,0.0427511334419,0.0895338058472,-0.0375601127744,-0.893850505352,-0.204994022846
2017/07/09/10:20:27.672462,521234,1499566830,479506729,,0.775190716683,0.257060366594,0.16188216405,0.69109678888,0.721523882576,0.0323189261364,0.0272764052696,-0.0166215486086,-0.33260788714,0.00249973209469,-0.00723335618064,0.0526387334612,-0.471273842803,-3.1357717514,0.476287156343,0.177388325334,-0.182391136885,-1.2390832901,-0.190903365612
2017/07/09/10:20:27.682324,521235,1499566830,489506861,,0.775115276297,0.254192639122,0.161787624482,0.692832958666,0.719867543825,0.0322794582492,0.0270415848034,-0.0172575769637,-0.33370642913,0.0123601798624,-0.0171807056857,0.0443316836042,-0.457355857642,-4.67539548874,0.21989262104,0.194194763899,-0.0732049196959,-1.85481607914,-0.200036898255
2017/07/09/10:20:27.692560,521236,1499566830,499510215,,0.774781386588,0.25036978314,0.161640590832,0.694661844981,0.718124002036,0.0317059299998,0.0271582921038,-0.0144917839877,-0.352402317581,0.00201575172689,-0.0108645344741,0.0381812045188,-0.487814073949,-5.39121770859,-0.348127752542,0.091737061739,0.0515526682138,-2.06527161598,-0.238123625517
2017/07/09/10:20:27.702488,521237,1499566830,509503126,,0.775019410815,0.247401427069,0.161632643267,0.696176296972,0.716648411736,0.0316494570994,0.0274213303219,-0.00140478401491,-0.342559916485,0.00610095568399,-0.0196238583375,0.00180695845786,-0.485529913194,-6.34557104111,-0.161440432072,0.416368067265,0.150444045663,-2.40832829475,-0.161800786853
2017/07/09/10:20:27.712671,521238,1499566830,519509386,,0.774674580736,0.243395140376,0.161656761358,0.697955147299,0.71493546515,0.031256202686,0.0273668197547,-0.00555307208142,-0.321082622716,0.00283860618663,-0.0141268600005,-0.00290927594837,-0.427531067792,-7.11893796921,-0.98345220089,0.750095129013,0.332351893187,-2.63265442848,-0.1346616745
2017/07/09/10:20:27.722426,521239,1499566830,529504085,,0.774654806051,0.241304265826,0.161833742826,0.699419502573,0.713501126074,0.0314249861323,0.0272208148008,-0.0196388122947,-0.330809443137,-0.00580540142137,-0.0123685978026,0.0246591272806,-0.448353964424,-6.90936374664,-0.181288450956,0.869530081749,0.0359912291169,-2.60975193977,-0.194699034095
2017/07/09/10:20:27.732556,521240,1499566830,539507846,,0.774365606069,0.23868659729,0.161196425628,0.700475092817,0.712487296594,0.0310987156014,0.0270067847501,-0.0411907508428,-0.303072399099,-0.011786151581,-0.00821550537587,0.0760923287327,-0.428740845721,-7.50592279434,0.375393986702,0.735302090645,-0.159108549356,-2.90095615387,-0.253673762083
2017/07/09/10:20:27.742595,521241,1499566830,549501555,,0.774578241016,0.235341761731,0.161725135113,0.702154712805,0.710810499824,0.0312593748307,0.0273869332182,-0.00354119134062,-0.316761657564,0.00751465741057,-0.0113553948165,-0.0103234967102,-0.435198229837,-7.50978136063,0.171872109175,1.04071605206,-0.0363429188728,-2.92245984077,-0.222652971745
2017/07/09/10:20:27.752466,521242,1499566830,559501137,,0.773912799036,0.23163784531,0.161365737005,0.70393373402,0.709072414032,0.0307936065051,0.0273013473289,-0.0220640103518,-0.315000119939,-0.00838394167786,-0.00303569651567,0.0299521754812,-0.432351740402,-8.18097019196,-0.718081891537,0.800151228905,0.225901067257,-3.14838957787,-0.152268007398
2017/07/09/10:20:27.762602,521243,1499566830,569508657,,0.773617605464,0.227836808339,0.160896664395,0.705804319922,0.707243092265,0.0301104544496,0.0272182100046,-0.0199520447017,-0.350525767872,-0.00950479135339,0.0036729433104,0.0171397163919,-0.51105859359,-7.74166202545,-0.527847528458,0.743403851986,0.226101443172,-3.07950305939,-0.143181428313
2017/07/09/10:20:27.772681,521244,1499566830,579532722,,0.773635011414,0.224943830834,0.161381265213,0.707185394975,0.705841258449,0.0303528203141,0.0274889305586,-0.0123565400615,-0.345912240299,-0.000904277523001,-0.0277537811271,0.00418669286185,-0.474044002375,-8.15481090546,-0.391227185726,0.993366539478,0.268538475037,-3.19129610062,-0.115179605782
2017/07/09/10:20:27.782525,521245,1499566830,589509000,,0.773282076529,0.222148236592,0.161110183122,0.708581577753,0.704449520541,0.0300679253239,0.0275488755699,-0.0432514284427,-0.351009538402,-0.0263265593184,-0.0448971294821,0.0731171919811,-0.455500864847,-8.68136978149,-0.0444223880768,0.710523962975,0.170488849282,-3.40686631203,-0.176429271698
2017/07/09/10:20:27.792582,521246,1499566830,599505437,,0.773006548205,0.218806607698,0.1603166377,0.709588558725,0.703464314385,0.0294163467357,0.0275084397511,-0.0313108950134,-0.312814061707,-0.0266153288413,-0.0436549838645,0.0518341648309,-0.39780633308,-9.34901332855,0.30029091239,0.708747327328,0.0979647636414,-3.65504145622,-0.135054677725
2017/07/09/10:20:27.802469,521247,1499566830,609504066,,0.772909997507,0.215463194141,0.160225356305,0.711472661045,0.701566487387,0.0291342264519,0.0276100201218,-0.0193626765838,-0.30865360778,-0.0256950852021,-0.0361175715755,0.0240762206591,-0.405048951384,-10.76516819,-0.0596704185009,0.977264285088,0.213992074132,-4.21282815933,-0.118494950235
2017/07/09/10:20:27.812680,521248,1499566830,619506740,,0.773202330412,0.213059276748,0.160561532382,0.712358377681,0.700641463375,0.0291074646745,0.0282813904942,-0.00939338985344,-0.297768552034,-0.0169042828673,-0.0386244561357,0.00340225085231,-0.410275110622,-10.7566633224,0.0602516084909,1.24007594585,0.261355876923,-4.25405216217,-0.060628362
2017/07/09/10:20:27.822454,521249,1499566830,629508256,,0.772317237843,0.209292208192,0.159497145672,0.714123436234,0.698897853728,0.0281923690591,0.0278334008406,-0.012897147909,-0.319414077499,-0.0203397407839,-0.0727447050665,0.0103530164941,-0.403042002491,-12.1278305054,-0.821210503578,1.06276834011,0.445502758026,-4.72101783752,-0.0294575989246
2017/07/09/10:20:27.832639,521250,1499566830,639510536,,0.772262601162,0.206127875772,0.159809071214,0.715308949247,0.697674870656,0.0276758415552,0.0285819834309,-0.0458403114538,-0.334332542664,-0.0422793034392,-0.0925478359329,0.0862634580672,-0.409903559123,-12.0895404816,-0.678771018982,1.16787827015,0.350935101509,-4.82296228409,-0.0597772449255
2017/07/09/10:20:27.842541,521251,1499566830,649503968,,0.771956308074,0.202175378765,0.159546512712,0.716859329654,0.696100570018,0.0266328894739,0.0291099142359,-0.0377833731178,-0.314489697281,-0.0351827945941,-0.102648672248,0.0762763651412,-0.358302792028,-11.6417951584,-0.74638235569,1.2880589962,0.289761960506,-4.71875953674,-0.0756496116519
2017/07/09/10:20:27.852713,521252,1499566830,659505379,,0.771606427415,0.199837139864,0.158615463012,0.717998657218,0.694953739876,0.0261459738001,0.0288724041036,-0.0382262919491,-0.352407151099,-0.039355671257,-0.14135091785,0.0798586504808,-0.394233328339,-12.1439037323,-0.178721666336,0.642414748669,0.0810834169388,-5.01826047897,-0.121803760529
2017/07/09/10:20:27.862459,521253,1499566830,669501976,,0.770651555702,0.197032839764,0.158035852685,0.719059886589,0.693916870275,0.0247937420561,0.0285924290802,-0.0536250120475,-0.351494912669,-0.0556535287666,-0.159252222766,0.127347641526,-0.389406925908,-12.1762123108,-0.158821552992,0.594394505024,0.0957717597485,-5.0762925148,-0.0580990314484
2017/07/09/10:20:27.872497,521254,1499566830,679503736,,0.770621618073,0.193424687644,0.157767889268,0.720126502961,0.69279390737,0.0241429622567,0.0295218396765,-0.0580615858913,-0.340286352661,-0.0650353307018,-0.155547642692,0.131251695743,-0.372377267804,-12.1675395966,0.20226624608,0.256037473679,0.000614255666733,-5.11604833603,-0.067664578557
2017/07/09/10:20:27.882448,521255,1499566830,689502707,,0.770192544367,0.190282432116,0.156903908985,0.721368367946,0.691530203737,0.0234274246056,0.0294076660527,-0.0383087715954,-0.336804145697,-0.0474523879547,-0.175868427426,0.0757537730393,-0.356372124266,-12.3583440781,0.386449337006,0.100466862321,0.018473751843,-5.14398002625,-0.044421210885
2017/07/09/10:20:27.892566,521256,1499566830,699507085,,0.769886890049,0.186688240034,0.156253417515,0.72263201983,0.690219397548,0.0221240584657,0.030177362398,-0.0441283829427,-0.347248848961,-0.0603567088859,-0.186667915077,0.0841089790912,-0.352992279134,-12.8677062988,-0.145536899567,0.461397111416,0.222997307777,-5.37463092804,-0.0139020979404
2017/07/09/10:20:27.902697,521257,1499566830,709508549,,0.769518229017,0.183764305474,0.155729672548,0.723268633,0.68956049324,0.0209836949319,0.0307976497224,-0.037721063108,-0.357193313381,-0.0657840480156,-0.239632115864,0.0830605703202,-0.332963658312,-13.1940793991,0.0612409859896,0.468694597483,0.227917119861,-5.47404575348,-0.00410208106041
2017/07/09/10:20:27.912468,521258,1499566830,719512954,,0.768771758305,0.180164021539,0.154859027926,0.724411753478,0.688381679341,0.0197507969953,0.0311156068414,-0.0448402571392,-0.35547925043,-0.0685491965592,-0.23053204767,0.0917157477552,-0.325116633954,-12.8608388901,0.0468655377626,0.501064240932,0.312715888023,-5.28451871872,0.0362249463797
2017/07/09/10:20:27.922790,521259,1499566830,729504474,,0.768683761965,0.176506945333,0.154694149466,0.725898329311,0.686801903124,0.0187865700477,0.0319660156149,-0.0499966905535,-0.35754294832,-0.0795940390399,-0.260276952961,0.111828664665,-0.318590225866,-13.6184072495,-0.187781363726,0.831918776035,0.263970166445,-5.59638261795,0.0191397070885
2017/07/09/10:20:27.932602,521260,1499566830,739510271,,0.767954824753,0.173760396147,0.153493877424,0.726053934859,0.68666947653,0.0169697519266,0.0322915034777,-0.0489405012903,-0.348370585587,-0.0761233781611,-0.248753844272,0.11053955253,-0.293807368271,-13.8709774017,0.0861584991217,0.864630162716,0.375809013844,-5.67664003372,0.12848764658
2017/07/09/10:20:27.942343,521261,1499566830,749503874,,0.767949048557,0.169958408672,0.153149671095,0.727431464185,0.685182720567,0.0157982430085,0.0334442800517,-0.0453730344098,-0.336558539323,-0.0825415329188,-0.279299528226,0.122750920213,-0.262694021114,-13.7911472321,-0.201703816652,1.00153064728,0.372475475073,-5.70624828339,0.0996220260859
2017/07/09/10:20:27.952632,521262,1499566830,759510368,,0.767325348343,0.166732446032,0.151798619801,0.728159357131,0.684432251744,0.014202779737,0.0336856711926,-0.0461478908126,-0.353165267895,-0.0866532199213,-0.291272687939,0.133069634523,-0.286290582742,-13.6652498245,-0.122415110469,0.727245211601,0.350550293922,-5.70660829544,0.142936602235
2017/07/09/10:20:27.962734,521263,1499566830,769504881,,0.767028618883,0.16309728175,0.151508619028,0.728997411529,0.683517632097,0.012836624643,0.0346647034421,-0.0475773351485,-0.350632584062,-0.0915041184631,-0.30080412117,0.136657692888,-0.273900482881,-12.81245327,0.108979597688,0.285467505455,0.0984698385,-5.41517353058,0.0768388956785
2017/07/09/10:20:27.972567,521264,1499566830,779520114,,0.766974984169,0.159762966384,0.150570689007,0.729674604702,0.682772910004,0.011294690552,0.0356167739164,-0.0416525588314,-0.368597625618,-0.0791851706101,-0.34158029021,0.120666365899,-0.264529948924,-12.4278926849,-0.211197242141,0.395169615746,0.097577534616,-5.34236907959,0.0891558527946
2017/07/09/10:20:27.982682,521265,1499566830,789502965,,0.765487178925,0.156220202514,0.148868073208,0.730177056237,0.682272822262,0.00844108185942,0.0356932862881,-0.0469873282038,-0.374538316762,-0.0851861815844,-0.356427953917,0.13500447741,-0.256582666903,-12.5820760727,0.252631038427,-0.111726939678,0.0682748109102,-5.34334182739,0.173368811607
2017/07/09/10:20:27.992626,521266,1499566830,799509377,,0.765746792672,0.153002080744,0.148822542966,0.731020512724,0.681307375175,0.0072542849626,0.0371031785417,-0.0584383666184,-0.383970466343,-0.101789216605,-0.388568912678,0.179819413943,-0.257524474462,-12.0067825317,0.157029643655,0.275223851204,0.00386471301317,-5.24363565445,0.116086162627
2017/07/09/10:20:28.002403,521267,1499566830,809506564,,0.764828439665,0.14926751638,0.147146046147,0.731309709682,0.680980001134,0.00469745546439,0.0378190493232,-0.0525896598304,-0.37680165592,-0.0981751203306,-0.422258050886,0.175511959224,-0.222492151676,-12.0459470749,0.550053715706,-0.228863149881,0.0674892216921,-5.28526926041,0.175999313593
2017/07/09/10:20:28.012659,521268,1499566830,819510223,,0.764563732407,0.145261276593,0.146406225966,0.732259778822,0.679900278527,0.00275498785119,0.0390338009989,-0.0502891856301,-0.38087126614,-0.102106509539,-0.460056698398,0.179164603513,-0.18390981834,-12.2750883102,0.0186918079853,0.442594915628,0.179778665304,-5.33152580261,0.184395432472
2017/07/09/10:20:28.022399,521269,1499566830,829505024,,0.76400447593,0.14178579355,0.145387072583,0.732533759397,0.679558712494,0.000504434278158,0.0399248439303,-0.0424563870796,-0.380126394895,-0.0955950541478,-0.48370882064,0.172282354093,-0.170571869609,-12.1958732605,0.331874191761,0.24035987258,0.133137464523,-5.2988986969,0.23463755846
2017/07/09/10:20:28.032800,521270,1499566830,839509792,,0.763427385277,0.138206786564,0.144325411129,0.732829533056,0.6791700224,-0.00206370914535,0.041045063763,-0.0349005392962,-0.374094145308,-0.0942872107635,-0.477255592727,0.169848629569,-0.158293762602,-12.2962493896,0.180709958076,0.219276592135,0.132010787725,-5.30930995941,0.265661001205
2017/07/09/10:20:28.042414,521271,1499566830,849505523,,0.763361001605,0.134765524345,0.143515001719,0.733126435299,0.678763048923,-0.00413732798997,0.0422993593288,-0.0480071046416,-0.380618637019,-0.101506237628,-0.49173004157,0.20672570955,-0.157239966362,-12.0241422653,0.717915832996,0.182035252452,-0.142542302608,-5.19206380844,0.222432166338
2017/07/09/10:20:28.052701,521272,1499566830,859508475,,0.762847717218,0.131352361802,0.142464268501,0.733687769258,0.678108449502,-0.00624756049804,0.0428036907687,-0.0427908225717,-0.369735484757,-0.0831970701474,-0.504758748191,0.198305895969,-0.137663640753,-11.8685588837,0.463207006454,-0.12837600708,-0.159205123782,-5.07888031006,0.222006976604
2017/07/09/10:20:28.062377,521273,1499566830,869502725,,0.762793014622,0.128049692951,0.141961926926,0.733969649802,0.677668763496,-0.00858496980606,0.0444960497697,-0.0459946293425,-0.373603737666,-0.0988372872594,-0.507385361994,0.21775786823,-0.139844528115,-10.924738884,0.539399445057,-0.261378079653,-0.127979114652,-4.76053094864,0.202560663223
2017/07/09/10:20:28.073532,521274,1499566830,879518740,,0.76187492563,0.124388947116,0.140783099677,0.733785999265,0.677748032293,-0.0120518455752,0.0455023628435,-0.0607973569922,-0.384430661484,-0.105245386936,-0.526637436113,0.265367936513,-0.158981440124,-10.3967418671,0.463602900505,-0.662818491459,-0.118948869407,-4.50298500061,0.219172894955
2017/07/09/10:20:28.082747,521275,1499566830,889502614,,0.761596295547,0.121143069755,0.139916364281,0.73392256159,0.67749799902,-0.0145114140779,0.0462985288595,-0.0422495997633,-0.361055334769,-0.093310862577,-0.539360530612,0.248347421228,-0.088970477136,-9.76206493378,0.635855913162,-0.412756800652,-0.130462914705,-4.34167385101,0.21344999969
2017/07/09/10:20:28.092660,521276,1499566830,899507721,,0.761316989372,0.117593449848,0.139099610923,0.734354461323,0.676876467199,-0.0170635323247,0.0476509092471,-0.0369555059258,-0.363246893635,-0.0786253399672,-0.549587734646,0.235956454439,-0.0751318025846,-9.70938396454,0.53754991293,-0.354641348124,-0.0777520462871,-4.36072587967,0.283232063055
2017/07/09/10:20:28.102894,521277,1499566830,909509049,,0.760470169705,0.113150098613,0.138031940041,0.734718305862,0.676315558959,-0.0202718260216,0.0487373451348,-0.0546052251669,-0.385603073799,-0.0888894150215,-0.565435291374,0.270768770998,-0.112788487144,-9.70430374146,0.392049759626,-0.618645071983,-0.135271906853,-4.308552742,0.264995455742
2017/07/09/10:20:28.112752,521278,1499566830,919509971,,0.760504860938,0.110472743314,0.137714544863,0.73456922804,0.676315365091,-0.0225681150444,0.0499625493874,-0.0414985103492,-0.367902178908,-0.0813133487588,-0.589799123878,0.261501694467,-0.066318494111,-9.10585975647,0.656975269318,-0.258855342865,-0.123455524445,-4.133893013,0.275501728058
2017/07/09/10:20:28.122459,521279,1499566830,929504445,,0.759846134454,0.106050761288,0.136586235371,0.734686486062,0.675946181108,-0.0262313206583,0.05142417,-0.0590349380102,-0.381089855098,-0.0835641862341,-0.613811814847,0.315054256346,-0.0754945985084,-8.54967403412,0.444779068232,-0.705310881138,-0.189297676086,-3.87764525414,0.278644263744
2017/07/09/10:20:28.132542,521280,1499566830,939510138,,0.759139672843,0.103354413703,0.135964873675,0.734506030494,0.675980362298,-0.0290667768082,0.0520246426337,-0.0730111220415,-0.36290519167,-0.079799187781,-0.594130743437,0.346803822137,-0.0469210909878,-7.90298461914,0.69147592783,-0.587421655655,-0.253311812878,-3.64924764633,0.251280784607
2017/07/09/10:20:28.142462,521281,1499566830,949510983,,0.759181107538,0.101132043537,0.135199486503,0.734291102724,0.676055788092,-0.0311711216591,0.0528536566551,-0.0694568248458,-0.344084426259,-0.0832610297899,-0.550278856356,0.331332802851,-0.0591335967107,-7.06102514267,1.30253911018,-0.307713896036,-0.389589875937,-3.37949299812,0.241111427546
2017/07/09/10:20:28.152572,521282,1499566830,959512065,,0.757554940854,0.0965805065323,0.134711958587,0.735012590526,0.675047915154,-0.0348702033825,0.0533935663738,-0.054674687113,-0.316560378464,-0.0698397443057,-0.536890485062,0.316910133396,-0.0476874489845,-7.09693717957,0.381862133741,-0.307954639196,-0.257427424192,-3.26698946953,0.21937251091
2017/07/09/10:20:28.162438,521283,1499566830,969506034,,0.757432842548,0.0933691993296,0.134330970076,0.734599541292,0.675227579094,-0.0377854255265,0.0548041237681,-0.0623105390017,-0.323849740279,-0.0618459351713,-0.546821081752,0.330977361733,-0.0496008007865,-6.40679883957,0.606589078903,-0.620582222939,-0.275422394276,-3.06599140167,0.210340574384
2017/07/09/10:20:28.172605,521284,1499566830,979502901,,0.757058985018,0.0907792171412,0.13347009111,0.734438738873,0.675200957123,-0.0403038587588,0.0554887854654,-0.0574461255762,-0.322047520855,-0.0648440469307,-0.5445651689,0.325285375456,-0.0294874605611,-6.01188516617,0.778205096722,-1.08453345299,-0.397824704647,-2.88851547241,0.164415955544
2017/07/09/10:20:28.182364,521285,1499566830,989501358,,0.75624157678,0.0882939931246,0.132521828731,0.734167183446,0.67527710591,-0.0434698650003,0.0557651129415,-0.0561699675321,-0.330849257613,-0.0486727993489,-0.574569743057,0.31820795794,-0.0322522650411,-5.65971517563,0.730550646782,-1.21468245983,-0.274139940739,-2.70301651955,0.198269948363
2017/07/09/10:20:28.192412,521286,1499566830,999506338,,0.755916738061,0.0856401128137,0.132348833454,0.734343969838,0.674863746789,-0.0457328523624,0.056624760021,-0.0469616241008,-0.29972572544,-0.0560030679139,-0.539513866624,0.302043991681,-0.0288072044086,-5.08045291901,0.638590216637,-1.00102758408,-0.327565133572,-2.42482662201,0.154928177595
2017/07/09/10:20:28.203788,521287,1499566831,9503618,,0.755073023832,0.0825453616753,0.13162418642,0.733998065659,0.67493721623,-0.0490639017832,0.0574397710477,-0.0458194549269,-0.281794624684,-0.0489470328094,-0.509625324913,0.302926822362,-0.0262510897725,-4.24552202225,0.759786009789,-1.04113888741,-0.319446325302,-2.09861207008,0.142652660608
2017/07/09/10:20:28.212404,521288,1499566831,19507088,,0.754620841566,0.0797934358882,0.131047068692,0.733757939143,0.674909197767,-0.051883821336,0.0583517831465,-0.0518537837669,-0.274453982154,-0.0401035866239,-0.515939949,0.311358486677,-0.00600683782083,-4.47843122482,0.505253076553,-0.752784669399,-0.28600782156,-2.18443369865,0.169383332133
2017/07/09/10:20:28.222544,521289,1499566831,29502204,,0.754228162827,0.0765623413184,0.131380478564,0.733931335267,0.674394014814,-0.054738853415,0.0595076954954,-0.0629125957034,-0.283962051663,-0.0340634584829,-0.514794259996,0.341038583963,-0.0187830940751,-4.81775474548,0.326675355434,-0.231948584318,-0.380031108856,-2.31865096092,0.125975131989
2017/07/09/10:20:28.232667,521290,1499566831,39511418,,0.753364330118,0.0746179160186,0.130569869411,0.73350152815,0.674624119296,-0.0576020677946,0.0594962826696,-0.0484594005442,-0.302227173289,-0.0148532007214,-0.529134188824,0.291647683222,-0.0739029820964,-5.38779115677,0.950491786003,-0.43669000268,-0.391947329044,-2.49905014038,0.215367823839
2017/07/09/10:20:28.242346,521291,1499566831,49502273,,0.752971837207,0.0714028341733,0.130595906066,0.733418386322,0.6743615895,-0.0604035249976,0.0607069302432,-0.041626442178,-0.268839749766,-0.0224523790679,-0.509709577187,0.296696698398,-0.0204858254738,-5.12774372101,0.307450413704,-0.669851958752,-0.233414113522,-2.36724948883,0.254488587379
2017/07/09/10:20:28.252563,521292,1499566831,59505561,,0.75301417471,0.0695371857337,0.130578920761,0.73322117482,0.67431443061,-0.0624374228413,0.0615493760767,-0.0450867484771,-0.27564726214,-0.017123571069,-0.507282600776,0.286491274578,-0.0346069242288,-3.83270168304,0.777043640614,-0.832935333252,-0.413571894169,-1.928175807,0.152078330517
2017/07/09/10:20:28.262621,521293,1499566831,69541253,,0.752226915278,0.066511493355,0.130187155361,0.732997500999,0.6742122773,-0.0653703678767,0.0622830929717,-0.0468163768103,-0.283782881871,-0.0125255644888,-0.520874394033,0.288605146317,-0.0464730953107,-3.23563051224,0.337539792061,-0.805084645748,-0.257781684399,-1.65740942955,0.138818889856
2017/07/09/10:20:28.272679,521294,1499566831,79502629,,0.751861959725,0.0643568564649,0.130185311372,0.733094914763,0.673791920186,-0.0680307451309,0.0628340031942,-0.040536060964,-0.28180153082,-0.0147041556283,-0.520846455443,0.284010614725,-0.0182735824879,-2.05818629265,1.2703461647,-1.23153805733,-0.448076426983,-1.28866755962,0.0441382229328
2017/07/09/10:20:28.283035,521295,1499566831,89504373,,0.752333769154,0.061673992082,0.130899117273,0.732801321012,0.673732358523,-0.0700439798441,0.0646589041862,-0.0386479654964,-0.262456562348,-0.000790552171736,-0.488831694821,0.279856579942,-0.0373850924618,-1.81292307377,0.798531293869,-0.621675372124,-0.257523864508,-1.26993954182,0.0865344703197
2017/07/09/10:20:28.292581,521296,1499566831,99511438,,0.751372884813,0.0589775968418,0.130112603128,0.732800131822,0.673397976001,-0.0730189661598,0.0648641911976,-0.0324619309791,-0.255807367237,0.00507889576884,-0.469566938534,0.257496035856,-0.044274325839,-2.68685770035,0.664320588112,-1.48634386063,-0.306625902653,-1.59087789059,0.162035793066
2017/07/09/10:20:28.302642,521297,1499566831,109502594,,0.751656231115,0.0571027151085,0.130538462416,0.73251005378,0.673414094176,-0.0747508933585,0.0659907782846,-0.025534775175,-0.257463930469,0.0131930403023,-0.463959403291,0.234319424621,-0.0530766934977,-2.4769487381,0.869814634323,-1.20636284351,-0.466457128525,-1.53521978855,0.107019118965
2017/07/09/10:20:28.312750,521298,1499566831,119505779,,0.75096266324,0.0547642625669,0.130554674246,0.73241271251,0.673192013968,-0.0772710880752,0.0664327466804,-0.0179426026295,-0.258091134687,0.00923078426202,-0.462537529419,0.215029573819,-0.0576516704972,-1.81157493591,1.37635982037,-1.18277156353,-0.622805953026,-1.26806950569,0.0887085571885
2017/07/09/10:20:28.322450,521299,1499566831,129505419,,0.750719481239,0.0525134858961,0.130849333564,0.732717374089,0.672552243684,-0.0793765876995,0.0670677757848,-0.00942998100566,-0.247102005392,0.0297853087034,-0.439143520942,0.186177660805,-0.0635458517666,-2.81573390961,0.93031591177,-1.27037036419,-0.507892727852,-1.55300056934,0.142594575882
2017/07/09/10:20:28.332568,521300,1499566831,139507256,,0.751058718724,0.0497879292133,0.131252336889,0.732657456455,0.672269559284,-0.0811131499942,0.0684642100534,-0.012806300265,-0.256092838146,0.0250023514921,-0.443208382672,0.188309035383,-0.0714424712677,-2.39943766594,0.90184879303,-1.3817101717,-0.493445634842,-1.42351078987,0.140873149037
2017/07/09/10:20:28.342499,521301,1499566831,149507833,,0.750918463399,0.0474312444261,0.131285371336,0.73328461231,0.671326408262,-0.0827914852333,0.0689934844158,-0.0252227395863,-0.228395216413,0.0131322809099,-0.391868247947,0.219537137498,-0.0648996583233,-2.01708579063,0.610917508602,-1.2777993679,-0.453030198812,-1.34842777252,0.14771720767
2017/07/09/10:20:28.352520,521302,1499566831,159503812,,0.750872989045,0.0459307153715,0.131183794992,0.733092027952,0.671312170693,-0.0842463582505,0.0694161303658,-0.0157130719003,-0.209598120634,0.00878382717521,-0.344382059425,0.193887975736,-0.0847217557438,-1.53223156929,0.833414256573,-1.63470768929,-0.389114528894,-1.15355873108,0.15448859334
2017/07/09/10:20:28.362513,521303,1499566831,169509175,,0.751135670216,0.0441460873,0.131397462732,0.732986883621,0.671149650019,-0.0858303650853,0.0701535754489,-0.0126503525808,-0.217633049988,0.0261526672043,-0.356805245763,0.170914683193,-0.0962765044192,-1.31923055649,0.968676924706,-1.06733298302,-0.450343370438,-1.19193315506,0.120668210089
2017/07/09/10:20:28.372712,521304,1499566831,179510887,,0.750027423008,0.0416201523959,0.131671166351,0.733651001981,0.670110830188,-0.0881708150735,0.070239518264,-0.0178252150901,-0.219672418816,0.0264774697541,-0.334469511834,0.174355726751,-0.127973069728,-1.60046887398,0.902143955231,-1.38841187954,-0.417120218277,-1.14175975323,0.125031605363
2017/07/09/10:20:28.382821,521305,1499566831,189505776,,0.749715922138,0.0394545968863,0.131669060537,0.734001888509,0.669430502908,-0.0901161816808,0.0705910988793,-0.0353500246247,-0.208713358648,0.0221252300426,-0.283133525326,0.207035436016,-0.156269107387,-1.78516411781,0.807874917984,-1.5901081562,-0.397183179855,-1.22309505939,0.152906268835
2017/07/09/10:20:28.392549,521306,1499566831,199501241,,0.749334426808,0.0384625109732,0.132022628648,0.734307613324,0.668986163626,-0.0912049071344,0.0702246880121,-0.0556839419838,-0.196469533962,0.0122144586608,-0.248496431472,0.230436109941,-0.209458791795,-1.56420207024,1.2106705904,-1.64862585068,-0.514995157719,-1.17041671276,0.141255542636
2017/07/09/10:20:28.402385,521307,1499566831,209503621,,0.74883508186,0.0366927905355,0.132191570687,0.7347509707,0.668337350291,-0.0925203117917,0.0700441943893,-0.0499629167439,-0.171752626068,0.014919696078,-0.20839350595,0.227222383543,-0.197870742928,-1.32987630367,0.610531747341,-1.39864730835,-0.329250752926,-1.04138576984,0.136816769838
2017/07/09/10:20:28.412481,521308,1499566831,219510655,,0.748546166893,0.0349359614828,0.132466541646,0.735397251523,0.667465823486,-0.0935624219547,0.0701878203747,-0.041538927518,-0.153759075778,0.0150490141803,-0.137497527124,0.189874113885,-0.214895119017,-0.815584361553,0.921005547047,-1.12576770782,-0.368429303169,-0.929040849209,0.0968697816133
2017/07/09/10:20:28.422549,521309,1499566831,229502510,,0.747636120179,0.033077592118,0.132104722327,0.736398180798,0.666242570233,-0.0950212923262,0.0693506375659,-0.0484721089004,-0.16567455219,0.00989314625294,-0.0952001341401,0.183325131092,-0.267751482774,-0.835965275764,0.525420188904,-1.56583786011,-0.273837715387,-0.840093970299,0.0738207623363
2017/07/09/10:20:28.432696,521310,1499566831,239510275,,0.747490811004,0.0322482836585,0.132796122473,0.737075585515,0.665481918546,-0.0954139559413,0.0689171556053,-0.0550636991691,-0.141505649104,0.00366469043381,-0.0484421578707,0.211565436245,-0.239139474824,-0.491516917944,0.771568775177,-1.22626686096,-0.333417952061,-0.714555561543,0.0189820453525
2017/07/09/10:20:28.442841,521311,1499566831,249507640,,0.746472388253,0.0309285204232,0.132266661008,0.738004410174,0.664456001231,-0.0963991325053,0.0674901492454,-0.0633765685912,-0.125031734206,0.00713135406576,-0.0174906901883,0.224304534207,-0.272572772845,-0.584126532078,0.599051833153,-1.23212349415,-0.582556962967,-0.722704529762,0.020616710186
2017/07/09/10:20:28.452761,521312,1499566831,259510426,,0.7460489535,0.0296841494119,0.132325250554,0.738851658099,0.66347462309,-0.0971710093943,0.066764112906,-0.0525354720256,-0.11561882962,0.000400264868441,-0.016025994672,0.211163891474,-0.278794579229,0.0275366678834,-0.093544781208,-1.04270756245,-0.585487902164,-0.494942724705,0.0171449333429
2017/07/09/10:20:28.462832,521313,1499566831,269511478,,0.746021133583,0.0289590348459,0.132670350386,0.739266452349,0.662906019287,-0.0979388304249,0.0666986320714,-0.0487639848595,-0.156836650495,0.0135513494695,-0.0495026524268,0.180086317769,-0.284144713727,0.137714028358,0.862954854965,-0.769541144371,-0.779261112213,-0.491233378649,0.0251733660698
2017/07/09/10:20:28.472537,521314,1499566831,279506994,,0.745036914228,0.0267416301948,0.133344829443,0.740373037271,0.661517260845,-0.0992581819364,0.0662607923648,-0.0532389629968,-0.164428338716,0.0244710463566,-0.0795880791986,0.171590152708,-0.291536779303,-0.462032347918,0.387692570686,-0.641938626766,-0.689606904984,-0.629829823971,0.038375787437
2017/07/09/10:20:28.482841,521315,1499566831,289505665,,0.744617100434,0.0254491735777,0.133549615878,0.740539040497,0.661149106378,-0.100686373641,0.0659245234988,-0.0887175344573,-0.163166560659,0.0207810216704,-0.103547632148,0.27333763021,-0.269268905516,-0.656742751598,0.665275931358,-0.992807209492,-0.673284888268,-0.770095944405,0.0419370830059
2017/07/09/10:20:28.492630,521316,1499566831,299501945,,0.743395895327,0.0242878507522,0.132886216793,0.741324030691,0.660199909803,-0.102015561659,0.0645568415831,-0.0922225243331,-0.160656032279,0.017844639763,-0.0996867279457,0.282595053893,-0.257206879718,-0.57869386673,0.721278131008,-1.50440573692,-0.580726861954,-0.721420884132,0.0395589694381
2017/07/09/10:20:28.502878,521317,1499566831,309508049,,0.742531441184,0.0231762300919,0.132808183614,0.742050486915,0.659317624787,-0.103050409486,0.0635763919901,-0.0806743090357,-0.148539324184,0.0169177369612,-0.0553833444364,0.242298825069,-0.275102397639,0.339540362358,0.859096050262,-1.22177243233,-0.450573921204,-0.451969087124,-0.0443770438433
2017/07/09/10:20:28.512568,521318,1499566831,319504206,,0.741481519397,0.0203560301462,0.133173878311,0.743621964548,0.657422446687,-0.104165160259,0.0630215821956,-0.0684358886126,-0.15410835977,0.0144073943766,-0.0332005369478,0.198993734198,-0.316159350278,0.295294433832,0.287646651268,-1.10187375546,-0.334582179785,-0.395554423332,-0.055384658277
2017/07/09/10:20:28.522358,521319,1499566831,329502704,,0.74120722855,0.0195190663218,0.132990045888,0.744393371628,0.65658364144,-0.104382206365,0.0622959474131,-0.0732265234262,-0.138481313483,0.00788029646173,0.00990982872537,0.191813261127,-0.333284488643,-0.228890001774,0.587505698204,-1.15407884121,-0.369541347027,-0.615856349468,-0.00860377401114
2017/07/09/10:20:28.532473,521320,1499566831,339509344,,0.740414380887,0.0183575891174,0.133172141414,0.745048123978,0.655790607542,-0.105225973222,0.0613959817677,-0.0736981996176,-0.147150184919,0.00603601772588,0.0250351018978,0.177157876006,-0.344614875219,-0.692612111568,1.3907045126,-0.715341329575,-0.562818408012,-0.778971910477,0.0319023951888
2017/07/09/10:20:28.542628,521321,1499566831,349502449,,0.740308627256,0.016462166456,0.133652553108,0.746465146765,0.654135027862,-0.10550927718,0.0613591266067,-0.0592228072868,-0.131691797383,0.0163446897241,0.0103074612514,0.153249796186,-0.289320722855,-1.09663939476,0.45947676897,-0.324318230152,-0.468963563442,-0.883889555931,0.0497297048569
2017/07/09/10:20:28.552457,521322,1499566831,359515728,,0.739474308838,0.0155446710955,0.133523237749,0.747178239092,0.653309822263,-0.106165926939,0.0603303498913,-0.0699514384873,-0.137669057535,0.00361245300322,0.0365385445012,0.169363578406,-0.318828634212,-1.01091444492,0.879208683968,-0.561598420143,-0.574695467949,-0.777612328529,-0.00595459342003
2017/07/09/10:20:28.562438,521323,1499566831,369504807,,0.738593311961,0.0147725052252,0.133610720534,0.747535069894,0.652886036323,-0.106889825292,0.0592090204404,-0.0715532131877,-0.153456560653,0.000790310022555,0.0324646813172,0.155836383237,-0.323232755587,-0.176152989268,0.967698454857,-0.602321147919,-0.447839051485,-0.475556492805,-0.0537144467235
2017/07/09/10:20:28.572625,521324,1499566831,379503487,,0.738192793623,0.0123334929689,0.134228960523,0.74925779945,0.65090661368,-0.106996860817,0.0590339055668,-0.0749113201008,-0.158588611797,0.00275942728582,0.0340635736323,0.149588038938,-0.360154560001,0.0871228724718,0.0563822984695,-0.684943318367,-0.329545557499,-0.356776356697,-0.0984085053205
2017/07/09/10:20:28.582421,521325,1499566831,389512536,,0.737178702758,0.011940449873,0.133322653988,0.749965399805,0.650113960286,-0.107746671339,0.0573967991408,-0.0714645158988,-0.125170471042,-0.00750555324517,0.0687736905752,0.155363816797,-0.331736114873,0.0166369825602,0.680765807629,-1.07431149483,-0.405402898788,-0.357024669647,-0.0550135299563
2017/07/09/10:20:28.592694,521326,1499566831,399518800,,0.736552769362,0.0105932749222,0.133340533188,0.750617700709,0.64930437873,-0.108408660327,0.0567842716851,-0.0900121675156,-0.137310835792,-0.00357701723557,0.0610507913113,0.195682395439,-0.341292417801,-0.19650554657,1.01106572151,-1.15161633492,-0.588015079498,-0.511817932129,-0.0340136513114
2017/07/09/10:20:28.602364,521327,1499566831,409508640,,0.734997055569,0.00821080697093,0.133216212979,0.751983356823,0.64764282516,-0.109482680068,0.0556178464644,-0.113453794215,-0.163459204781,-0.0151742946784,0.0312391621438,0.238980549718,-0.349107304141,-1.21451532841,0.29179751873,-0.838920116425,-0.5111541152,-0.821776807308,0.00562695413828
2017/07/09/10:20:28.612607,521328,1499566831,419515664,,0.734478668237,0.00783379826444,0.132890834511,0.7526667876,0.646915275419,-0.109681872302,0.0544354678714,-0.110184373387,-0.144693312875,-0.0141820551377,0.0502593866137,0.23609979864,-0.337050344478,-1.35638058186,1.01595962048,-0.793238699436,-0.689804553986,-1.01061058044,0.0786308944225
2017/07/09/10:20:28.622552,521329,1499566831,429509169,,0.733279251119,0.00575479559481,0.133297324632,0.753393357057,0.6459514285,-0.110724933046,0.0537139717658,-0.107523941513,-0.134987188883,-0.0160603695073,0.0553487419011,0.223853746762,-0.33347470883,-0.926548659801,0.481312274933,-0.334860950708,-0.542662203312,-0.832682728767,0.0431089475751
2017/07/09/10:20:28.632810,521330,1499566831,439506350,,0.731931093839,0.0051984577814,0.132575123166,0.75460367113,0.644595577973,-0.111261398586,0.0518723583298,-0.128846920643,-0.130273915129,-0.0204906365666,0.0691501179909,0.275188415708,-0.321809119071,-0.591664910316,1.30170941353,-0.713783383369,-0.799483895302,-0.812118470669,0.0237930864096
2017/07/09/10:20:28.642742,521331,1499566831,449516323,,0.730279313316,0.00391997510469,0.132364338855,0.755351650927,0.643617762456,-0.112566077889,0.0502885414644,-0.123898114937,-0.13993545877,-0.0139849868666,0.0753040310252,0.24647706088,-0.341122574228,-1.1000790596,0.968363404274,-0.791655302048,-0.70001488924,-0.976222872734,0.0830603688955
2017/07/09/10:20:28.652697,521332,1499566831,459510633,,0.729273876989,0.00206499146718,0.132508620903,0.7564950403,0.642280489174,-0.112897390341,0.0494490291185,-0.126349802104,-0.135184089588,-0.0247922512761,0.0807956083787,0.25488643261,-0.322889905754,0.380883216858,0.286017686129,-1.01401758194,-0.642096936703,-0.346626996994,-0.109686583281
2017/07/09/10:20:28.662661,521333,1499566831,469505097,,0.728245424267,0.00108801608552,0.131610815075,0.757160729563,0.641481977711,-0.113530581574,0.0481592039664,-0.119669043827,-0.135903434985,-0.0306886255452,0.0783663800892,0.226797119132,-0.317190957973,0.0713475495577,0.40584012866,-1.22825407982,-0.622362732887,-0.365835875273,-0.0714547485113
2017/07/09/10:20:28.672728,521334,1499566831,479507238,,0.726800598622,0.000280162317264,0.131090760595,0.757994472684,0.640464691272,-0.114373846345,0.0465615923904,-0.121476453997,-0.15828794564,-0.0373399470782,0.0694241418137,0.20863620355,-0.353164887041,0.434936881065,0.86478471756,-1.32573246956,-0.702901601791,-0.162919551134,-0.121807768941
2017/07/09/10:20:28.682509,521335,1499566831,489504111,,0.725534904914,-0.00238904883536,0.130819422912,0.759120330788,0.638990667184,-0.115380344069,0.0459850719127,-0.122792941529,-0.138328327681,-0.0474742131794,0.0686217082533,0.232383479919,-0.30423750249,-0.191475734115,0.0786127001047,-0.525824904442,-0.547623515129,-0.331458240747,-0.111289940774
2017/07/09/10:20:28.692677,521336,1499566831,499509882,,0.724728940191,-0.00264778952488,0.130428825759,0.759460350217,0.638603124596,-0.115729435064,0.0448633877982,-0.130802085401,-0.156687903456,-0.0393507523855,0.041412637763,0.243385854283,-0.303560647484,0.102103620768,1.13445210457,-0.472981780767,-0.764408230782,-0.217222139239,-0.141429007053
2017/07/09/10:20:28.702418,521337,1499566831,509504437,,0.723696098836,-0.00543187515155,0.130535899485,0.761057563186,0.636597103692,-0.116390671146,0.0445951203383,-0.115605410605,-0.15331949692,-0.0358732240752,0.0104498186945,0.21329209253,-0.282928890583,-0.100718319416,0.392183929682,-0.0107552409172,-0.601851642132,-0.284905612469,-0.161074236035
2017/07/09/10:20:28.712814,521338,1499566831,519523201,,0.722641606167,-0.00677864834742,0.130145453776,0.761575134703,0.635896171236,-0.117129425814,0.0438186172525,-0.109564227827,-0.143814164045,-0.0335577001228,0.0399841070728,0.198175485102,-0.272863335254,-0.650651752949,0.459266722202,-0.292972654104,-0.628063380718,-0.457497656345,-0.11831356585
2017/07/09/10:20:28.722580,521339,1499566831,529502226,,0.721473738055,-0.00871113354828,0.129963881755,0.762186352342,0.635008881811,-0.118162385337,0.0432820403333,-0.12876822707,-0.147612451914,-0.0491595750744,0.0281319005383,0.240367365589,-0.286103099434,-0.247199416161,0.337233155966,-0.227334499359,-0.548272848129,-0.336342692375,-0.166744291782
2017/07/09/10:20:28.732614,521340,1499566831,539509227,,0.720143166976,-0.0102165824439,0.129027873253,0.763026731209,0.633951925604,-0.118913110282,0.041890758976,-0.104642555392,-0.159345245053,-0.0293802384336,0.010765997282,0.175449741378,-0.299599044635,-0.131516575813,0.508554935455,-0.935677111149,-0.576721966267,-0.235310316086,-0.190612047911
2017/07/09/10:20:28.742839,521341,1499566831,549505647,,0.719482032438,-0.0112577025451,0.128542391987,0.76357079152,0.633227016231,-0.119465257423,0.0413671913669,-0.114807141393,-0.170589084896,-0.0466099009817,0.0205933591798,0.18683941383,-0.307120967643,-0.0556192547083,0.908252120018,-1.22070908546,-0.596758246422,-0.244204699993,-0.186887562275
2017/07/09/10:20:28.752386,521342,1499566831,559507857,,0.718529678584,-0.0126618299946,0.127833393682,0.7647849198,0.631883176723,-0.119236053949,0.0401302985216,-0.102947040096,-0.156742404467,-0.0545319193523,0.0512823729371,0.15893149094,-0.301726691125,-0.368279635906,0.482932925224,-0.993918597698,-0.531896948814,-0.33873334527,-0.154178395867
2017/07/09/10:20:28.762770,521343,1499566831,569507794,,0.717214789146,-0.0141014337844,0.127443067357,0.764892086651,0.631532947538,-0.120620235062,0.0394587233254,-0.115589625926,-0.163294775831,-0.0683720046928,0.0580827599357,0.176113720535,-0.295262093554,-0.885632395744,0.66284507513,-0.582379221916,-0.623445212841,-0.515805244446,-0.122276991606
2017/07/09/10:20:28.772649,521344,1499566831,579509078,,0.716533642844,-0.0154833143591,0.126466328604,0.76608436664,0.630179852591,-0.120439584201,0.038501988738,-0.0960466792379,-0.153834461657,-0.0659533763819,0.0665339592233,0.13266274169,-0.274025873011,-0.689413368702,0.947907090187,-0.671609461308,-0.675010442734,-0.460430860519,-0.129368364811
2017/07/09/10:20:28.782526,521345,1499566831,589503355,,0.71566385055,-0.0166776940648,0.125638109842,0.767105121608,0.628973514022,-0.120544558414,0.0375640852346,-0.0793731581572,-0.155263607681,-0.0592139435357,0.0709933714575,0.0866671437478,-0.283696474596,-1.35783433914,1.30873250961,-0.523826599121,-0.773348212242,-0.73798418045,-0.0392265617847
2017/07/09/10:20:28.792505,521346,1499566831,599501765,,0.714610492883,-0.0189000706159,0.125172427365,0.767996545753,0.627878734181,-0.12076822872,0.0369409773326,-0.0904985781723,-0.158778796508,-0.0702904069169,0.0645648553083,0.104245930578,-0.319162148383,-1.48500776291,0.221669197083,-0.516160726547,-0.531291246414,-0.741799294949,-0.0635753124952
2017/07/09/10:20:28.802632,521347,1499566831,609504801,,0.71427063898,-0.0201608871117,0.124669186971,0.768755946419,0.626977471551,-0.120677146276,0.0367501208132,-0.0964669293997,-0.157380550109,-0.0990648912926,0.0672723732033,0.12470475408,-0.299592105998,-0.470251739025,0.769439697266,-0.44416898489,-0.525615334511,-0.464351981878,-0.107197314501
2017/07/09/10:20:28.812604,521348,1499566831,619510449,,0.712529754512,-0.0222657201513,0.123338205832,0.769575786432,0.625772684852,-0.12200261437,0.0357353874761,-0.0690685132409,-0.136879901238,-0.0810242811904,0.0686586552148,0.0611861101092,-0.248634915885,-1.55861890316,-0.297905802727,-0.773959338665,-0.32820892334,-0.73072963953,-0.0486579686403
2017/07/09/10:20:28.822743,521349,1499566831,629504619,,0.712796907518,-0.0230086183068,0.122964845811,0.770468697419,0.624876441118,-0.121015485739,0.0355340941233,-0.0830221355361,-0.170653650127,-0.0847053169154,0.0444618777634,0.0793082438067,-0.279088201166,-0.535207629204,0.431580543518,-0.596774637699,-0.466577172279,-0.448885828257,-0.0967145115137
2017/07/09/10:20:28.832644,521350,1499566831,639510384,,0.711666462776,-0.0248138240761,0.121431168203,0.771028033124,0.624109433177,-0.121657839641,0.0346779124402,-0.0960211422547,-0.161196391385,-0.102337626033,0.0572316935561,0.120651610091,-0.263093267089,-1.40782082081,0.642686367035,-0.95941901207,-0.674895524979,-0.709054946899,-0.0676284581423
2017/07/09/10:20:28.842834,521351,1499566831,649503083,,0.710632046111,-0.0261465013119,0.120467368678,0.771483429474,0.623549086399,-0.121907804576,0.0337393254389,-0.100101578117,-0.163731541701,-0.102299471299,0.0658279197843,0.121971786639,-0.271199541672,-1.86622059345,1.10607504845,-1.15961420536,-0.816776096821,-0.894147992134,0.00317989289761
2017/07/09/10:20:28.852331,521352,1499566831,659508067,,0.709564656572,-0.0272778604596,0.119667544124,0.77228055354,0.622567954328,-0.12215924405,0.0326956872034,-0.0854459565921,-0.149654695689,-0.0929781262359,0.0732305282686,0.0853315117173,-0.274708395207,-1.06522941589,1.0256550312,-1.01932299137,-0.736158907413,-0.550367951393,-0.0747523158789
2017/07/09/10:20:28.864273,521353,1499566831,669502444,,0.708339214408,-0.0300188573768,0.118379596817,0.773453581597,0.621000542725,-0.122829805392,0.0322602225345,-0.107406425196,-0.164028266953,-0.115895528663,0.0848887528446,0.117279609779,-0.298519728464,-0.304478883743,0.626727640629,-0.955966234207,-0.662128686905,-0.271027028561,-0.170038089156
2017/07/09/10:20:28.872407,521354,1499566831,679502663,,0.707249775436,-0.0307106228937,0.117100173268,0.774171117024,0.62018937313,-0.122745293553,0.030948601461,-0.132087334522,-0.173086599184,-0.127415403387,0.0949889935251,0.168771801084,-0.310048332913,0.057918086648,0.236023187637,-0.815888285637,-0.517980456352,-0.114180408418,-0.188239738345
2017/07/09/10:20:28.882281,521355,1499566831,689502629,,0.706163063414,-0.0315607627473,0.11588815941,0.774419523473,0.619827927476,-0.123300035019,0.0297463165703,-0.124814542697,-0.147780520376,-0.137104925381,0.11878601747,0.164273213853,-0.285325061392,0.218439519405,0.659115672112,-0.902120232582,-0.586360216141,-0.0495759397745,-0.213857591152
2017/07/09/10:20:28.892838,521356,1499566831,699512874,,0.704674482777,-0.0339987991321,0.114946973576,0.775826211056,0.618008439203,-0.123780314267,0.0289429285438,-0.113157488252,-0.145902914949,-0.115642075314,0.0881745235674,0.149386531143,-0.237485162868,-0.474147230387,0.0191323757172,-0.47858273983,-0.406827121973,-0.280143022537,-0.161387503147
2017/07/09/10:20:28.902319,521357,1499566831,709502546,,0.70429140007,-0.0349274329131,0.114066163845,0.776079246695,0.617743096061,-0.123629932129,0.028462431392,-0.105832003619,-0.146888122261,-0.107289010494,0.0777242693544,0.130921356719,-0.243319158409,-0.561777591705,0.695993304253,-0.832716107368,-0.51871907711,-0.341739714146,-0.154274046421
2017/07/09/10:20:28.912664,521358,1499566831,719511411,,0.702719998954,-0.0362871233119,0.112194482647,0.776578215854,0.617037171861,-0.124328520124,0.0270891544131,-0.110264348885,-0.143519169043,-0.123356437682,0.0845533370103,0.142388960956,-0.227670508537,-0.637385308743,0.288002550602,-0.908549308777,-0.394601225853,-0.374034821987,-0.175838679075
2017/07/09/10:20:28.922612,521359,1499566831,729514203,,0.701916746565,-0.0381639458588,0.111430796965,0.777447629191,0.615905995313,-0.124575246758,0.0267581146075,-0.122608053181,-0.155104108915,-0.129498196123,0.0889285209712,0.147549736153,-0.258389201294,0.279058396816,-0.25064855814,-1.12327241898,-0.306054502726,-0.0752407461405,-0.259042590857
2017/07/09/10:20:28.932537,521360,1499566831,739509913,,0.700792606046,-0.0389258991179,0.110232428419,0.778048092348,0.61526967322,-0.124251429286,0.0254160880168,-0.110820535368,-0.151562212996,-0.123585089486,0.0795709433009,0.122969709745,-0.235092087321,-0.113906502724,-0.229758501053,-0.608058810234,-0.344330042601,-0.127155527472,-0.259572833776
2017/07/09/10:20:28.942693,521361,1499566831,749511384,,0.699993147553,-0.0401876671587,0.108852020047,0.778639180863,0.614500090271,-0.124498000452,0.024716653614,-0.107902379406,-0.140891517832,-0.12303191897,0.0872427670405,0.11444142592,-0.240818566252,0.236528724432,0.445134848356,-0.470955610275,-0.474538862705,-0.118466041982,-0.209436476231
2017/07/09/10:20:28.952398,521362,1499566831,759507471,,0.69911355826,-0.0421303682135,0.107852674762,0.779293427263,0.61363731988,-0.12471922273,0.0244153508417,-0.0958683982575,-0.150701445962,-0.119029976461,0.0665213243031,0.0957098719505,-0.211851687628,0.445432513952,0.479741215706,-0.281215131283,-0.529336214066,-0.0370006784797,-0.244161874056
2017/07/09/10:20:28.962529,521363,1499566831,769509069,,0.698412118069,-0.043748429116,0.106711269262,0.779877753075,0.61295850747,-0.124518104746,0.0238285536728,-0.0869179901185,-0.148685945474,-0.110322550973,0.0681335881998,0.0780080639168,-0.17727419142,0.0587069839239,0.444730341434,-0.331328600645,-0.494831502438,-0.173219025135,-0.196083694696
2017/07/09/10:20:28.972824,521364,1499566831,779506346,,0.697042902482,-0.0451949722976,0.105637862885,0.780391001597,0.612280396885,-0.124846685002,0.0227135523489,-0.0901150497691,-0.172069606859,-0.111158855373,0.0696708604135,0.0633071383437,-0.199818261333,0.326453745365,0.230884075165,-0.476590454578,-0.389725208282,-0.0414565354586,-0.218742787838
2017/07/09/10:20:28.982853,521365,1499566831,789501970,,0.696826679609,-0.0466710472282,0.105072935947,0.780562882497,0.61207587835,-0.124761992671,0.0227848808323,-0.0924049296236,-0.158714134178,-0.114903956663,0.090907562274,0.0760604030445,-0.179510614966,0.673401474953,0.442578583956,-0.423761457205,-0.394642263651,-0.0134207308292,-0.184773132205
2017/07/09/10:20:28.992696,521366,1499566831,799520446,,0.696036200873,-0.0481776918162,0.103296709928,0.780987855469,0.611632528033,-0.124435072964,0.0218982391547,-0.097573943286,-0.162212791714,-0.11773024603,0.0871932299675,0.0963998998904,-0.160426539579,0.831297039986,0.378681242466,-0.91798222065,-0.439068615437,0.122634731233,-0.202277213335
2017/07/09/10:20:29.002624,521367,1499566831,809509958,,0.694862342329,-0.0496695811468,0.10269212427,0.7810884282,0.611440780004,-0.124868885521,0.0211849311825,-0.0712764843705,-0.141583739572,-0.116107356412,0.0743477175222,0.0642126661046,-0.0689819433967,0.208489000797,-0.255642026663,-0.64260327816,-0.288264036179,-0.045965693891,-0.174587443471
2017/07/09/10:20:29.012865,521368,1499566831,819506732,,0.694653396937,-0.0508385053146,0.101268429769,0.781328892621,0.61120549365,-0.124586775795,0.0207639443421,-0.0767578806125,-0.125027751518,-0.108384707371,0.116102150734,0.0674260749516,-0.0771083185619,-0.0356633514166,-0.140311449766,-0.733418762684,-0.278140127659,-0.228507742286,-0.115314923227
2017/07/09/10:20:29.022617,521369,1499566831,829503086,,0.693014136167,-0.0519181269517,0.099660837477,0.781597277758,0.610816713286,-0.125054247147,0.0192372930142,-0.0918312299601,-0.160859832788,-0.13057975571,0.105551258314,0.0799931006811,-0.103065381773,0.178447782993,-0.298905402422,-0.988255620003,-0.180493578315,-0.0543632432818,-0.166459470987
2017/07/09/10:20:29.032453,521370,1499566831,839508690,,0.692343980898,-0.0534268901618,0.0990427882135,0.781514282224,0.61094774279,-0.124978334418,0.0189393290579,-0.102035246968,-0.133642801593,-0.128287351244,0.112629828565,0.131480563162,-0.0789824338155,-0.359379798174,-0.119321927428,-0.288145691156,-0.22612144053,-0.318827748299,-0.0625616461039
2017/07/09/10:20:29.042615,521371,1499566831,849508367,,0.691652932536,-0.0545645604355,0.0981308562966,0.781786847581,0.610520123421,-0.125431027281,0.0184813755418,-0.0855026597745,-0.142587273762,-0.108977579266,0.100575701274,0.073939143868,-0.101496351705,-0.0109438225627,0.309242755175,-0.353993147612,-0.244552001357,-0.214139655232,-0.0706527084112
2017/07/09/10:20:29.052364,521372,1499566831,859503174,,0.690798218464,-0.0560294855326,0.0966004269922,0.782368894765,0.609803015234,-0.125388405746,0.0178028879814,-0.0902821667684,-0.14079749326,-0.101236472268,0.0732600998237,0.0832301226242,-0.142561410518,0.27262699604,0.125640541315,-0.763580024242,-0.281080007553,-0.0842258930206,-0.10643196106
2017/07/09/10:20:29.062508,521373,1499566831,869506850,,0.689707660637,-0.057889826472,0.096184644426,0.782833616477,0.609121819605,-0.125842907403,0.0174842915741,-0.0770404334294,-0.130266728853,-0.0953842864448,0.0701393056263,0.0511468250192,-0.160591423991,0.127843350172,-0.478651970625,0.158042818308,-0.10104893893,-0.0253879986703,-0.11583250761
2017/07/09/10:20:29.072792,521374,1499566831,879507336,,0.689271654888,-0.0586852336265,0.0951490751066,0.783550099914,0.608373655444,-0.125108252881,0.0166931527148,-0.0835883346889,-0.136170405495,-0.0949812622267,0.0710248689914,0.0526426653089,-0.179408486752,0.758381605148,0.295308470726,-0.047320663929,-0.291828870773,0.18118584156,-0.173377990723
2017/07/09/10:20:29.082652,521375,1499566831,889506500,,0.687523355193,-0.0599716587212,0.0938061348807,0.78367586972,0.608064939706,-0.125989976328,0.0153520742624,-0.0829960386684,-0.116499784573,-0.0967058310012,0.0905282704247,0.0788039223686,-0.132758977396,0.368353873491,-0.638887524605,-0.509060621262,-0.169664293528,0.110749572515,-0.154775857925
2017/07/09/10:20:29.092810,521376,1499566831,899509729,,0.68727800477,-0.0611627425946,0.0930008826493,0.783993954718,0.607688897801,-0.125836539975,0.0152593466896,-0.105565804863,-0.125181697063,-0.108560324986,0.105755009126,0.126858635063,-0.118261682779,0.76992380619,-0.491810560226,-0.198679924011,-0.148034468293,0.242822378874,-0.200943037868
2017/07/09/10:20:29.102668,521377,1499566831,909511446,,0.686407609974,-0.0627204760393,0.0922383294959,0.78451699819,0.607027615824,-0.125823279237,0.0148005263149,-0.103465931278,-0.125268809282,-0.11141200969,0.104205141963,0.115860274676,-0.12159684594,0.41929385066,-0.463387340307,0.402120798826,-0.118668749928,0.0776689946651,-0.174672484398
2017/07/09/10:20:29.112656,521378,1499566831,919523230,,0.685714509853,-0.0632360555971,0.0913879774396,0.784459284129,0.607103054986,-0.125903718214,0.0140629268033,-0.0878260262738,-0.119704508978,-0.09046842956,0.0819789821865,0.0829920895725,-0.127930944247,0.472781896591,-0.37330019474,0.295607894659,-0.0529479905963,0.139296412468,-0.194726228714
2017/07/09/10:20:29.122562,521379,1499566831,929504419,,0.685184692702,-0.0642208446774,0.0906540256036,0.784474949831,0.607064472288,-0.126024179522,0.0137726449413,-0.0893958553421,-0.128180171987,-0.0834914193447,0.0816084624548,0.0697022504719,-0.146234157761,0.661223888397,0.0754073485732,0.786652863026,-0.0619529858232,0.192704454064,-0.162061184645
2017/07/09/10:20:29.132838,521380,1499566831,939506894,,0.684382399552,-0.0659534843618,0.0894900460967,0.785410558133,0.605950456068,-0.125635332684,0.0130408261223,-0.0886883276609,-0.124451047507,-0.0932489315329,0.0634211373991,0.0859759710456,-0.149993375831,0.221738725901,-0.271503925323,0.164701789618,-0.067893460393,0.127512425184,-0.17854860425
2017/07/09/10:20:29.142425,521381,1499566831,949508015,,0.683666562984,-0.0664110775579,0.0885041259186,0.785419515498,0.605943436036,-0.125685676936,0.0123226463138,-0.0886678840944,-0.118003393165,-0.0941946337931,0.084129184016,0.0858107361293,-0.1385667613,-0.0566106364131,0.359445989132,-0.0867258161306,-0.102576196194,0.000839978456497,-0.0942870900035
2017/07/09/10:20:29.152723,521382,1499566831,959509367,,0.682505410008,-0.0681809593724,0.0881372766423,0.785513707538,0.605708943522,-0.126273897019,0.0118234486724,-0.0733428726406,-0.115705981742,-0.081635599946,0.0701734376336,0.0684654377846,-0.0926903717654,-1.07576942444,-0.085272744298,0.193949103355,-0.114021033049,-0.307681053877,-0.0287799276412
2017/07/09/10:20:29.162756,521383,1499566831,969504658,,0.681774572423,-0.0692631570335,0.087277065869,0.785651082423,0.605556504165,-0.12621343978,0.0111294460753,-0.0882223126151,-0.129119355438,-0.0757100146503,0.0786664920334,0.0933062761698,-0.0740124658354,-1.24808228016,0.212553873658,-0.0221010353416,-0.256992101669,-0.424986839294,0.0113387815654
2017/07/09/10:20:29.172627,521384,1499566831,979508739,,0.680388242224,-0.0701457457291,0.0864970449998,0.785942846199,0.605105312796,-0.126659552592,0.00993784040105,-0.0898752345164,-0.103203777061,-0.082453565041,0.127331145599,0.100543627768,-0.0489074278086,-0.44057443738,0.293684512377,-0.241589426994,-0.277171313763,-0.0456601977348,-0.0261264964938
2017/07/09/10:20:29.183042,521385,1499566831,989507190,,0.679463764028,-0.0708014383597,0.0854005090502,0.78604695936,0.604927266885,-0.126927897624,0.00908230501465,-0.0921207624894,-0.0898543653508,-0.0901031279576,0.112584558669,0.120170742377,-0.0647626484045,-1.06856966019,0.32370609045,-0.42808753252,-0.281190305948,-0.207504525781,-0.0268902927637
2017/07/09/10:20:29.192665,521386,1499566831,999510413,,0.678461306784,-0.0717967545049,0.084818573846,0.78600853659,0.604962575317,-0.127052449513,0.00827876477345,-0.0971500362926,-0.0989388948018,-0.0757454036025,0.100010627058,0.119103296297,-0.0848502085959,-0.795983374119,0.323802858591,-0.161618083715,-0.222590014338,-0.1353918612,-0.0421060845256
2017/07/09/10:20:29.202792,521387,1499566832,9509276,,0.677849855689,-0.0720847593851,0.0841751345548,0.786313984126,0.604586783353,-0.127004518632,0.00741565977103,-0.10060892373,-0.118963240886,-0.0694575559697,0.0851120526541,0.101222646002,-0.1019373085,-0.547929942608,0.259054213762,-0.258988648653,-0.224597066641,-0.0527417063713,-0.0643243417144
2017/07/09/10:20:29.212609,521388,1499566832,19503884,,0.677012688947,-0.0739203270005,0.0832729731708,0.787146266863,0.603575731003,-0.126680578213,0.00700875256265,-0.0906583921086,-0.107288801345,-0.0745940488237,0.0783758821618,0.100921856022,-0.080719044682,-0.495957165956,-0.451104879379,-0.140015691519,-0.0835582315922,-0.0171278640628,-0.102455958724
2017/07/09/10:20:29.222774,521389,1499566832,29504680,,0.675886233446,-0.0742758138333,0.0824783482734,0.786986590667,0.603648108507,-0.127379641881,0.0059576875554,-0.10222816607,-0.103322401476,-0.0866319512655,0.092105376918,0.122078868615,-0.134701980425,-0.092750646174,0.169255584478,-0.187363743782,-0.119066044688,0.111929267645,-0.078491166234
2017/07/09/10:20:29.232685,521390,1499566832,39510942,,0.674802613418,-0.076058080575,0.0819808861992,0.787757170968,0.602642076858,-0.12739930889,0.00553017923371,-0.0919490023368,-0.105412251342,-0.0693147309471,0.071093144317,0.0956404417686,-0.136972136792,-0.561626493931,-0.0855913087726,0.112084642053,-0.200442910194,-0.0566289797425,-0.0510673373938
2017/07/09/10:20:29.242503,521391,1499566832,49506306,,0.673767989293,-0.0768651218663,0.0810003191498,0.787733411004,0.602507220308,-0.128206028211,0.00493325394163,-0.0909361287926,-0.0916747004959,-0.0705993046083,0.0667347641066,0.109848703654,-0.128854653653,-0.884329915047,0.217865228653,-0.182196900249,-0.207700327039,-0.171027883887,-0.00817123055458
2017/07/09/10:20:29.252808,521392,1499566832,59510484,,0.672841609871,-0.0772771413219,0.0800706439432,0.7886119127,0.601453020571,-0.127799036737,0.00359463521225,-0.113720153704,-0.0915357436896,-0.0802591788528,0.0691700480443,0.153285819773,-0.166764625733,-0.810105264187,-0.0465569794178,-0.211412414908,-0.215843170881,-0.201334774494,0.00604671891779
2017/07/09/10:20:29.262318,521393,1499566832,69505285,,0.672055003068,-0.0784530377593,0.0797194281495,0.788796909328,0.601142087603,-0.128124599882,0.00342246282535,-0.107973733912,-0.0806107810004,-0.0841336151499,0.0976690263539,0.131581618697,-0.199474789355,-0.371089488268,-0.296870976686,0.29102063179,-0.0895235091448,-0.146575301886,-0.0345350131392
2017/07/09/10:20:29.272651,521394,1499566832,79509818,,0.671123106443,-0.0788066819977,0.079157115332,0.789285910704,0.600433787998,-0.128456496713,0.00243841072662,-0.095992466945,-0.0683655282502,-0.077270288428,0.0897152651721,0.11359535584,-0.185401234221,-0.0133475326002,-0.567929208279,0.127510353923,0.000280689448118,0.0441985838115,-0.0772944688797
2017/07/09/10:20:29.282864,521395,1499566832,89505427,,0.670626759751,-0.0798070383688,0.0785455810575,0.789717948592,0.599922003236,-0.128195172036,0.00226926684227,-0.0997612236082,-0.0982692977233,-0.0666621629226,0.07479724583,0.0906759894226,-0.210086468455,1.169470191,-0.250788599253,0.359805881977,-0.0632431060076,0.387856662273,-0.151093438268
2017/07/09/10:20:29.292558,521396,1499566832,99510029,,0.669569684695,-0.080716415454,0.0775920270376,0.790441389012,0.598913077152,-0.12846527471,0.00148652164062,-0.0843697549895,-0.0672293740499,-0.0733573965018,0.0691861386873,0.104722975934,-0.146815625402,0.983819663525,-1.09742724895,0.117862395942,0.145416259766,0.391467154026,-0.170118376613
2017/07/09/10:20:29.302788,521397,1499566832,109506272,,0.668820757236,-0.081180343851,0.076995427491,0.790414978404,0.598869241184,-0.128836899599,0.000920424075882,-0.0984406604959,-0.0861223056729,-0.0790666083419,0.08007743958,0.104029487471,-0.178159044948,1.65209436417,-0.793884396553,0.30537456274,0.140106633306,0.552872419357,-0.215234875679
2017/07/09/10:20:29.312613,521398,1499566832,119524886,,0.668042604396,-0.0808387383708,0.0760499099057,0.790858339317,0.598292799612,-0.128796907906,-0.000411798774821,-0.0793781401877,-0.0659223160676,-0.0716868149638,0.075391563633,0.0906017852046,-0.151703919605,1.98352622986,-0.464918255806,0.0119717065245,0.057593729347,0.731373786926,-0.237126946449
2017/07/09/10:20:29.322432,521399,1499566832,129505459,,0.667348295441,-0.0826381907347,0.0762426528912,0.79149993499,0.597463187382,-0.128707001369,-0.00031691082559,-0.0849730463716,-0.0909230687833,-0.057665002688,0.0590242449085,0.0712925688022,-0.189946904131,1.18197333813,-0.976455330849,0.589503228664,0.214736878872,0.415805548429,-0.18010661006
2017/07/09/10:20:29.332763,521400,1499566832,139509923,,0.666413194919,-0.0829228483527,0.0747303529542,0.791919213117,0.596907334928,-0.128697774554,-0.00157360430474,-0.0900987123978,-0.0832630129094,-0.0627208181761,0.0813679028013,0.0843145882943,-0.166572367051,1.13220226765,-0.771704792976,-0.0264060236514,0.086249217391,0.431052923203,-0.18563362956
2017/07/09/10:20:29.342636,521401,1499566832,149508225,,0.665488521357,-0.0841027698111,0.0745399443005,0.792262646011,0.596349991127,-0.129163113004,-0.00186495531787,-0.0830322050001,-0.0866338277039,-0.0736907940055,0.0779358223819,0.0742351833132,-0.177932029015,0.780419528484,-0.665355443954,0.199474558234,0.0573280341923,0.306934118271,-0.13945427537
2017/07/09/10:20:29.352702,521402,1499566832,159502071,,0.664760075855,-0.0844501611005,0.0734506354799,0.792808939653,0.595659497934,-0.128978222615,-0.00289237240849,-0.0657866307178,-0.0682041055633,-0.0712313155288,0.0830954692906,0.0618193023834,-0.150622671519,0.484255313873,-0.158710300922,-0.360243916512,-0.154413580894,0.246519610286,-0.111804097891
2017/07/09/10:20:29.362534,521403,1499566832,169503668,,0.664248062527,-0.0848108697266,0.0728137688352,0.792764425492,0.595670570132,-0.129189204707,-0.00335960410038,-0.081076917404,-0.0718503355531,-0.0701088398497,0.0909281314491,0.0776236888045,-0.187189018272,0.913700759411,0.296130210161,-0.229917109013,-0.173798754811,0.288584858179,-0.0838835015893
2017/07/09/10:20:29.373541,521404,1499566832,179510199,,0.663326526022,-0.0858651704544,0.0720397549192,0.79338009783,0.594832943321,-0.129252304804,-0.00395368312896,-0.0736353287512,-0.0606656379278,-0.0762715573111,0.0703739364374,0.0879970684034,-0.140838560133,0.364343613386,-0.312642008066,-0.319876879454,-0.123395487666,0.199201747775,-0.103898212314
2017/07/09/10:20:29.382615,521405,1499566832,189504340,,0.662445395833,-0.0875671426823,0.0714809198089,0.793828034851,0.594088636679,-0.129926038636,-0.00386876426747,-0.0850750639057,-0.0713097575297,-0.0794093642662,0.0796040202551,0.0973384262194,-0.148262455485,0.739918768406,-0.522700071335,-0.372541040182,0.0106088444591,0.301436573267,-0.128704816103
2017/07/09/10:20:29.392713,521406,1499566832,199516323,,0.66201195542,-0.086929731525,0.0708641150662,0.794010019703,0.593943078417,-0.129437987984,-0.00505128484592,-0.0706113393166,-0.0558052862252,-0.0744208972819,0.0702884310596,0.0847525166054,-0.113449379057,1.16824626923,-0.283129245043,-0.238984704018,-0.048878159374,0.461922317743,-0.168944895267
2017/07/09/10:20:29.402682,521407,1499566832,209503223,,0.661256474116,-0.0879891021163,0.0701348930343,0.794596606299,0.59314074657,-0.129495392295,-0.00558850536009,-0.0617041690641,-0.046655111322,-0.0672362010246,0.0904546343081,0.0630415458546,-0.111754029083,0.365932911634,-0.350736320019,0.137291386724,-0.0768562480807,0.189009770751,-0.130307585001
2017/07/09/10:20:29.412598,521408,1499566832,219508779,,0.660894609591,-0.0881793099727,0.0693098927716,0.794775046578,0.592915441035,-0.129414456755,-0.0059836026843,-0.0769725473758,-0.0405709806072,-0.0809228364167,0.0914843062982,0.105363572348,-0.107705813036,0.83113515377,-0.913995623589,0.0694662332535,0.124383814633,0.34538936615,-0.189271569252
2017/07/09/10:20:29.422635,521409,1499566832,229516966,,0.659515364515,-0.0893139814603,0.0688384698627,0.795161627419,0.592224309192,-0.130168671618,-0.0066686438946,-0.0712701196005,-0.0466543282468,-0.08633464894,0.0818374122215,0.0797490302466,-0.130056914587,0.551678478718,-0.963638484478,-0.138957232237,0.0157419964671,0.37389010191,-0.215364739299
2017/07/09/10:20:29.432628,521410,1499566832,239510737,,0.659650708966,-0.0886972894893,0.0677947318841,0.795180438733,0.592281977689,-0.129751949046,-0.0073865065794,-0.0603389716555,-0.0449095956702,-0.0763875021978,0.0837831539792,0.0696843092056,-0.103212690962,0.406680673361,-0.314106225967,-0.302645236254,0.000226713716984,0.203409910202,-0.128725513816
2017/07/09/10:20:29.442667,521411,1499566832,249506544,,0.658047153876,-0.0888702536077,0.066985090941,0.795279875736,0.591964605852,-0.130489551762,-0.00896111313953,-0.0959448899816,-0.0422942118495,-0.0774263493052,0.0910600902933,0.151153246552,-0.133911971679,0.0835875868797,0.349272012711,-0.750628948212,-0.259552448988,-0.00920120254159,-0.0997578501701
2017/07/09/10:20:29.452796,521412,1499566832,259502304,,0.657613603202,-0.0892306244169,0.066454002659,0.795320777152,0.591880255318,-0.130604008038,-0.00923135309108,-0.0795799766402,-0.0152555322253,-0.0746676649782,0.106666922892,0.157224932969,-0.0703688136587,0.158705770969,0.504427790642,-0.575502097607,-0.279734015465,-0.0928883478045,-0.0547130927444
2017/07/09/10:20:29.462732,521413,1499566832,269504307,,0.657212555694,-0.0889437601927,0.0655148585077,0.795729887801,0.591433926923,-0.130047076735,-0.0103736964588,-0.065628776168,-0.0208213389354,-0.0711739861361,0.0989084803547,0.103186842693,-0.106020419747,0.0613660737872,0.505782485008,-0.291242927313,-0.228223651648,-0.175940990448,-0.0457743294537
2017/07/09/10:20:29.472659,521414,1499566832,279514000,,0.65611747191,-0.0901227335753,0.0649830830643,0.796068314925,0.590830488139,-0.13068993843,-0.0107103805205,-0.0701798227664,-0.0264130151927,-0.072216985407,0.0913929374595,0.104936157852,-0.0797067747984,-0.0162957161665,-0.197273120284,-0.317792326212,-0.123985655606,-0.153224170208,-0.090778619051
2017/07/09/10:20:29.482734,521415,1499566832,289505591,,0.655309115256,-0.0900498410511,0.063893610338,0.796033668626,0.59078156214,-0.131036205782,-0.0117071356011,-0.066034255729,-0.0191013194128,-0.0851547755823,0.0935674538589,0.102082147184,-0.0787122315604,0.182777673006,-0.602966070175,0.0157533958554,-0.00526056438684,-0.045830603689,-0.139832869172
2017/07/09/10:20:29.492686,521416,1499566832,299510868,,0.655365211342,-0.0897558460207,0.0634138282578,0.795982256202,0.590904315908,-0.130767069581,-0.0120129416218,-0.055088111671,-0.0215657035504,-0.0640301002981,0.0758311675535,0.0680487720139,-0.10505082944,0.893456280231,0.0313957631588,0.209914058447,-0.194679200649,0.214253276587,-0.185961708426
2017/07/09/10:20:29.502411,521417,1499566832,309503183,,0.655053453923,-0.0902757507718,0.0628138040817,0.79627037132,0.590487707287,-0.130881106764,-0.0121613812175,-0.0492510368486,0.00688046848182,-0.0822654810465,0.112383507308,0.0838520417156,-0.0528948384783,0.504774987698,-0.517047762871,0.492696106434,-0.0437284559011,0.0753567889333,-0.149148449302
2017/07/09/10:20:29.512452,521418,1499566832,319506236,,0.654837163167,-0.0903613781194,0.0621309746131,0.796570079986,0.590143111847,-0.130561463146,-0.012685407052,-0.0522333073562,-0.0217779911598,-0.0763119604523,0.0879017236457,0.0762893988229,-0.0676906546959,0.697953224182,-0.366314888,-0.158812746406,-0.134409815073,0.207376614213,-0.183225810528
2017/07/09/10:20:29.522356,521419,1499566832,329503723,,0.654129054982,-0.0904749428966,0.0613769776968,0.796597554244,0.589968283488,-0.131106234727,-0.0134505117565,-0.0282002641464,-0.0100226713781,-0.0684724311188,0.0743067413127,0.0413099645764,-0.0779408387322,0.324676662683,-0.101461559534,-0.193885952234,-0.190580815077,0.12904843688,-0.126789107919
2017/07/09/10:20:29.532537,521420,1499566832,339506745,,0.653967655817,-0.0896563382116,0.0603563087143,0.796457148074,0.590200546662,-0.130827685382,-0.0142633355113,-0.0332902143462,-0.0089012684104,-0.0629270916234,0.0611377537521,0.0614748425803,-0.0467119564771,0.0905083790421,-0.0996748954058,0.0747306868434,-0.133041381836,0.0386723317206,-0.123162195086
2017/07/09/10:20:29.542516,521421,1499566832,349505573,,0.653628921453,-0.0906191816602,0.0602018419681,0.796830848576,0.589733701573,-0.130656480969,-0.0142703877937,-0.021373203546,-0.0208336575399,-0.0589552795755,0.0406457152047,0.0298416721749,-0.0205260042873,0.265004575253,0.136154323816,0.0165665596724,-0.1257686764,0.151034832001,-0.141303196549
2017/07/09/10:20:29.552780,521422,1499566832,359511822,,0.653611573173,-0.0911152190041,0.0594704482433,0.796884464387,0.589640675666,-0.130758490102,-0.0141859537998,-0.0318144553405,-0.0217185439661,-0.0654259460253,0.0517507256103,0.0415947665046,-0.0400444613541,0.205049097538,-0.496877968311,0.126998454332,0.0491498708725,0.1181486696,-0.144299775362
2017/07/09/10:20:29.562696,521423,1499566832,369505173,,0.653638657056,-0.0909473050483,0.0590080595018,0.79674098299,0.589828545347,-0.130771338438,-0.0143160805495,-0.0241333102669,-0.0251805555279,-0.0617837592851,0.032133920095,0.0318466776494,-0.036618666739,-0.102554537356,0.422523409128,0.409754574299,-0.0621589161456,-0.0643969923258,-0.0949218422174
2017/07/09/10:20:29.572603,521424,1499566832,379532453,,0.652765655789,-0.0910987633668,0.0584078951596,0.796617767767,0.589817865387,-0.131501612009,-0.0149111967332,-0.0210431471332,0.0102362285086,-0.0612055593176,0.0397950623942,0.0596281548434,-0.00603345108542,-0.859300971031,0.275616288185,0.318837195635,-0.0797313004732,-0.215188324451,-0.0559270046651
2017/07/09/10:20:29.582681,521425,1499566832,389515889,,0.652660446196,-0.0910602428825,0.0581336720837,0.796808434611,0.58963092818,-0.131121102846,-0.0154577958987,-0.030435797264,-0.00713581739983,-0.0540052431783,0.0497195479863,0.0611475498792,-0.0371567097893,-0.970055997372,0.604701161385,-0.0222932770848,-0.237793758512,-0.274045526981,-0.052628301084
2017/07/09/10:20:29.592607,521426,1499566832,399516236,,0.651990205845,-0.0908467222459,0.0576889924436,0.796945220212,0.589373326322,-0.131358281205,-0.0161987703241,-0.0285569455111,0.0039843746485,-0.0456320650414,0.0637370960683,0.0623580452461,-0.0274686764078,-0.993934571743,0.800141692162,0.109680339694,-0.297990828753,-0.298307746649,-0.0350344479084
2017/07/09/10:20:29.602604,521427,1499566832,409502189,,0.652512708827,-0.0899846528807,0.0572351793338,0.796736068305,0.589768877517,-0.130803618949,-0.0165747350972,-0.0355652211538,0.0119144262381,-0.0558908871303,0.062072385792,0.0821719747544,-0.0224425268083,0.36337813735,0.676386237144,-0.0109927393496,-0.225593596697,0.105829656124,-0.113089166582
2017/07/09/10:20:29.612430,521428,1499566832,419501992,,0.652413795058,-0.0895619162817,0.0566301759574,0.796643665338,0.589860234824,-0.130914488828,-0.0168869910096,-0.0283221218451,0.00757978332634,-0.0514680092762,0.0743798152703,0.0542754079085,-0.0286906686025,0.456554472446,0.514623343945,0.31087616086,-0.115796767175,0.0991698056459,-0.12813334167
2017/07/09/10:20:29.622499,521429,1499566832,429506472,,0.651796996586,-0.090008435513,0.0559461910275,0.79701026468,0.589300813889,-0.131131469875,-0.0174277466423,-0.0246576373969,0.0220635964281,-0.0428651491639,0.0668458627324,0.0665361485079,-0.0153010720811,0.000711776316166,-0.0115290284157,-0.155805498362,0.00878917425871,0.0458043664694,-0.115256085992
2017/07/09/10:20:29.632577,521430,1499566832,439501233,,0.651750949694,-0.0894186369648,0.0554446006406,0.796593095265,0.589801421843,-0.131372592147,-0.0177472645952,-0.010860805195,0.0268263584347,-0.0456067068691,0.0534768979166,0.0422146360585,0.00614222353336,0.662898659706,0.105535209179,-0.118072882295,-0.0675798207521,0.244690403342,-0.162024229765
2017/07/09/10:20:29.642528,521431,1499566832,449519381,,0.651172474266,-0.0899271346136,0.0551971197619,0.796667720208,0.589650085367,-0.13157290644,-0.0179413125496,-0.00901771115101,0.0265371540702,-0.0393556137444,0.0389340489248,0.0450286596052,0.0349821467116,0.224270269275,-0.0697750449181,-0.12318995595,-0.00919917225838,0.130681723356,-0.161302357912
2017/07/09/10:20:29.652661,521432,1499566832,459513599,,0.651390556204,-0.0893813194695,0.0547890813302,0.796586952376,0.589781743567,-0.13142416364,-0.0182869207764,-0.0293774752613,0.00558571927438,-0.0482997759664,0.0546464702255,0.0620788867344,-0.0156877558047,0.426463782787,-0.34581938386,0.31229031086,0.0800616368651,0.1757414639,-0.2101598382
2017/07/09/10:20:29.662514,521433,1499566832,469504460,,0.651713095236,-0.0898941202772,0.0550235405522,0.796836659474,0.589522601475,-0.13115135533,-0.0177133413972,-0.00815048496335,0.00428003127474,-0.0274460313602,0.0345591728284,0.0277103982833,0.01235441408,0.446826577187,-0.556809008121,0.302804231644,0.0771131664515,0.166925013065,-0.189537584782
2017/07/09/10:20:29.672531,521434,1499566832,479510329,,0.6513210132,-0.0892609504111,0.0542793756888,0.796381923083,0.590020824714,-0.131568652866,-0.018464792827,-0.0097431644737,0.0223941147499,-0.0353547219965,0.0357415864582,0.0470153483031,0.0440296074715,0.783220052719,-0.349318623543,-0.312134772539,0.153178721666,0.313062518835,-0.210134372115
2017/07/09/10:20:29.682227,521435,1499566832,489508515,,0.651364559103,-0.0885892722644,0.0540683142669,0.796386246464,0.590050911543,-0.131338248536,-0.0189507968619,-0.0153299719589,0.0301054374209,-0.0390216565354,0.0510450670018,0.0535790777409,0.00917822130966,1.48296737671,-0.316272079945,-0.0960759073496,0.179527997971,0.484485268593,-0.23057615757
2017/07/09/10:20:29.692770,521436,1499566832,499508493,,0.650836890216,-0.0883954160895,0.0535879987771,0.796361325925,0.5900097049,-0.131592149174,-0.0195113549167,-0.025649370266,0.0157376841346,-0.0301782459906,0.0307383706852,0.0754232397745,-0.0176828200898,1.50167012215,-0.314674556255,-0.530191659927,0.123765222728,0.557880699635,-0.237156778574
2017/07/09/10:20:29.702686,521437,1499566832,509502393,,0.6506604033,-0.0885184731296,0.0536550210694,0.79636596893,0.589973021725,-0.131715274879,-0.0196000900552,-0.0133467829648,0.00894651267622,-0.0230643429516,0.0275258235537,0.0415920429304,0.00641134984943,1.3333054781,-0.676881670952,-0.40788641572,0.255913287401,0.518525779247,-0.263777107
2017/07/09/10:20:29.712673,521438,1499566832,519504041,,0.651027428163,-0.0885929313099,0.0535360429396,0.796375824523,0.590001133493,-0.131555330053,-0.0194268815617,-0.00389520694817,0.0238229360124,-0.0248428278549,0.0371532291583,0.03452892274,0.0230096289563,1.17207622528,-0.630092024803,-0.191628679633,0.136105507612,0.368023484945,-0.206935912371
2017/07/09/10:20:29.722862,521439,1499566832,529502157,,0.650705462278,-0.088963486031,0.0532103481526,0.796169901107,0.590178009283,-0.132016374288,-0.0193670557691,0.0055254421393,0.0204151777678,-0.0175504250592,0.0252254148403,0.0111949664326,0.0251240128025,0.541767001152,-0.659647703171,0.224886268377,0.178091526031,0.0992427766323,-0.178854510188
2017/07/09/10:20:29.732756,521440,1499566832,539503948,,0.65120563337,-0.0881315943191,0.053111711054,0.796126072892,0.590383190877,-0.131329868413,-0.0195813598422,0.00160893486215,0.00789797026634,-0.0190880166279,0.0121383938488,0.00362728245694,-0.00413563354735,0.774683892727,-0.442649722099,0.230471372604,0.183829590678,0.13417288661,-0.171637579799
2017/07/09/10:20:29.742488,521441,1499566832,549505116,,0.65060463021,-0.0880893061581,0.0528094963572,0.795938982587,0.590414144103,-0.132261962045,-0.0199761817618,0.00731264092153,0.0355552778504,-0.0198012032438,0.0406973970277,0.0134406031203,0.0456660885295,0.515105128288,-0.285200685263,0.140343174338,0.187990427017,0.06775572896,-0.132809221745
2017/07/09/10:20:29.752633,521442,1499566832,559509358,,0.650856747839,-0.0878885363797,0.0526199650032,0.79616195851,0.590268050881,-0.13153402805,-0.0202129511625,-0.014356517939,0.0182923848149,-0.0235090570296,0.0376174477741,0.0551592174245,0.0327686312669,1.31932580471,-0.605175435543,0.188836216927,0.275700926781,0.346847563982,-0.248165920377
2017/07/09/10:20:29.762696,521443,1499566832,569505587,,0.650875143904,-0.0879161502468,0.0527906416863,0.795656360654,0.590856907936,-0.131994025321,-0.0199160080363,-0.0136200626833,0.0127512835759,-0.0219267306834,0.0239725020611,0.0410033603222,0.00676000497871,1.39474153519,-0.739329457283,0.0545232519507,0.211254894733,0.438021838665,-0.234164133668
2017/07/09/10:20:29.772427,521444,1499566832,579551931,,0.650472956207,-0.0879754463428,0.0524531442066,0.795920237039,0.590454248212,-0.132158781679,-0.020219136107,-0.00588093817937,0.00365413442967,-0.00972214121893,0.0164124687728,0.0091009089013,-0.0128138920849,1.33944869041,-0.774484753609,-0.276314675808,0.248912006617,0.436537593603,-0.243030771613
2017/07/09/10:20:29.782979,521445,1499566832,589511903,,0.650514913874,-0.0874920178872,0.0520098984319,0.796053136924,0.590345128119,-0.131758542585,-0.0207778573472,-0.00113012868787,0.00794564880239,-0.0178623948573,0.0222919141604,0.00588948354076,-0.00535047196792,1.17055654526,-0.590438961983,0.1206298545,0.282438576221,0.37544426322,-0.195673465729
2017/07/09/10:20:29.792613,521446,1499566832,599509747,,0.650318084518,-0.0875576419126,0.0519438377679,0.796010058999,0.590378007644,-0.131856777597,-0.0208706555909,0.00187502252779,-0.00100718201381,-0.0171081202378,0.00970998192746,-0.00836230670213,-0.00774152348268,0.502978622913,-0.281565904617,0.106857031584,0.0965487807989,0.190737307072,-0.171992689371
2017/07/09/10:20:29.802550,521447,1499566832,609502718,,0.650591723422,-0.0873697028146,0.0519135000942,0.795788975617,0.59070821445,-0.131735232152,-0.0207253534943,0.000907306438337,0.00955698653294,-0.0126529993688,0.0149809295523,-0.00209479598024,-0.0136697563085,1.03319382668,-0.310824841261,0.189498394728,0.142998188734,0.335763961077,-0.206690251827
2017/07/09/10:20:29.812780,521448,1499566832,619510963,,0.650960015515,-0.0875800200882,0.0520511368318,0.795702306033,0.590857956058,-0.131664016447,-0.0202312310541,-0.00178437946442,0.0115344966969,-0.00945955439015,0.0192088028244,0.00837887871231,-1.62153837301e-05,1.19659531116,-0.465729922056,0.344893097878,0.150721907616,0.372485548258,-0.202814295888
2017/07/09/10:20:29.822764,521449,1499566832,629503037,,0.650515850703,-0.0876018249622,0.0517723894146,0.795993844444,0.590408982388,-0.131843743491,-0.0206944539689,0.00152469908378,0.00821109945185,-0.00918741554959,0.00694009888339,0.0126793377363,0.0234893971689,1.43171656132,-0.890931844711,0.217075958848,0.265158176422,0.474823117256,-0.24647846818
2017/07/09/10:20:29.832733,521450,1499566832,639507081,,0.650568652719,-0.0875144852831,0.0518795973475,0.795970131787,0.590463550792,-0.131720748786,-0.0208323985421,-0.00752059249744,0.00196838485696,-0.00550118424438,-0.000370121898919,0.0256532858761,0.0136613533169,1.70330965519,-0.838185608387,0.396549791098,0.288688421249,0.56354278326,-0.248367577791
2017/07/09/10:20:29.842956,521451,1499566832,649503991,,0.650353044822,-0.0867344983353,0.0515266528143,0.795722443923,0.59075101501,-0.13183413838,-0.021419394464,-0.00602746667477,0.0106197267053,-0.0110547951625,0.021493431337,0.0208568088473,0.00744905964095,2.13624620438,-0.735037684441,-0.157406821847,0.21307271719,0.709978342056,-0.289891153574
2017/07/09/10:20:29.852448,521452,1499566832,659507306,,0.650267771801,-0.0873054488759,0.0518019826383,0.795723180572,0.590685338613,-0.132195455318,-0.0209717009886,-0.00267374552886,0.0118264132673,-0.0116391797719,0.0223792870765,0.0169608533338,-0.00103389172423,2.09847021103,-1.0935716629,0.0336315706372,0.336915284395,0.719133257866,-0.278131961823
2017/07/09/10:20:29.862659,521453,1499566832,669512897,,0.650360740509,-0.0871836499677,0.0512636499665,0.796083636284,0.590332104218,-0.131541624583,-0.0213460013012,-0.0188890327644,0.00344089525934,-0.0214811249112,0.00929305624614,0.0423540418276,-0.0139601242333,2.54531741142,-0.981571316719,-0.367664784193,0.233355104923,0.908794879913,-0.312602669001
2017/07/09/10:20:29.872554,521454,1499566832,679510707,,0.650377380752,-0.086438542027,0.0512920545058,0.795699369525,0.590761231303,-0.131906604618,-0.021548284947,-0.0262883744618,0.0209569725368,-0.0196646890881,0.0436526661955,0.0632058102062,0.00783554860806,2.67840981483,-0.559504747391,-0.104848481715,0.14086908102,0.834001004696,-0.282821178436
2017/07/09/10:20:29.882735,521455,1499566832,689503674,,0.650363527474,-0.0867203598454,0.0511333210088,0.795958997406,0.590500532072,-0.131500439727,-0.0215877377672,-0.00307160615611,0.00136385214945,-0.00182574362495,-0.0036614517995,0.0139214704405,0.00412387587156,2.29630017281,-0.756114661694,0.57833057642,0.156433463097,0.664366841316,-0.263952672482
2017/07/09/10:20:29.892718,521456,1499566832,699502294,,0.650059172803,-0.0868235232529,0.0505959909257,0.795833676484,0.590607531,-0.131747094364,-0.0217762904628,-0.00590157308242,-0.00377665339098,-0.0107000126775,0.0140946675094,0.0050778531908,-0.00350246486256,1.78159439564,-0.712260425091,-0.123499795794,0.164563894272,0.608364462852,-0.235577449203
2017/07/09/10:20:29.902677,521457,1499566832,709533000,,0.649820689582,-0.0868518929802,0.0505889218033,0.795931250723,0.590441446655,-0.131864235392,-0.0220037637766,0.0150827562788,-0.00108652971219,-0.00788869415438,0.00376484626471,-0.0349376530176,0.00845826259905,1.70248711109,-1.21530628204,-0.0893883258104,0.309076935053,0.618993639946,-0.24923671782
2017/07/09/10:20:29.912527,521458,1499566832,719509289,,0.650544642807,-0.087105944728,0.050906592407,0.795880137097,0.590626529212,-0.131450354349,-0.0213521593094,-0.00705599733602,0.000355859451853,-0.0168089659392,0.0195067674561,0.0163192022318,-0.0182804568199,2.4304060936,-1.28360974789,-0.123875811696,0.406574189663,0.816138863564,-0.288952142
2017/07/09/10:20:29.922705,521459,1499566832,729504077,,0.649788310991,-0.0873357907802,0.0509711373609,0.795794923768,0.59058336637,-0.13209841217,-0.021719488341,0.00232822376945,-0.0272270564144,-0.00358320676124,-0.0118769993591,-0.0218662564543,-0.0203768450486,1.96399414539,-1.1133954525,-0.0599385872483,0.229836046696,0.759537696838,-0.278467476368
2017/07/09/10:20:29.932818,521460,1499566832,739511565,,0.649301134747,-0.0869166761043,0.0504043266821,0.795958003663,0.590289165402,-0.132310390019,-0.0224392135914,-0.0182041218146,-0.00446380704487,-0.0102787094445,0.0146473349427,0.0384788097345,-0.0100998652836,1.47229194641,-0.624382197857,-0.238215610385,0.197379976511,0.525944292545,-0.2070594877
2017/07/09/10:20:29.942395,521461,1499566832,749504876,,0.649669178706,-0.0866788816884,0.0504220637036,0.795799215435,0.590567693479,-0.132054887411,-0.0222466816058,5.85414775859e-05,0.0137817123796,-0.0116963284856,0.0179115867638,0.00482920848487,0.000123833337221,1.92358481884,-0.557459890842,0.0886120572686,0.183542132378,0.629788994789,-0.231251060963
2017/07/09/10:20:29.952547,521462,1499566832,759510511,,0.650115087556,-0.0867217922375,0.0506915856561,0.795871205557,0.590549598123,-0.131771344788,-0.0218290864405,0.00807702120709,0.00942351672756,-0.00291407112094,0.00278024597128,-0.0138408901872,0.00820990671945,1.81617593765,-0.613728046417,-0.0812084600329,0.183544427156,0.610156655312,-0.200157612562
2017/07/09/10:20:29.962429,521463,1499566832,769503249,,0.650048840535,-0.0860868242244,0.0500124326487,0.795566037395,0.590957001755,-0.131681339062,-0.0224616821241,0.00274034013249,0.0117135765334,-0.0113224589566,0.0154984373816,0.00397871018139,0.0258686598973,1.53279590607,-0.120816618204,-0.349301725626,0.017971791327,0.578741908073,-0.226504266262
2017/07/09/10:20:29.972558,521464,1499566832,779511060,,0.649863516878,-0.0867375437062,0.0502616972849,0.795835230019,0.590558370901,-0.131898991947,-0.022130366977,-0.000981569696179,0.00613286745919,-0.00948264106272,0.0231630686089,0.00398091319245,0.0193773099356,1.73765540123,-0.871944606304,0.197294920683,0.217861816287,0.646681904793,-0.256903260946
2017/07/09/10:20:29.982320,521465,1499566832,789506084,,0.650258416456,-0.0865280481916,0.0503895357595,0.79561998673,0.590847780171,-0.131954114385,-0.021813965241,-0.00431873712679,3.01679200042e-05,-0.00503276251732,-0.00508959072514,0.0152454055305,-0.0104506061648,1.37304806709,-0.504616737366,0.358168780804,0.200298249722,0.39430052042,-0.177293419838
2017/07/09/10:20:29.992638,521466,1499566832,799508399,,0.650133939261,-0.0865642331615,0.0502428291994,0.795892861762,0.590542977677,-0.131642647455,-0.0219944875821,0.0105791678177,0.00590374532237,0.00164138439941,0.0028177020707,-0.0161868270466,-0.00378685713241,1.34788393974,-0.610335707664,0.668882548809,0.13894534111,0.376293420792,-0.212644785643
2017/07/09/10:20:30.002465,521467,1499566832,809506990,,0.650134281585,-0.0870129991154,0.0503611596642,0.79585234102,0.590567639232,-0.131822747838,-0.0217181476485,0.0086267956046,0.00428378231308,-0.00198714829667,0.00915467808551,-0.0197420661835,0.00792264405813,1.15291512012,-0.351845324039,0.209984049201,0.120324067771,0.398010134697,-0.180095955729
2017/07/09/10:20:30.012615,521468,1499566832,819506861,,0.650046068875,-0.0861013290222,0.0500243045369,0.795731317178,0.590764075703,-0.131542360952,-0.0224963329481,0.00915662357989,0.0082063042829,-0.00853669678139,0.0153966423998,-0.0126434343807,0.0190084973743,0.958793997765,0.302085518837,0.350784003735,0.0571515709162,0.251994013786,-0.139478623867
2017/07/09/10:20:30.022659,521469,1499566832,829503769,,0.650436696238,-0.0866947776556,0.0503164468346,0.795725308228,0.590828554961,-0.131414652465,-0.0217495196657,0.00168533129585,0.00147751775077,-0.00297288142558,0.00113976942171,4.73358622296e-05,0.0191198787472,0.863120436668,-0.281007379293,0.611663341522,0.160112187266,0.188074603677,-0.130307942629
2017/07/09/10:20:30.032761,521470,1499566832,839503520,,0.649732983771,-0.086282896614,0.0498723362585,0.795618745525,0.590806866492,-0.132014656388,-0.0225873587212,0.00585374607842,0.0185984421942,-0.00436147448588,0.0236621146519,0.000647569737675,0.0109310083586,0.617820978165,-0.30244654417,0.275812029839,0.0691071227193,0.269465953112,-0.176157206297
2017/07/09/10:20:30.043405,521471,1499566832,849512688,,0.649816512801,-0.0860928835995,0.0504601744897,0.795651057986,0.590850860744,-0.131609238381,-0.0226641270837,-0.00580017365371,-0.00652442904361,-0.00270072838356,-0.0033867389169,0.00276718565463,-0.0215543847682,0.641573965549,-0.0547312796116,0.281338810921,0.0343271568418,0.246954202652,-0.179331064224
2017/07/09/10:20:30.052585,521472,1499566832,859506102,,0.650314461519,-0.0868401965893,0.0502535193759,0.795873432606,0.590605002348,-0.13150711243,-0.0218423866177,-0.0037309308478,0.00594090195573,-0.00042452498283,0.0110322877094,0.0128650308464,0.00197188708044,1.09655368328,-0.367556869984,0.34080144763,0.0595400705934,0.334081858397,-0.184391334653
2017/07/09/10:20:30.062742,521473,1499566832,869507283,,0.649809075129,-0.0863904426856,0.0503695934018,0.795545889636,0.590914213714,-0.1320051779,-0.0224000562866,0.00487999346019,0.0072135857367,0.00639333542477,-0.011301543604,0.00361834332128,0.0135172475499,0.657031476498,-0.381772398949,0.411158025265,0.0599163621664,0.168986395001,-0.173363596201
2017/07/09/10:20:30.072629,521474,1499566832,879510531,,0.650242320124,-0.0866361142334,0.0504766298075,0.795802605142,0.590685436384,-0.131574755851,-0.0218406161993,-0.00170070593886,0.00110671652781,0.00699526819061,-0.00347778552812,0.0078154604922,0.0146065723772,5.64091587067,0.472195118666,-0.780895113945,-0.456652462482,2.1801173687,-0.334135651588
2017/07/09/10:20:30.082558,521475,1499566832,889506704,,0.650520378351,-0.0861377329496,0.0503753236744,0.795824262043,0.590717801056,-0.131233170465,-0.0222278750691,0.000510554613501,0.00381636549321,-0.0016050440749,0.011389314296,-0.00465380617815,-0.00194190081485,5.85389757156,0.292943537235,-0.760555267334,-0.450809180737,2.27671790123,-0.399181216955
2017/07/09/10:20:30.092724,521476,1499566832,899521078,,0.650199204975,-0.0861955043708,0.0501876106386,0.795561622422,0.590993362137,-0.131602209662,-0.0221225959418,-0.00502305058812,0.00395708066601,-0.0104911158421,-0.00433567543557,0.0189643089851,0.00471184908904,3.81488394737,0.104590766132,-0.533937931061,-0.189450278878,1.43783712387,-0.261569142342
2017/07/09/10:20:30.102707,521477,1499566832,909510326,,0.65026332197,-0.0866938801401,0.0506098740984,0.795850230381,0.590615959141,-0.131599264591,-0.0218365100401,-0.00819724044936,0.0139394174311,-0.00871853536555,0.0203173234485,0.0262490123268,0.0171038786064,2.70622944832,0.306163012981,-0.596947908401,-0.288298904896,1.05261385441,-0.222348719835
2017/07/09/10:20:30.112667,521478,1499566832,919506260,,0.649952559283,-0.0866728221259,0.0503588042251,0.795508770692,0.590973209371,-0.132061165603,-0.0218245297114,-0.00401613221563,-0.00513546959687,0.00163753259353,-0.00356018746124,-0.00330314112423,0.00155690167528,2.88823485374,0.329034775496,-0.687066257,-0.275569558144,1.15949046612,-0.222064048052
2017/07/09/10:20:30.122963,521479,1499566832,929507266,,0.65056794439,-0.0864059197007,0.0503241238764,0.795475524873,0.59114349687,-0.131530463525,-0.0216285135933,-0.0119131840355,-0.0134987672746,-0.000456930634763,-0.00384404828966,0.00745329942145,-0.00696728520472,3.97094154358,-0.188679531217,-0.661263585091,-0.0562899410725,1.55761432648,-0.325273662806
2017/07/09/10:20:30.132595,521480,1499566832,939524083,,0.649530092523,-0.0861006393794,0.0499972709378,0.795432357763,0.591049085086,-0.132067252827,-0.0225074203985,-0.00310157579937,-0.0151896424293,0.00219757844778,-0.00694425365422,-0.00864986538671,-0.000666835007168,3.95624876022,-0.196507379413,-0.609063625336,-0.106721587479,1.58197426796,-0.343750655651
2017/07/09/10:20:30.142932,521481,1499566832,949513063,,0.650016002527,-0.0867223577016,0.0506627991113,0.795724742405,0.590723613386,-0.131874025306,-0.0218400632204,-0.0162628520241,-0.01125665596,-0.00147249941895,-0.00761670277527,0.0266510996497,-0.00690344190939,3.79901838303,-0.190657109022,-0.70491451025,-0.0473911724985,1.45247006416,-0.282479256392
2017/07/09/10:20:30.152584,521482,1499566832,959510473,,0.650069087817,-0.08629592758,0.0504142025419,0.795682181008,0.590817258874,-0.131655920962,-0.022170970179,-0.0167100216867,-0.00962621480547,-0.00182294891701,0.000929508642687,0.0230177384067,-0.0281024155143,3.79349374771,-0.114308103919,-0.619672715664,-0.082385674119,1.47872674465,-0.331630140543
2017/07/09/10:20:30.162719,521483,1499566832,969504719,,0.64967176672,-0.0869684437263,0.0504164083158,0.796022154913,0.590359483275,-0.131641729373,-0.0222455497288,0.00725021110567,0.0196731248626,0.00475344553251,0.0312360964384,-0.0098877721998,-0.00118421662709,3.5555562973,0.016368418932,-0.590834617615,-0.154679834843,1.37990784645,-0.263518601656
2017/07/09/10:20:30.172428,521484,1499566832,979509779,,0.649619083746,-0.0860065759393,0.0498049647727,0.795944831321,0.590478533623,-0.131450405257,-0.0229721087767,-0.00950598071606,0.00157203150226,-0.0100188651289,0.029269166369,0.00813773720158,-0.0281113689404,3.32354044914,0.0723047479987,-0.558955788612,-0.253138393164,1.29121184349,-0.261459678411
