time,.header.seq,.header.stamp.secs,.header.stamp.nsecs,.header.frame_id,.pose.position.x,.pose.position.y,.pose.position.z,.pose.orientation.x,.pose.orientation.y,.pose.orientation.z,.pose.orientation.w,.twist.linear.x,.twist.linear.y,.twist.linear.z,.twist.angular.x,.twist.angular.y,.twist.angular.z,.wrench.force.x,.wrench.force.y,.wrench.force.z,.wrench.torque.x,.wrench.torque.y,.wrench.torque.z
2017/07/09/10:19:05.372298,513004,1499566748,178935235,,0.783091734173,0.396573236935,0.167723502768,0.624120880763,0.778633601768,0.0562470813191,0.0322351707886,-0.00159011252085,-0.0318237980235,-0.00924690372167,-0.00541369254886,0.0267057399108,-0.0507159345695,3.70502853394,2.37182235718,-1.10236179829,-1.09988689423,1.41596639156,-0.343331247568
2017/07/09/10:19:05.382190,513005,1499566748,188937331,,0.783428193171,0.396276248722,0.168261446121,0.624400812653,0.778377412898,0.0566807874287,0.0322415350848,0.00259044134755,-0.0138592624942,-0.00947356518538,0.0122161311017,0.0153201438839,-0.0225025290588,3.45413923264,2.12607240677,-1.18681788445,-0.951212644577,1.31763803959,-0.331036776304
2017/07/09/10:19:05.392362,513006,1499566748,198927276,,0.783382359258,0.395920360681,0.167842568143,0.624756340087,0.778110955286,0.0563988846671,0.0322803747391,0.00488993350944,-0.0183711974797,0.00253470428584,-0.00365571103174,-0.00130124992479,-0.00961484181925,4.1591334343,2.2683737278,-1.3086078167,-1.06677353382,1.56824052334,-0.351295500994
2017/07/09/10:19:05.402368,513007,1499566748,208930974,,0.783808780376,0.395577688585,0.168550395986,0.625002391872,0.777880162515,0.0567202113807,0.0325158506185,0.0170218440373,-0.0382096211232,0.00558589786185,-0.00628112325362,-0.0266551022415,-0.0568286536765,3.88012218475,2.42386436462,-1.36445212364,-1.1561871767,1.49213039875,-0.377048552036
2017/07/09/10:19:05.412453,513008,1499566748,218927266,,0.783730385764,0.394950450467,0.167886777826,0.625220162871,0.777738532843,0.0563089520301,0.0324318422559,0.0149943954055,-0.0355287477843,0.00297778415833,-0.00263844019678,-0.0152771410076,-0.0518939713631,4.11111211777,2.3458673954,-1.48536896706,-1.06149768829,1.56939208508,-0.336474597454
2017/07/09/10:19:05.422231,513009,1499566748,228928452,,0.783931984303,0.394578849636,0.167908975548,0.62540783716,0.777570578735,0.0565510618017,0.0324192799679,0.00873676245015,-0.045230864094,-0.00703187032891,-0.00163217567099,0.00789416005142,-0.0624055650301,4.15624904633,2.25500392914,-1.44858300686,-0.990010559559,1.61743450165,-0.296565920115
2017/07/09/10:19:05.432358,513010,1499566748,238935088,,0.78376935089,0.394241304272,0.167683628499,0.625604789215,0.777438768989,0.0563620484452,0.0321080625304,-0.00342568176358,-0.0402386077879,-0.026225889269,0.0113282783431,0.0362734967406,-0.0699290933947,3.90582203865,2.21217823029,-1.40624809265,-1.04112875462,1.52867221832,-0.343061327934
2017/07/09/10:19:05.442349,513011,1499566748,248927486,,0.783689387763,0.393911591391,0.16760461952,0.62554965371,0.777493067133,0.0561854089355,0.0321770279341,-0.00197296957432,-0.0196998599181,-0.0226228601495,0.0147342044525,0.0266276494411,-0.0299848600287,3.63385534286,2.23967838287,-1.33475196362,-1.06106305122,1.41334462166,-0.349975258112
2017/07/09/10:19:05.452420,513012,1499566748,258937901,,0.784066424509,0.393105498656,0.167436074201,0.626090068203,0.777032060225,0.0564173303066,0.0323958133375,0.00965804308188,-0.0456428257819,-0.0136430676351,0.00616554350696,0.0040693346277,-0.0588194238889,3.65517187119,2.44118285179,-1.14271664619,-1.18076515198,1.45530021191,-0.379629909992
2017/07/09/10:19:05.462446,513013,1499566748,268937483,,0.784436508152,0.392898812347,0.167670825088,0.626613638403,0.776584181096,0.0567376983645,0.0324529108539,0.0190429721215,-0.0514958881788,-0.00621412346853,0.00495365593604,-0.0114446989054,-0.0813844016016,4.03188467026,2.3009724617,-0.91416990757,-1.11243402958,1.65776181221,-0.344278335571
2017/07/09/10:19:05.472228,513014,1499566748,278932542,,0.784244667047,0.392911887456,0.167558229359,0.626256369845,0.776888644335,0.0567088201549,0.0321107964332,0.000608384390248,-0.0500405128559,-0.0140603242928,0.00742621110592,0.0292481589926,-0.0725944817397,3.90037894249,2.26328539848,-1.00300610065,-1.12197244167,1.58451628685,-0.379138231277
2017/07/09/10:19:05.483941,513015,1499566748,288924962,,0.784221995586,0.392000452118,0.167290013758,0.626846002601,0.776440911956,0.0561922523166,0.0323423877199,-0.00837884271646,-0.0539948761059,-0.0225275389775,-0.00696601150116,0.0534743377315,-0.0596268103931,4.23646354675,2.96995377541,-0.92430126667,-1.37445473671,1.69115543365,-0.398827373981
2017/07/09/10:19:05.492448,513016,1499566748,298929409,,0.784240236634,0.391175558694,0.166897608022,0.627315330266,0.776094766078,0.0558561462446,0.0321322487131,-0.00525337929479,-0.0524357178747,-0.026775581592,-0.028928906655,0.0471175523207,-0.0663474757109,4.29912424088,4.51775407791,-0.857494711876,-2.16122245789,1.66709065437,-0.565527915955
2017/07/09/10:19:05.502402,513017,1499566748,308939706,,0.784615432833,0.39057363329,0.16678676699,0.627712753691,0.775761107402,0.055859705602,0.0324206166674,0.0135411361322,-0.0750622160392,-0.0206933898226,-0.0317757802399,0.0149220437662,-0.0906064024397,3.92218351364,4.88613557816,-0.820783913136,-2.32007956505,1.51089835167,-0.626957416534
2017/07/09/10:19:05.512156,513018,1499566748,318923804,,0.784275950531,0.39033134777,0.166518066852,0.627662336987,0.775823453569,0.0556863080464,0.032202402329,0.0038263810059,-0.0686974774552,-0.0281323494621,-0.0310363477418,0.0290007996516,-0.0871579662851,4.0390291214,5.16902828217,-0.652264237404,-2.41479086876,1.58812403679,-0.595035016537
2017/07/09/10:19:05.522313,513019,1499566748,328922867,,0.784126021787,0.389122086858,0.165746423353,0.628461921401,0.77525061936,0.0547237347934,0.0320531337293,0.0158214909399,-0.0660627611473,-0.0160746294451,-0.0443354342088,-0.00181040092015,-0.0799057625413,3.72370743752,4.81522798538,-0.498458981514,-2.11734199524,1.53912651539,-0.525896847248
2017/07/09/10:19:05.532233,513020,1499566748,338932252,,0.78467556943,0.389112158214,0.166047573672,0.628234454832,0.77537429714,0.0552040284649,0.0326907378001,0.0244869449081,-0.122243510567,-0.0185592880514,-0.10810932691,-0.00684508260006,-0.124641843427,2.96670746803,4.73323059082,-0.250807821751,-1.97735142708,1.32129311562,-0.496169000864
2017/07/09/10:19:05.542308,513021,1499566748,348958462,,0.784830149157,0.387377472583,0.165781765962,0.628729612106,0.775000935329,0.0544597900341,0.0332679480676,0.0218081625928,-0.0910478110554,-0.0226891671268,-0.0627920212561,-0.00505338929462,-0.111087523755,3.08624410629,4.6947016716,-0.166659742594,-1.84472966194,1.40866529942,-0.453838288784
2017/07/09/10:19:05.552517,513022,1499566748,358937117,,0.784934147841,0.386871096065,0.16540745831,0.628893092743,0.774885289619,0.0542812202083,0.0331634582659,0.021616472036,-0.0793746560866,-0.0182719686152,-0.0706568511802,-0.0184632836684,-0.0559195279788,3.6247484684,5.09380340576,-0.413386166096,-1.9805535078,1.63401925564,-0.498519062996
2017/07/09/10:19:05.562248,513023,1499566748,368937916,,0.785397517389,0.385843385246,0.165396048488,0.629334491627,0.774517470859,0.0542623358017,0.033412331506,0.0101052691165,-0.0980543922364,-0.0315031641593,-0.0835155843834,0.0214895691638,-0.0822510573642,3.79275631905,5.1882724762,-0.395171880722,-1.97269272804,1.75395512581,-0.44951286912
2017/07/09/10:19:05.572182,513024,1499566748,378924176,,0.785694161879,0.384987525021,0.165303701673,0.629934883266,0.774024292631,0.0540518848181,0.0338648934729,0.0229493830774,-0.0906476577847,-0.0164467254667,-0.0524428020908,-0.0106093381691,-0.119985146401,3.26404881477,5.10130691528,-0.59245121479,-1.9387909174,1.54703950882,-0.474262654781
2017/07/09/10:19:05.582386,513025,1499566748,388931309,,0.785970949135,0.383975745132,0.165154014192,0.630314036796,0.773702655206,0.0541023076934,0.0340786831823,0.0182769435649,-0.105268841622,-0.0194974771603,-0.0576561074171,0.00351250096935,-0.126800734197,2.98564124107,4.96571922302,-0.668541133404,-1.8889580965,1.43493211269,-0.441508710384
2017/07/09/10:19:05.592242,513026,1499566748,398931555,,0.786493560383,0.382372229601,0.165332960744,0.631073202844,0.773079152659,0.0537500423169,0.0347299485639,0.0237560090385,-0.130606831576,-0.0284853777226,-0.0656991341091,0.0147642721473,-0.168197797554,2.01171922684,4.81029558182,-0.539468109608,-1.72680258751,1.11962842941,-0.375443935394
2017/07/09/10:19:05.602334,513027,1499566748,408929972,,0.786337754494,0.381397286053,0.164313911994,0.631403928834,0.772865690862,0.053046447889,0.0345510768036,0.0323248990428,-0.106704322483,-0.0236448903619,-0.0569107544003,-0.0171932753172,-0.140309332434,1.5948138237,5.16034507751,-0.618325829506,-1.85479140282,0.945405125618,-0.394996583462
2017/07/09/10:19:05.612342,513028,1499566748,418954083,,0.786559468005,0.380381709833,0.164015505118,0.63208886672,0.772310874686,0.0529005934751,0.0346569563181,0.0216603637767,-0.102514618084,-0.0270799308994,-0.0602857830525,0.0011309595553,-0.136246695656,2.08388996124,5.50563192368,-0.490593791008,-1.95002114773,1.14184141159,-0.399056375027
2017/07/09/10:19:05.622266,513029,1499566748,428928224,,0.78677913879,0.37928040629,0.164017694008,0.63229189831,0.772144881929,0.052670785666,0.0350003568537,0.0316667323083,-0.134841166627,-0.0262484830551,-0.0689744293687,-0.00565065419896,-0.164479495664,1.80395007133,5.78255367279,-0.444111615419,-2.03239870071,1.0136307478,-0.443812668324
2017/07/09/10:19:05.632267,513030,1499566748,438936331,,0.786578814156,0.378909997284,0.1637566063,0.632913115775,0.771660061041,0.052554339005,0.0346378337461,0.0141036968407,-0.097656596378,-0.0292214023637,-0.0524395156985,0.0160612438023,-0.118331877689,1.61481058598,5.9183588028,-0.323335766792,-2.0969414711,0.921890974045,-0.445570766926
2017/07/09/10:19:05.642197,513031,1499566748,448929018,,0.787053571536,0.377408443174,0.163440881413,0.633614246344,0.771077367634,0.0522679859125,0.0352241053995,0.022748014097,-0.104224962809,-0.0269043996666,-0.0439107359649,-0.0121260662688,-0.137282833452,1.34973883629,5.97754669189,-0.103236094117,-2.14292192459,0.807793021202,-0.490146607161
2017/07/09/10:19:05.652275,513032,1499566748,458923166,,0.787159307547,0.37703745486,0.16321496731,0.633811993977,0.770913635781,0.0523982463713,0.0350563294581,0.0120575277266,-0.0943137235973,-0.0315267803342,-0.0408523894256,0.0147236122333,-0.120647564537,1.68587315083,5.99991512299,-0.0385177694261,-2.20169019699,0.920847356319,-0.461513638496
2017/07/09/10:19:05.662446,513033,1499566748,468937510,,0.787572645646,0.375080110018,0.162881949748,0.63462018416,0.770256634038,0.0518436691532,0.0356955676001,0.0131053120235,-0.0890003698257,-0.0413042423003,-0.028550235631,0.0199423832644,-0.12429018869,2.23958277702,6.23702812195,0.244224235415,-2.2672355175,1.21748411655,-0.463215142488
2017/07/09/10:19:05.672223,513034,1499566748,478924768,,0.788001225328,0.37464190195,0.162791743015,0.634848362757,0.770039587827,0.052281025752,0.0356831028655,0.0235694967516,-0.112747622772,-0.0344666086173,-0.065159280086,-0.000299499756811,-0.118383069081,2.19854331017,6.35193014145,0.22936168313,-2.36725521088,1.24370408058,-0.508731901646
2017/07/09/10:19:05.682045,513035,1499566748,488923937,,0.787383778903,0.373936446574,0.161903106973,0.635412916739,0.76965530694,0.0515209070139,0.0350247038636,0.027253531707,-0.125203241536,-0.0364225245156,-0.0351936734125,0.0104016737967,-0.178232703557,1.67768371105,6.52221441269,0.320222049952,-2.42088627815,1.03060996532,-0.506824731827
2017/07/09/10:19:05.692326,513036,1499566748,498936451,,0.78823730298,0.372463756146,0.161945221511,0.635996194369,0.769113836101,0.0518272792335,0.03587033583,0.0266430770428,-0.132604833624,-0.0312603051299,-0.0369203671064,0.00225282938577,-0.185359965028,1.27861464024,6.79345750809,0.245634958148,-2.53553652763,0.87820482254,-0.512765824795
2017/07/09/10:19:05.702408,513037,1499566748,508924857,,0.788802233637,0.369950636795,0.161924246622,0.637000210448,0.76828161515,0.051366265869,0.0365458402936,0.032835225944,-0.133963880253,-0.0255444606205,-0.0436581800487,-0.0201373901019,-0.18161456521,1.40447187424,7.14310312271,0.195461735129,-2.57154870033,0.956783115864,-0.493237912655
2017/07/09/10:19:05.712151,513038,1499566748,518932857,,0.788587656893,0.370111521961,0.161331736572,0.637122972287,0.768205916412,0.0511610520081,0.0362840864774,0.0335812529006,-0.139933870273,-0.0310834942033,-0.0622964902587,-0.0178779796393,-0.174494200797,1.16555249691,7.39366436005,0.099019870162,-2.64434432983,0.850884318352,-0.526096701622
2017/07/09/10:19:05.722003,513039,1499566748,528926981,,0.789367290075,0.367842650553,0.160909442581,0.638347005319,0.767167698871,0.051148402492,0.0367513745645,0.0553209656761,-0.121468262459,-0.0235677474667,-0.0370794133786,-0.0676812361767,-0.169869986841,0.84793639183,7.3397192955,0.309213638306,-2.59258890152,0.777289450169,-0.495374500751
2017/07/09/10:19:05.732113,513040,1499566748,538955780,,0.790005473229,0.367308351768,0.160837542775,0.638424831191,0.767057586833,0.0514458038574,0.0372789842411,0.0431206278417,-0.111439964931,-0.0241488377322,-0.0263105404417,-0.0552099156225,-0.143496307014,1.02318453789,7.61754655838,0.381915658712,-2.74115157127,0.848100066185,-0.556689977646
2017/07/09/10:19:05.742034,513041,1499566748,548939597,,0.789924494815,0.365731968136,0.159894223094,0.63925009851,0.766420035452,0.0509080285502,0.0369866657255,0.0567873939278,-0.150350905595,-0.0192121340269,-0.0356187875572,-0.07595954817,-0.197458828642,0.129109472036,7.30055809021,0.548713982105,-2.59669160843,0.498306334019,-0.512946248055
2017/07/09/10:19:05.752285,513042,1499566748,558931719,,0.790629756954,0.364239144087,0.160400773708,0.640080415183,0.76566096416,0.0511783331228,0.0379621953987,0.0443829092496,-0.113845061686,-0.0377210019378,-0.0197569031464,-0.0489634095385,-0.167138073435,0.238255381584,7.53177499771,0.671198308468,-2.67116689682,0.543751716614,-0.538131952286
2017/07/09/10:19:05.762395,513043,1499566748,568924349,,0.791032486566,0.363707213369,0.16014024986,0.640494412399,0.765288008144,0.0514462920242,0.0381372693527,0.0545273121118,-0.129625273595,-0.0189228574936,-0.0249522180205,-0.0776801008123,-0.177546055333,-1.24278354645,7.50442075729,1.41939330101,-2.8516087532,0.00163164362311,-0.645859003067
2017/07/09/10:19:05.772305,513044,1499566748,578931331,,0.791816640897,0.362075860307,0.160037301597,0.641273334707,0.764591609618,0.0516322128273,0.0387594542556,0.0419906833486,-0.0873740443193,-0.0170133946916,-0.0310811411463,-0.0728112873652,-0.104821069239,-1.07544696331,7.51485395432,1.22952067852,-2.78280830383,0.0503106042743,-0.58672618866
2017/07/09/10:19:05.782141,513045,1499566748,588931692,,0.792861196952,0.360163272304,0.160188313595,0.642362879981,0.76361915859,0.0518646441736,0.0395698084719,0.0520509025992,-0.16071130713,-0.0208469344106,-0.0365994357975,-0.0568610637025,-0.195730878258,0.136947840452,4.48082065582,0.746823191643,-1.63717246056,0.505203187466,-0.353278905153
2017/07/09/10:19:05.792321,513046,1499566748,598929267,,0.792734301057,0.358236849745,0.159815997012,0.642993189731,0.763125696943,0.0513299010121,0.0395495876864,0.0597012559112,-0.20981315616,-0.0173374373046,-0.0749846064097,-0.0609678261745,-0.274596678451,0.919211804867,1.63733208179,-0.280387639999,-0.979051947594,0.667687296867,-0.415792196989
2017/07/09/10:19:05.802304,513047,1499566748,608923962,,0.793202012376,0.356684754462,0.159382014781,0.644226240685,0.762072814211,0.0513345024085,0.0397787068237,0.0558218629115,-0.214183911993,-0.0173870566204,-0.0653925878335,-0.04666398758,-0.31287333176,1.01442980766,1.20231962204,-0.626385271549,-1.26896727085,0.589012026787,-0.563450217247
2017/07/09/10:19:05.812755,513048,1499566748,618931565,,0.794020271584,0.354662711871,0.159374129927,0.645486595005,0.760976787974,0.0513443530619,0.0403130405934,0.0493607291722,-0.191096270014,-0.0261921426777,-0.0433516712616,-0.0295447054308,-0.304902139202,0.32832378149,1.20025324821,-0.597667872906,-1.28554987907,0.312502354383,-0.500933647156
2017/07/09/10:19:05.822457,513049,1499566748,628923891,,0.794347756615,0.352631730479,0.158860051524,0.646658062909,0.759980301558,0.0514457522902,0.0402072815668,0.0561494420119,-0.156918370195,-0.0238555880532,0.0480543592578,-0.0363001132132,-0.325212877078,-0.571137428284,-0.76318770647,-0.281586199999,0.0237804278731,0.0606468059123,-0.0862033367157
2017/07/09/10:19:05.832211,513050,1499566748,638924030,,0.794777566324,0.351069152365,0.158685245907,0.647899754445,0.758912981965,0.0513514259271,0.0404972227481,0.0480956858803,-0.194451219188,-0.0246543414741,0.0242048384092,-0.0225801628589,-0.349811399041,-1.5487190485,-2.52490472794,0.348392248154,1.22161436081,-0.186438843608,0.321983158588
2017/07/09/10:19:05.842365,513051,1499566748,648924985,,0.79532600886,0.34901494559,0.158504675974,0.648012566901,0.758811248918,0.0508358695713,0.041242163122,0.054868450691,-0.230359571215,-0.0235080830885,-0.0700113780633,-0.0442166874897,-0.306337301735,-1.86226296425,-2.4987642765,0.796933412552,1.15408229828,-0.300101161003,0.266519576311
2017/07/09/10:19:05.852199,513052,1499566748,658925275,,0.795979344661,0.345949663779,0.158141990763,0.648919002424,0.758013018407,0.0501703356613,0.0424656289152,0.0530628822794,-0.256593925937,-0.0258602836622,-0.187591289615,-0.0552346008828,-0.204312904935,-0.139186292887,-0.970107913017,0.895522415638,0.273213475943,0.289546757936,-0.0596124380827
2017/07/09/10:19:05.862268,513053,1499566748,668930123,,0.796250740583,0.343758367052,0.157873125962,0.64948159301,0.757540603797,0.0493086241318,0.0432961144484,0.042673920293,-0.241566330426,-0.0381171751632,-0.228925198553,-0.0414967948086,-0.157072649495,-0.692841470242,0.502227067947,0.172322481871,-0.322067975998,-0.289321243763,-0.348841905594
2017/07/09/10:19:05.872369,513054,1499566748,678928008,,0.797107581509,0.341850611069,0.158103320329,0.650551479604,0.75654728696,0.049817820541,0.0440131768377,0.0410648005671,-0.217988474845,-0.0411589399765,-0.141945150318,-0.0340988169137,-0.18807702852,0.110472157598,1.19323182106,-0.131006583571,-0.59618550539,-0.195034489036,-0.362425029278
2017/07/09/10:19:05.882353,513055,1499566748,688930314,,0.797663960994,0.340424971175,0.157398895253,0.651646722234,0.755560374771,0.0506597759979,0.0438024722339,0.0651375581131,-0.225039590178,-0.0491683945761,-0.0319522107388,-0.0941477451326,-0.300905355059,2.58061337471,1.53535592556,0.192762196064,-0.674374103546,0.845854341984,-0.184909313917
2017/07/09/10:19:05.891997,513056,1499566748,698924048,,0.79849534311,0.338267811643,0.156620562593,0.65273554273,0.754559709802,0.0509672808373,0.0444779932646,0.0724501381782,-0.174975812251,-0.0452052005898,0.0703942955561,-0.126614339431,-0.302748776743,4.63190126419,1.8140155077,0.522231042385,-0.72327286005,1.82289993763,-0.106672532856
2017/07/09/10:19:05.902379,513057,1499566748,708930826,,0.799720550951,0.336264116378,0.156621311537,0.653448015657,0.753838157845,0.0515667293931,0.0455477225615,0.0967088420119,-0.187329968131,-0.0279962051368,0.0355333103798,-0.183631598327,-0.279856782841,4.35538101196,1.82815158367,0.606082141399,-0.849444448948,1.77314352989,-0.184422284365
2017/07/09/10:19:05.912251,513058,1499566748,718931094,,0.79983347486,0.334577732149,0.156001026509,0.654622122772,0.752841655852,0.0514334694846,0.0453201479375,0.0993750518371,-0.227622307895,-0.0251350822595,-0.00322241228625,-0.174804011078,-0.300439176743,3.71664190292,1.6029355526,0.576391339302,-0.869851469994,1.56203782558,-0.313195407391
2017/07/09/10:19:05.922307,513059,1499566748,728923103,,0.800790651652,0.331645730638,0.156274348758,0.655808505319,0.751725689913,0.051874495791,0.0461814698933,0.0686626865559,-0.243778908007,-0.0264718687506,-0.0253129309032,-0.102072538037,-0.279732294586,3.23984050751,1.681224823,0.454405277967,-1.0521941185,1.26012015343,-0.44401165843
2017/07/09/10:19:05.932284,513060,1499566748,738931282,,0.80114567623,0.330144822523,0.155852919878,0.657169737456,0.750539401074,0.0522597736794,0.0456887257593,0.0473935170186,-0.233999537081,-0.0321813326411,0.0354288662936,-0.0328276406849,-0.343961240698,1.90962564945,1.31367492676,0.39809986949,-0.971298873425,0.688405871391,-0.384099781513
2017/07/09/10:19:05.942486,513061,1499566748,748925099,,0.802031908253,0.327315833856,0.155696331024,0.658656899858,0.749184405326,0.0527094431264,0.0459948876569,0.0404144384473,-0.228857565362,-0.0263592490045,0.0871303506377,-0.0130450880007,-0.389122584135,1.78902864456,1.56518220901,0.505782485008,-1.0617338419,0.695843338966,-0.371214747429
2017/07/09/10:19:05.952336,513062,1499566748,758930561,,0.80183352619,0.325589001179,0.155575235061,0.659886854633,0.748115889541,0.0528855939959,0.0455529235875,0.054102823931,-0.226665353425,-0.00977268994273,0.0789189254795,-0.0588554148153,-0.371867230138,1.62308704853,1.57615625858,0.653188765049,-1.03833091259,0.731298387051,-0.314355075359
2017/07/09/10:19:05.962386,513063,1499566748,768934886,,0.802274960513,0.323233310126,0.15482826861,0.660638805656,0.747449705645,0.0523571061162,0.0461956646303,0.0391788120813,-0.219911517581,-0.0172731671223,0.0443312530409,-0.0277687440225,-0.334357278332,0.897781610489,1.49171125889,0.583745896816,-1.00714933872,0.531456708908,-0.337086081505
2017/07/09/10:19:05.972321,513064,1499566748,778939444,,0.8025905568,0.320237867849,0.154973274866,0.661906923328,0.746325147794,0.0521446370634,0.0464643459785,0.0335733033951,-0.277830844986,-0.0238005898336,-0.0216728576651,-0.00393200618803,-0.364370344471,0.536380946636,1.33337032795,0.293074071407,-0.897152006626,0.402401417494,-0.317687541246
2017/07/09/10:19:05.982026,513065,1499566748,788924062,,0.803049248491,0.317291163309,0.154791663937,0.663490820952,0.744914903418,0.0520306446336,0.0466318474597,0.0263528791213,-0.304440971299,-0.0380669378275,-0.0380833428998,0.020886992354,-0.377410427373,0.396445989609,1.50008642673,-0.00635063275695,-0.895467042923,0.333363562822,-0.309353232384
2017/07/09/10:19:05.992393,513066,1499566748,798939076,,0.802820070493,0.315211695262,0.154105862606,0.664512123874,0.744059827212,0.0516141896776,0.0462015819805,0.025376706879,-0.25718513491,-0.0295692164376,-0.0360797712771,0.0146984889027,-0.314147566093,0.0254814811051,1.44880497456,0.0310876872391,-0.78490370512,0.234034627676,-0.293894827366
2017/07/09/10:19:06.002293,513067,1499566748,808932873,,0.803428543277,0.312374388571,0.154111256667,0.666046870436,0.742665232208,0.0518323775698,0.0462960461338,0.0134479316679,-0.27973085767,-0.0230404833344,-0.0354380272194,0.0326898229011,-0.3470086471,0.390719741583,1.50077152252,0.174789220095,-0.790964901447,0.380177110434,-0.291609942913
2017/07/09/10:19:06.012289,513068,1499566748,818928210,,0.802764870333,0.309394620631,0.153233444869,0.667634371034,0.741346615524,0.0509536442285,0.0455331572108,0.0208548814977,-0.287759481859,-0.0243874615953,-0.0042224816501,0.0311664525912,-0.398749200257,0.377358645201,1.33408772945,0.118007183075,-0.664722859859,0.351413041353,-0.24546533823
2017/07/09/10:19:06.022267,513069,1499566748,828925231,,0.803267163096,0.30694475382,0.153781712391,0.668899395032,0.740169248148,0.0510235287157,0.0460400145449,0.00697200183324,-0.301178925834,-0.0433258291858,0.00745368590711,0.068752711425,-0.427733721574,0.129148557782,1.45213532448,0.183727547526,-0.73786431551,0.251961886883,-0.275767803192
2017/07/09/10:19:06.032241,513070,1499566748,838931791,,0.803247307113,0.304035293102,0.153156552954,0.670263203391,0.738966596103,0.0506291857403,0.0459596951133,0.00862778773011,-0.28543140129,-0.0285535954717,0.000665608177393,0.0418711912276,-0.375690442469,-0.571871817112,1.22314548492,0.249652013183,-0.654902338982,-0.00836828164756,-0.254999995232
2017/07/09/10:19:06.042148,513071,1499566748,848925440,,0.803933143747,0.301849800546,0.153277065835,0.671484430852,0.737785791271,0.0514645065865,0.0461756416731,0.0157054669601,-0.273111544289,-0.0221332372998,0.00724944132232,0.0130466779436,-0.365511442062,-0.1457683146,0.713265240192,0.377885043621,-0.446953892708,0.196162611246,-0.224270015955
2017/07/09/10:19:06.052198,513072,1499566748,858930524,,0.803783345826,0.297990050185,0.152998819124,0.673585847106,0.735918620149,0.0508525225184,0.0460425026528,0.00665945325332,-0.295453861024,-0.0429922807367,0.0546812033818,0.0462583284469,-0.433054064094,0.498469293118,0.169196307659,0.301761806011,-0.163369581103,0.456082284451,-0.120197869837
2017/07/09/10:19:06.062392,513073,1499566748,868925217,,0.803536631893,0.295372819065,0.151968352458,0.674777078128,0.734898677217,0.0503484463632,0.0454407637083,0.000543309198152,-0.340680389479,-0.0358244281585,0.0323695202505,0.0603412446982,-0.481133070359,0.385551393032,0.263892501593,0.222147837281,-0.319892525673,0.381565749645,-0.212548941374
2017/07/09/10:19:06.072062,513074,1499566748,878949013,,0.803544940153,0.292139392649,0.15162769145,0.676528096725,0.733301840098,0.0503573714225,0.0451916009182,-0.00392531838521,-0.289907425892,-0.0370543161245,0.0437162563564,0.0625661757816,-0.418230712624,0.638408303261,0.269386351109,0.0562159568071,-0.360455930233,0.458539307117,-0.203440979123
2017/07/09/10:19:06.082265,513075,1499566748,888925410,,0.803785807868,0.289008200233,0.151575722915,0.67827339646,0.731684232146,0.0504028111456,0.0451989016768,-0.00232844635222,-0.297824876968,-0.0352547003381,0.0273382446665,0.0592623461663,-0.395552698888,0.82246363163,0.810901939869,-0.102644756436,-0.669907093048,0.484107196331,-0.28329500556
2017/07/09/10:19:06.092373,513076,1499566748,898924140,,0.803490613959,0.285914281557,0.150813952153,0.679858490892,0.730279705751,0.0498485033206,0.0447114129365,0.00620815805805,-0.318967436922,-0.0376485416654,0.0428962863753,0.0507598466882,-0.461032745273,0.520457446575,1.11384296417,-0.178584441543,-0.816310226917,0.334742158651,-0.284974634647
2017/07/09/10:19:06.102301,513077,1499566748,908942619,,0.803706903169,0.282574826751,0.150710720408,0.68135977411,0.728860681878,0.0499041788305,0.0449503901108,0.00906332024056,-0.347456398594,-0.0258890973222,0.00735148197592,0.0294056487467,-0.478090017922,0.527628779411,1.26053237915,-0.213898062706,-0.916713893414,0.35645404458,-0.370036780834
2017/07/09/10:19:06.112365,513078,1499566748,918926894,,0.803805747028,0.279626714218,0.150686297532,0.682537964677,0.727758429578,0.0496091647003,0.0452606421811,0.00560861921236,-0.307336614621,-0.0287118367355,0.0150154695176,0.0237710175874,-0.419499481105,0.116858758032,0.878214240074,-0.0728016868234,-0.713867843151,0.224667906761,-0.288166344166
2017/07/09/10:19:06.122326,513079,1499566748,928932555,,0.803917335233,0.276824103128,0.150150249795,0.684657660374,0.725779783917,0.049840599337,0.0447605630663,0.0122891220756,-0.30279530412,-0.0333010886785,0.00456829751615,0.0120079221258,-0.403681392646,-0.0728789940476,0.722828030586,0.0702878683805,-0.590528726578,0.198428869247,-0.271663814783
2017/07/09/10:19:06.132197,513080,1499566748,938938015,,0.803940276207,0.272683812876,0.14946260029,0.68619119338,0.724368938336,0.0490359615343,0.0450195710509,0.0071321461683,-0.33492004498,-0.039424105117,0.00200626387691,0.0211817285664,-0.450124524691,-0.655195116997,-0.672143757343,-0.0269874446094,-0.171548634768,-0.044171653688,-0.226767987013
2017/07/09/10:19:06.142072,513081,1499566748,948923910,,0.804501349302,0.270240677129,0.149769101362,0.687204706815,0.723345042438,0.0495675577391,0.0454389450878,0.00675124436711,-0.370868475516,-0.0405640622511,-0.0260598665221,0.0189546413592,-0.452975972719,-0.442419350147,-0.339030861855,0.2068015486,-0.26055419445,0.0296881720424,-0.226195901632
2017/07/09/10:19:06.152285,513082,1499566748,958930841,,0.803885552565,0.26713461375,0.148355110276,0.688748944637,0.721960308749,0.0490496766186,0.0446355584229,0.00461552355276,-0.318243015762,-0.0346013295337,0.0198983622197,0.00612582577798,-0.434223902321,-0.125082612038,0.150416910648,0.151049897075,-0.511755943298,0.174881637096,-0.301453709602
2017/07/09/10:19:06.162436,513083,1499566748,968928439,,0.804278964216,0.26362001827,0.148192381114,0.690547667186,0.720220057058,0.0490694021025,0.0449353149784,0.00957281691129,-0.32221893718,-0.0417581710513,0.0448850932394,0.00150860167044,-0.447865662499,-0.381934791803,0.402255266905,0.00220251083374,-0.592781186104,0.0142809934914,-0.300371557474
2017/07/09/10:19:06.172112,513084,1499566748,978932982,,0.804835824089,0.260822183392,0.148198648295,0.691820440483,0.718940601068,0.0495565479486,0.045310471438,0.0216183202371,-0.340637836681,-0.0313840986603,0.0358339882698,-0.0269940168338,-0.457758944137,-0.660250663757,0.503341257572,-0.298412084579,-0.633131444454,-0.136219412088,-0.324241697788
2017/07/09/10:19:06.182160,513085,1499566748,988929754,,0.804622942632,0.257787860325,0.147689178509,0.693799917825,0.717048443328,0.0496238894489,0.0449519025564,0.0343220672929,-0.337483844226,-0.0288672238828,0.0251798402731,-0.0583624416862,-0.45780656888,-0.486112117767,0.459067434072,-0.205005317926,-0.677866697311,-0.0232192352414,-0.369662344456
2017/07/09/10:19:06.192162,513086,1499566748,998930547,,0.805359576497,0.25373275825,0.147470599404,0.695596428982,0.715249098704,0.0499415565514,0.0454991837205,0.0275578456282,-0.334819550407,-0.0407279415063,0.0528315545583,-0.0503298557997,-0.467556427634,-0.309226930141,0.332536160946,0.112048052251,-0.688225150108,0.0827664211392,-0.397678554058
2017/07/09/10:19:06.202165,513087,1499566749,8924471,,0.806233385301,0.250835208598,0.147637209725,0.696617067367,0.714141195901,0.0507114377272,0.0464258963738,0.0258187748383,-0.340603001481,-0.0486403134435,0.0447126871613,-0.0500496741503,-0.464009590525,-0.527648687363,0.52836894989,0.534476459026,-0.675920784473,0.0814946740866,-0.38653075695
2017/07/09/10:19:06.212280,513088,1499566749,18932163,,0.80644358406,0.248641544964,0.146888587165,0.697736352287,0.713043251297,0.0511226125363,0.0460411008279,0.0482786187122,-0.308153033463,-0.0334619490684,0.0416598078931,-0.108905276701,-0.414241475702,-1.45811927319,0.280368387699,0.774021446705,-0.616536617279,-0.242992818356,-0.372239917517
2017/07/09/10:19:06.222152,513089,1499566749,28926328,,0.807203514051,0.244360282637,0.146836715509,0.699519820369,0.711204827212,0.0514571349839,0.0470306062048,0.0502581559237,-0.33907635955,-0.0415491362147,0.0335407876737,-0.103800015796,-0.423385913161,-1.5473562479,0.0643318593502,0.788644552231,-0.653888463974,-0.307315856218,-0.417566806078
2017/07/09/10:19:06.232196,513090,1499566749,38925694,,0.807439463964,0.240691379642,0.146044546149,0.700980278796,0.709740610261,0.0513147275288,0.0475574770573,0.051383590471,-0.3615152717,-0.0296213468787,0.0170553984561,-0.12769464376,-0.432214304566,-2.21369338036,0.0576691627502,0.422118782997,-0.532533288002,-0.590697944164,-0.373900413513
2017/07/09/10:19:06.242309,513091,1499566749,48929250,,0.808314933379,0.238033427375,0.145801079986,0.702418899092,0.708215661665,0.0525948595169,0.0476659996645,0.0585799385243,-0.341373202075,-0.0377927739946,0.0266921423181,-0.139172447185,-0.402619354558,-1.7380450964,0.226159155369,0.256480365992,-0.562557458878,-0.445672661066,-0.375609517097
2017/07/09/10:19:06.252199,513092,1499566749,58924262,,0.80855774581,0.234795464446,0.145186425164,0.703536948827,0.707070506658,0.0526739631619,0.0480886042143,0.0697408045485,-0.334641371373,-0.043782631732,0.042116692963,-0.168203213119,-0.400510690525,-1.53831529617,0.0922517180443,0.0870748385787,-0.509628117085,-0.371783286333,-0.353638201952
2017/07/09/10:19:06.262448,513093,1499566749,68927460,,0.809708992804,0.231634387781,0.144858579121,0.705137321478,0.705327537358,0.0538228353611,0.0489645310024,0.0723844241296,-0.357668160186,-0.0392115882869,0.0482417518012,-0.174688868671,-0.440747826342,-1.70489513874,0.586923718452,0.184756249189,-0.851136922836,-0.415187716484,-0.442562490702
2017/07/09/10:19:06.272247,513094,1499566749,78930989,,0.810393626404,0.228683092247,0.144759273939,0.705646965087,0.704735997904,0.0542184072452,0.0496980707579,0.072160944673,-0.327982238304,-0.043776243692,0.0495114158704,-0.175010496806,-0.380175935922,-0.963775038719,1.90533959866,0.154913306236,-1.43062102795,-0.161098152399,-0.560479819775
2017/07/09/10:19:06.282295,513095,1499566749,88927384,,0.810817725237,0.22538413183,0.144141500327,0.707069459952,0.703246395733,0.0548885879303,0.049845045951,0.0614412445924,-0.316578577839,-0.0575481928801,0.0277063328308,-0.155068904847,-0.314910156939,-0.51278668642,2.48661446571,0.0367019362748,-1.84338259697,-0.0587110482156,-0.695830047131
2017/07/09/10:19:06.292450,513096,1499566749,98931742,,0.812167837056,0.222856675496,0.144129183032,0.707974271632,0.702175302312,0.0561556791709,0.0506834807984,0.0878137318605,-0.314225084481,-0.0408551310286,0.0307494508802,-0.213737015993,-0.294731259547,-0.413909733295,2.39892697334,-0.126833200455,-1.69323372841,-0.0477820970118,-0.65630209446
2017/07/09/10:19:06.302247,513097,1499566749,108932968,,0.812933365032,0.219114703841,0.143634074624,0.708921315151,0.701102428875,0.0567211063794,0.0516591641603,0.0901971972137,-0.334982200479,-0.0337066899241,0.0436929715971,-0.231246282934,-0.338109265677,-0.616585254669,1.13091349602,-0.278218328953,-1.04599809647,-0.130413115025,-0.449522912502
2017/07/09/10:19:06.312467,513098,1499566749,118939410,,0.813733596003,0.21527951269,0.142932063514,0.710119545882,0.699781684383,0.0571438844225,0.052634601088,0.0958111997364,-0.359385343127,-0.0413296135957,-0.0182016128187,-0.246247888001,-0.308375833193,-1.26259255409,0.187458187342,-0.110367566347,-0.455842971802,-0.309213995934,-0.287273824215
2017/07/09/10:19:06.325763,513099,1499566749,128930365,,0.814777510785,0.212166663043,0.142591272492,0.710711701493,0.699044429038,0.0580895155451,0.0533982375627,0.0985888979836,-0.368009276433,-0.0359005731153,-0.0232739173941,-0.251473953383,-0.302703235617,-1.55680978298,-0.616832315922,0.101976200938,0.00575670599937,-0.431584954262,-0.12381182611
2017/07/09/10:19:06.332759,513100,1499566749,138925240,,0.815135385528,0.209172501038,0.141844060978,0.711999216687,0.697663581266,0.058564646053,0.0537849890188,0.0994730954947,-0.33475525884,-0.0400682918353,0.00533600823415,-0.24951742655,-0.289811166707,-2.29079532623,-0.570411682129,0.108677305281,-0.139050781727,-0.661675930023,-0.201692551374
2017/07/09/10:19:06.342402,513101,1499566749,148930481,,0.816287657363,0.205593073253,0.14162700677,0.713289846677,0.696186848712,0.059664228728,0.0546044514466,0.0891307157052,-0.350932671352,-0.0366904535316,0.0469829260529,-0.233792635119,-0.377150389366,-2.3372130394,-0.253528833389,0.114190280437,-0.273641735315,-0.753300189972,-0.234452694654
2017/07/09/10:19:06.352408,513102,1499566749,158925915,,0.817291414458,0.202191488394,0.141312396763,0.714876636499,0.694427937372,0.0603518848476,0.0554876957537,0.093683677539,-0.335373742748,-0.0447299991741,0.0790087750618,-0.224137467235,-0.431539132971,-1.74720025063,0.216545462608,-0.0164443440735,-0.568935215473,-0.593729555607,-0.264120727777
2017/07/09/10:19:06.362412,513103,1499566749,168931169,,0.81834707382,0.200366494004,0.14064763662,0.71628232022,0.692827514058,0.0619149482772,0.0556436221364,0.0838332139961,-0.285997426929,-0.0540496414571,0.0975293651472,-0.189805611505,-0.417668861437,-1.37491595745,0.516294419765,-0.150599092245,-0.779498755932,-0.456557661295,-0.351787179708
2017/07/09/10:19:06.372242,513104,1499566749,178959503,,0.81876156607,0.197399966827,0.139783270769,0.717509297262,0.691531929484,0.0619736005641,0.0558862387312,0.0903812411209,-0.313244438549,-0.0480112326759,0.0660490197862,-0.209703802459,-0.45044504161,-1.17838835716,0.435543268919,-0.436137348413,-0.721531867981,-0.358226537704,-0.328397631645
2017/07/09/10:19:06.382034,513105,1499566749,188925780,,0.819791318817,0.194322772074,0.139939145425,0.718951506525,0.689862818859,0.0629182822401,0.0569149556901,0.0809943141923,-0.326089027883,-0.05702743228,0.0558098682799,-0.18012253056,-0.460078494763,-0.958935379982,0.115985639393,-0.494710862637,-0.504796683788,-0.284811407328,-0.255680114031
2017/07/09/10:19:06.392543,513106,1499566749,198930677,,0.820770783742,0.190407735853,0.139442568514,0.720309680099,0.688325200846,0.0634601291901,0.0577511440506,0.0742907709758,-0.322215024595,-0.0544675267903,0.0266187410063,-0.166492354255,-0.41080333587,-1.00174129009,-0.210392937064,0.161382466555,-0.360230118036,-0.301315009594,-0.219022363424
2017/07/09/10:19:06.402460,513107,1499566749,208931446,,0.820972304736,0.188060949525,0.138321043896,0.721256315943,0.687325757545,0.0635181463591,0.0577760747216,0.0886632191911,-0.30772374125,-0.0377303131244,0.0449056357801,-0.198863546075,-0.361807412779,-1.81957685947,-0.249467760324,0.103713989258,-0.350052416325,-0.500026464462,-0.24078977108
2017/07/09/10:19:06.412233,513108,1499566749,218937548,,0.821706081485,0.184911502918,0.137531084476,0.722978981042,0.685415320769,0.0643415129584,0.0580293092928,0.0573392018127,-0.326222941509,-0.0605992772227,0.032080235739,-0.120352201719,-0.406454631359,-1.84132778645,0.268753290176,-0.0514695569873,-0.643573462963,-0.563236117363,-0.308614432812
2017/07/09/10:19:06.422214,513109,1499566749,228931133,,0.821988973478,0.182113024483,0.13684453764,0.723638208709,0.684708180306,0.0644044665261,0.058090579358,0.0547355782023,-0.302031345234,-0.0713906440598,0.0604277825731,-0.105152809127,-0.389078379758,-1.98149764538,0.135593682528,-0.0832498148084,-0.57812923193,-0.605666220188,-0.2590495646
2017/07/09/10:19:06.432179,513110,1499566749,238928206,,0.822826530777,0.179076248332,0.137040768565,0.724499315371,0.683678585945,0.0649239471138,0.0589000359881,0.0472138590468,-0.30574422298,-0.0680258290885,0.0492263265234,-0.088946033081,-0.32303075076,-2.13771796227,0.428543895483,0.00452813506126,-0.740389347076,-0.668612599373,-0.340976983309
2017/07/09/10:19:06.442357,513111,1499566749,248961287,,0.822912374571,0.176349535697,0.135923211681,0.725737156882,0.682380167109,0.0650706792207,0.0585550455721,0.044680490041,-0.302258979823,-0.0736179058103,0.0416067555898,-0.0664498261981,-0.299848698257,-1.8388273716,0.338615775108,-0.330669015646,-0.690402984619,-0.553544640541,-0.32391089201
2017/07/09/10:19:06.452292,513112,1499566749,258953936,,0.82297841853,0.17342194923,0.135113807596,0.726625958952,0.681441225805,0.065009795595,0.0585345882964,0.0461696612802,-0.315305754384,-0.0592462470363,0.0218847719849,-0.0777183151506,-0.31184977981,-1.82497286797,0.0254397541285,-0.422883093357,-0.468403100967,-0.539026379585,-0.240493893623
2017/07/09/10:19:06.462444,513113,1499566749,268937067,,0.823728735741,0.17081618716,0.134727278851,0.727625544927,0.680293848747,0.0656261251246,0.0587754832272,0.0456783870765,-0.317987216309,-0.0675351188972,0.0478093395852,-0.074296322317,-0.362313050598,-1.913382411,-0.0391234010458,-0.142910957336,-0.485888004303,-0.588096737862,-0.257759869099
2017/07/09/10:19:06.472387,513114,1499566749,278937664,,0.824158672322,0.167380752693,0.134054709371,0.729075203177,0.678708277608,0.065770407364,0.0589802978437,0.038708590742,-0.32020337788,-0.0654100015186,0.026063914963,-0.046209826296,-0.354441794236,-1.58803582191,0.216621935368,0.151463270187,-0.557274401188,-0.454177469015,-0.264845907688
2017/07/09/10:19:06.482108,513115,1499566749,288927739,,0.824303602849,0.164459050815,0.133153497621,0.730309533195,0.67740340882,0.0654567295358,0.059059495448,0.0338437700964,-0.293759482735,-0.0658822074763,0.0386913522686,-0.0216441967529,-0.335158625177,-2.12200284004,0.595063269138,-0.0969931855798,-0.698043763638,-0.673751533031,-0.32676833868
2017/07/09/10:19:06.492209,513116,1499566749,298928311,,0.824462265825,0.161008947018,0.132285123971,0.731612645603,0.676017155555,0.0654534873564,0.0588182215227,0.0276369144502,-0.300625848148,-0.0766328448709,0.0533497626538,-0.00089312992174,-0.369031184464,-1.68783450127,0.0879006236792,-0.118359230459,-0.636362195015,-0.5385414958,-0.320629775524
2017/07/09/10:19:06.502385,513117,1499566749,308943736,,0.824938398748,0.15921773343,0.131749046455,0.73270434011,0.67482086661,0.0658577076157,0.0585141890382,0.012391325435,-0.336811052976,-0.0822486116682,0.047073406076,0.0340917536494,-0.451510502727,-1.0785651207,0.722496509552,-0.224134549499,-0.676156103611,-0.375692009926,-0.34625685215
2017/07/09/10:19:06.512213,513118,1499566749,318931619,,0.825160652185,0.155765130237,0.131042074765,0.734414578616,0.672952175683,0.0658831964382,0.0585662051577,0.0247565845644,-0.297591071472,-0.0803980589166,0.0877727951267,0.00944404240114,-0.439685385806,-1.12735283375,0.271961569786,-0.174124643207,-0.565998733044,-0.435414075851,-0.314404159784
2017/07/09/10:19:06.522382,513119,1499566749,328925245,,0.825353290148,0.152924763684,0.130070154991,0.735750716981,0.671507606101,0.0658307916485,0.0584356422208,0.0259597905779,-0.301220921468,-0.086493110067,0.0720871459834,0.010167994447,-0.426954778378,-1.09537196159,0.378340005875,0.118625685573,-0.518597602844,-0.448080390692,-0.309358865023
2017/07/09/10:19:06.532162,513120,1499566749,338931933,,0.825854351014,0.150102100681,0.129284085652,0.736944410296,0.670188168,0.0660254091679,0.0583215307689,0.031703265671,-0.295216057168,-0.0821869940416,0.0472906897616,0.00178326414058,-0.393448977677,-1.55495214462,0.224690124393,0.00232292897999,-0.543658137321,-0.646145105362,-0.318319320679
2017/07/09/10:19:06.542282,513121,1499566749,348923212,,0.825888820472,0.147278391667,0.128372930503,0.738436563846,0.668564907778,0.0660662238772,0.0580315373456,0.0401243157519,-0.272068565006,-0.072981649822,0.0958574154438,-0.0173496020985,-0.398006596998,-1.60339379311,0.0926476866007,-0.119908958673,-0.513468027115,-0.685005307198,-0.280302703381
2017/07/09/10:19:06.551997,513122,1499566749,358925611,,0.826539586335,0.144306127725,0.127968448419,0.739809794089,0.666991314727,0.0661314326223,0.0585720775409,0.0382842325578,-0.255138428808,-0.090350926132,0.0914864652311,-0.000500443351513,-0.371814063468,-1.51815319061,-0.183350533247,-0.184028729796,-0.406534463167,-0.613009750843,-0.265457093716
2017/07/09/10:19:06.562055,513123,1499566749,368923184,,0.826831322343,0.142131968623,0.126885293403,0.741180653394,0.665479754152,0.0664956052126,0.0580195685541,0.0482455383969,-0.27922583486,-0.0853021032247,0.0755465441204,-0.0300838658331,-0.417904457387,-0.980530083179,-0.185798019171,-0.460446447134,-0.342124164104,-0.413031369448,-0.228115111589
2017/07/09/10:19:06.572552,513124,1499566749,378923895,,0.827793249375,0.140856992154,0.126496357908,0.741870260928,0.664658858497,0.0671950727059,0.0578095145767,0.0602924854671,-0.275149741438,-0.0835923669114,0.087749230133,-0.0500044985829,-0.409306475532,0.0658849775791,0.435354292393,-0.685292243958,-0.419712841511,-0.0811635404825,-0.241974562407
2017/07/09/10:19:06.581954,513125,1499566749,388924177,,0.82824188417,0.137488477266,0.125551105385,0.743493270376,0.662812514468,0.0674304450577,0.0578831810584,0.0530064397799,-0.274973034792,-0.0759651297392,0.0882721013568,-0.0396801653939,-0.412619528447,-0.318928420544,0.0822362750769,-0.571643412113,-0.29326581955,-0.299847453833,-0.172757446766
2017/07/09/10:19:06.592445,513126,1499566749,398927720,,0.828576160451,0.135272163828,0.124587922203,0.744663102643,0.66151251659,0.0675434212261,0.0575842010071,0.057227661436,-0.270631702038,-0.0724236749531,0.0763897657925,-0.045577012917,-0.379213789769,-0.436366707087,0.310165882111,-0.488144129515,-0.306677490473,-0.334750592709,-0.173222690821
2017/07/09/10:19:06.602342,513127,1499566749,408936119,,0.829414373483,0.132929532938,0.123964507146,0.745719809618,0.660260057455,0.0680241565144,0.0577177286664,0.0540685139975,-0.25830465247,-0.0869206891203,0.0798231654199,-0.0266665350953,-0.385786671918,-0.651440739632,0.419958770275,-0.423945665359,-0.382637679577,-0.457748889923,-0.225921347737
2017/07/09/10:19:06.612239,513128,1499566749,418934505,,0.829295861508,0.129948194094,0.122533835429,0.747486692751,0.658328526013,0.0678093922674,0.0571758893063,0.0623963599759,-0.244290903694,-0.0930745552428,0.102695125769,-0.0381293689849,-0.396636555269,-0.552501022816,-0.0454744249582,-0.836185872555,-0.216071709991,-0.399867117405,-0.145678192377
2017/07/09/10:19:06.622549,513129,1499566749,428924209,,0.830858380676,0.127506594152,0.122486656686,0.74846560822,0.657040993813,0.0688913894299,0.0578821408032,0.0614176426349,-0.260043763985,-0.0991764071462,0.0828115711399,-0.0398183922736,-0.402533163551,-0.791884124279,-0.00307781994343,-0.449405312538,-0.317322641611,-0.484370976686,-0.222542375326
2017/07/09/10:19:06.632044,513130,1499566749,438929429,,0.830675102921,0.125219180953,0.120606959698,0.749554022644,0.655899246294,0.0684810079328,0.0572302140671,0.0478544930234,-0.253533423669,-0.0923893803061,0.0830064335073,-0.00978069499474,-0.380168515547,-0.570235729218,0.269002258778,-0.522513926029,-0.302948623896,-0.419214934111,-0.177202939987
2017/07/09/10:19:06.642323,513131,1499566749,448940990,,0.831908294845,0.123501768786,0.120155452494,0.750526873051,0.654670156398,0.0693685157679,0.0574839818635,0.066143691672,-0.248396153903,-0.099630685,0.0753410539902,-0.0478212970286,-0.348533625042,0.101113274693,0.128096476197,-0.630395412445,-0.270728260279,-0.182690128684,-0.193820267916
2017/07/09/10:19:06.652387,513132,1499566749,458931396,,0.832537625487,0.120601490066,0.119013258594,0.751849247188,0.65310980426,0.0697836512608,0.0574502837163,0.0718971766866,-0.248959033803,-0.0893421512141,0.0814522046706,-0.065889903015,-0.359033025836,-0.0453679263592,-0.123816624284,-0.967320144176,-0.205237865448,-0.232327058911,-0.170853734016
2017/07/09/10:19:06.662253,513133,1499566749,468929517,,0.833379455523,0.11888270623,0.118653734474,0.752973472329,0.651742228874,0.0704869187897,0.0573987051367,0.0612093829845,-0.248824413463,-0.110781764736,0.102661150759,-0.0388429719149,-0.393318394777,0.268821567297,0.155436336994,-0.494509160519,-0.219084173441,-0.104443214834,-0.16598148644
2017/07/09/10:19:06.672318,513134,1499566749,478928523,,0.833557522295,0.11592946923,0.117424123164,0.754340366056,0.650173617549,0.0704956149104,0.0572297777357,0.0750235471585,-0.234214052503,-0.0801648971347,0.109802678862,-0.0814300633218,-0.388648775728,-0.132904708385,-0.0149424672127,-0.550076842308,-0.303469628096,-0.190013512969,-0.204587012529
2017/07/09/10:19:06.682353,513135,1499566749,488923703,,0.833562421352,0.113256699565,0.11607993413,0.755925657685,0.648405789123,0.0702952347885,0.0566119479571,0.0552494340028,-0.257327290954,-0.101887788051,0.0852072954862,-0.0392649236363,-0.400896266161,-0.535521030426,-0.245713412762,-0.574372172356,-0.268916457891,-0.305864065886,-0.200869500637
2017/07/09/10:19:06.692266,513136,1499566749,498928165,,0.833907353804,0.110862535079,0.114731711892,0.75682079993,0.647373355479,0.0703360404125,0.0564168133489,0.0515117507581,-0.231516480676,-0.120948512752,0.105232184677,-0.0157998514176,-0.360494578697,-0.651898980141,-0.382243126631,-0.26305487752,-0.218725085258,-0.330221325159,-0.186368077993
2017/07/09/10:19:06.702024,513137,1499566749,508930839,,0.83532183501,0.109525572915,0.113950207016,0.757565406019,0.646373966342,0.0713030170051,0.0566677245467,0.0594117217295,-0.251864944635,-0.11358359062,0.0832385686869,-0.0385873923253,-0.362683202078,0.318019151688,0.128041982651,0.116685636342,-0.298532515764,-0.0195880103856,-0.177758216858
2017/07/09/10:19:06.712194,513138,1499566749,518927873,,0.835671027913,0.107473645626,0.113491449251,0.758270693651,0.645536209919,0.0713130159247,0.0567715650132,0.0654627309851,-0.226221851431,-0.103824341078,0.0916540058521,-0.0466352501138,-0.307022012038,0.400132209063,0.178961530328,0.278538197279,-0.205233797431,0.0827155336738,-0.174468040466
2017/07/09/10:19:06.722288,513139,1499566749,528931192,,0.836536897717,0.104765069374,0.112091201929,0.759436126428,0.644093088986,0.072037510851,0.0566697417203,0.0595887106733,-0.220555830584,-0.109947837703,0.0826615182281,-0.0230457515872,-0.265378638604,0.75297921896,-0.1488904953,0.143801763654,-0.141383051872,0.182246759534,-0.151178643107
2017/07/09/10:19:06.732388,513140,1499566749,538930363,,0.836799523447,0.102453818547,0.110913130526,0.760187264794,0.643259463369,0.071678907589,0.0565218492164,0.0547751795915,-0.233758565967,-0.100204054899,0.0803705564184,-0.018604541616,-0.302180008333,-0.254332065582,-0.101631343365,-0.128507107496,-0.0936283916235,-0.20397439599,-0.126698255539
2017/07/09/10:19:06.742226,513141,1499566749,548926365,,0.83717287174,0.100034036508,0.109854181345,0.761212684834,0.642048585376,0.0719288195522,0.0561703425418,0.0530766292288,-0.233511619968,-0.113422243956,0.0835360312281,-0.0112434541633,-0.272930137962,-0.0687559247017,-0.100231230259,-0.228413075209,-0.175944432616,-0.140940576792,-0.157117128372
2017/07/09/10:19:06.752383,513142,1499566749,558935173,,0.837616578384,0.0982861903894,0.10861288189,0.762298240428,0.640769399998,0.0721289668279,0.0557976774766,0.0443583034744,-0.229138928471,-0.111375494894,0.076989423277,0.00552337242473,-0.285340136098,0.197898954153,0.248098701239,-0.439217150211,-0.26813107729,-0.137263432145,-0.168280780315
2017/07/09/10:19:06.762272,513143,1499566749,568924247,,0.837437185306,0.0962343034206,0.107030497173,0.763288224689,0.639673924927,0.072038710621,0.0549434253701,0.0457015054501,-0.23203040028,-0.115046831397,0.0899950154287,-0.00199314408842,-0.317271731828,0.557471573353,0.0543140172958,-0.698831379414,-0.298464328051,0.0295183844864,-0.216656118631
2017/07/09/10:19:06.773792,513144,1499566749,578924012,,0.838873399901,0.0941304725985,0.10651184664,0.763950318203,0.638726604011,0.0730428461672,0.0554344592253,0.050995141478,-0.226755611861,-0.118809788425,0.0944156324733,-0.0114492079458,-0.297399520901,1.92356300354,0.0824050605297,-0.250530570745,-0.244729653001,0.483023226261,-0.171612858772
2017/07/09/10:19:06.782217,513145,1499566749,588924332,,0.839020612737,0.0916731915391,0.105269259273,0.764949607404,0.637588521995,0.0726871214351,0.0552227953854,0.0751118494993,-0.219617910554,-0.103017511655,0.105453673954,-0.072716871711,-0.288256921132,2.10225224495,0.188821583986,-0.572295248508,-0.186283141375,0.587644398212,-0.152439311147
2017/07/09/10:19:06.792067,513146,1499566749,598926879,,0.840035445952,0.0893459548724,0.104856234497,0.76582033491,0.636404586308,0.0736218537648,0.055571933685,0.0603225226548,-0.225957145441,-0.109660574608,0.0828664999337,-0.0377657359459,-0.28250143402,2.12899708748,-0.527737915516,-0.563343584538,-0.0542047321796,0.63134431839,-0.146967798471
2017/07/09/10:19:06.802264,513147,1499566749,608925110,,0.840165168099,0.088117526839,0.103028614398,0.766382176404,0.635808897293,0.0736181522538,0.0546422315813,0.0538957311399,-0.202393674922,-0.11005328065,0.0989715285186,-0.0236626865941,-0.229539683306,1.71259987354,-0.108885958791,-0.531504929066,-0.0960302650928,0.476309239864,-0.107604213059
2017/07/09/10:19:06.812339,513148,1499566749,618952460,,0.84110882377,0.0857267376678,0.102127862712,0.767303564642,0.634603315647,0.0741422377533,0.055016361553,0.0541373543248,-0.200322498633,-0.106155640767,0.0942497623625,-0.0370475088179,-0.217449632275,1.80680060387,-0.5881909132,-0.363994836807,-0.0330224521458,0.577925980091,-0.132874295115
2017/07/09/10:19:06.822319,513149,1499566749,628923423,,0.841585495122,0.0838681126888,0.101174952595,0.768041948065,0.63368432877,0.074505960779,0.0548142252772,0.0693861506966,-0.209939464371,-0.0988814639254,0.0671007901662,-0.0593919536424,-0.210791438905,2.04356956482,-0.435296833515,-0.704175055027,0.00844991952181,0.708356618881,-0.0887916088104
2017/07/09/10:19:06.832273,513150,1499566749,638936497,,0.841575056582,0.0823091940344,0.0995792655231,0.768840998757,0.632797339446,0.0744552204834,0.0539209232467,0.0451718548924,-0.225842739408,-0.113196912403,0.0763603858992,-0.00829305153301,-0.280525929921,2.31792068481,0.00654847919941,-1.10377216339,-0.232087567449,0.794036090374,-0.171473950148
2017/07/09/10:19:06.842702,513151,1499566749,648926195,,0.842092574914,0.080370482994,0.0988349775325,0.769588806822,0.631873737985,0.0746686216189,0.0537888892268,0.0287964468331,-0.209919849201,-0.11736257289,0.0936426455847,0.0284152550715,-0.258149439928,2.34090328217,-0.194810569286,-1.30162608624,-0.0714987888932,0.664153754711,-0.0947572737932
2017/07/09/10:19:06.852168,513152,1499566749,658925526,,0.842436339659,0.0786752458214,0.0981906389939,0.770170415308,0.631147767275,0.0749506961429,0.0535949661458,0.0356852714276,-0.206164947933,-0.107388071382,0.0828029847644,0.0085578183884,-0.244863442284,2.56580734253,-0.293411880732,-1.14258885384,-0.112944096327,0.695458114147,-0.124798715115
2017/07/09/10:19:06.862356,513153,1499566749,668931269,,0.842846472457,0.0767387819069,0.0971249584656,0.771028727885,0.630097619607,0.0749574974778,0.0536009712026,0.0287057798254,-0.206291954852,-0.108304339413,0.105135688745,0.0193269487716,-0.288480335824,3.56199765205,0.0062006264925,-1.26791989803,-0.228348493576,0.988188564777,-0.186557918787
2017/07/09/10:19:06.872403,513154,1499566749,678932590,,0.843006084079,0.0744587156872,0.0960887380308,0.772261428468,0.628591466724,0.0751994150576,0.0531987033409,0.0285507922307,-0.186702051311,-0.105317040602,0.0984021055837,0.0207935775452,-0.29958788047,4.25665473938,-0.317248135805,-0.924757361412,-0.155550956726,1.24813652039,-0.146829992533
2017/07/09/10:19:06.882324,513155,1499566749,688926916,,0.843460881457,0.0726972187532,0.0954402648083,0.773175732283,0.627459552572,0.0752850878313,0.0531596881488,0.0288404626875,-0.184412412522,-0.107958733266,0.10780709794,0.0159078720313,-0.297350075272,4.69712734222,-0.420735508204,-0.511828482151,-0.096074834466,1.50356400013,-0.168623954058
2017/07/09/10:19:06.892278,513156,1499566749,698952808,,0.843867069853,0.0707187690727,0.0941278455197,0.773896257968,0.626534804083,0.0756983215309,0.0529951440493,0.0322025571384,-0.175814139009,-0.102813313747,0.0937289590964,0.00665699864769,-0.292492972509,3.36021542549,-0.884615063667,-0.439003199339,0.110650286078,1.06950473785,-0.0868341103196
2017/07/09/10:19:06.902552,513157,1499566749,708936649,,0.843587976186,0.0688366473351,0.0924377070991,0.775153643039,0.625075954088,0.0754039309246,0.0522602000118,0.0137330554527,-0.191728981209,-0.133674875733,0.094182829548,0.0439183977441,-0.308268587323,3.1588177681,-0.801908195019,-0.881408929825,0.157899826765,1.07071244717,-0.0827995091677
2017/07/09/10:19:06.912321,513158,1499566749,718927243,,0.843577185594,0.0667796379573,0.0915796648928,0.776316331179,0.623643708424,0.0755872683007,0.0518463475982,0.0353631817841,-0.164925665931,-0.107158439132,0.0947602488261,-0.00693263769078,-0.269627436198,2.92233228683,-1.27551555634,-0.343979656696,0.274378865957,1.12289392948,-0.0328208506107
2017/07/09/10:19:06.922426,513159,1499566749,728937802,,0.843605257498,0.0659634429459,0.0903421779088,0.776632029958,0.623342582996,0.0752354441126,0.0512478508466,0.016683644691,-0.180764510403,-0.104970695977,0.0861787305025,0.0214323761612,-0.266285832894,2.29413962364,-0.114507392049,-0.532415509224,-0.0560021661222,0.901345014572,-0.145289972425
2017/07/09/10:19:06.932345,513160,1499566749,738937131,,0.843524740216,0.0637884606752,0.0890815326933,0.777561505795,0.622222758244,0.0752167164304,0.0507876894352,0.00701067805571,-0.183448413074,-0.11732164688,0.0885455846833,0.0493413143152,-0.285498779022,2.10679888725,-0.504342198372,-0.123208723962,0.10607444495,0.816389739513,-0.0949778184295
2017/07/09/10:19:06.942397,513161,1499566749,748925651,,0.843945894477,0.0620903371555,0.0883437494771,0.778423321709,0.621099026504,0.0755460597836,0.050851984692,-0.00103151380652,-0.188310338196,-0.125983542416,0.0869232777373,0.0686013812868,-0.301949739184,2.91757488251,-0.396673947573,-0.184994712472,-0.0363915115595,1.11242461205,-0.150872901082
2017/07/09/10:19:06.952412,513162,1499566749,758936906,,0.843860942852,0.060343753846,0.0871739116001,0.779463818091,0.619867424218,0.075299699788,0.0503039550284,0.00609505139452,-0.170889041336,-0.1046618169,0.0854826383768,0.0536510808183,-0.254939869171,2.86701607704,-0.55152285099,-0.42259439826,-0.0461798161268,1.09267437458,-0.196790382266
2017/07/09/10:19:06.962518,513163,1499566749,768924128,,0.844185200013,0.058380787902,0.0863834438362,0.78004469061,0.619101914105,0.0754617532101,0.0504839024424,0.0131714159183,-0.177378698035,-0.0924885521528,0.0760765279244,0.0270360010235,-0.262271468849,3.12188506126,-1.00668406487,-0.395149290562,-0.00235082954168,1.17783403397,-0.176846206188
2017/07/09/10:19:06.972223,513164,1499566749,778923838,,0.844993620164,0.0573620741413,0.0859863646535,0.780827617581,0.618020099654,0.076297395623,0.0503795143593,0.0129318021227,-0.178478266184,-0.106236659395,0.0726441194784,0.0193816564941,-0.268014637037,4.64695930481,0.915401875973,-0.413346678019,-0.21713873744,1.7427188158,-0.203154027462
2017/07/09/10:19:06.982368,513165,1499566749,788936624,,0.844357691655,0.0557597282222,0.0843583428848,0.781915087684,0.616762741414,0.0759468135143,0.0494428758532,0.00977212665063,-0.175469328653,-0.106063956935,0.0785512686435,0.0168376653556,-0.28109255965,4.29661512375,0.449082404375,-0.735134184361,-0.0354507118464,1.60762882233,-0.142727643251
2017/07/09/10:19:06.992276,513166,1499566749,798938025,,0.844796631182,0.0542880390277,0.0832674842071,0.782380975873,0.616138639352,0.0761651442939,0.0495182439497,0.0198206903325,-0.174884091338,-0.108110018553,0.0898257418748,-0.012067624073,-0.290168474594,4.20301628113,0.312188625336,-0.984375357628,-0.119397550821,1.61300313473,-0.202768012881
2017/07/09/10:19:07.002425,513167,1499566749,808929342,,0.844940346676,0.0521754607795,0.0823936365719,0.783137929314,0.615167405631,0.0759400277027,0.0499715810308,0.0241884727932,-0.162084856032,-0.111602707642,0.0728387437387,-0.0166376510901,-0.238469084311,4.26756238937,0.545453310013,-0.875763833523,-0.295767396688,1.66231203079,-0.28362005949
2017/07/09/10:19:07.012521,513168,1499566749,818944379,,0.844846993902,0.0511919900165,0.081182128493,0.784059048093,0.614023720802,0.0763436358729,0.0489686497491,0.0173470068751,-0.179636158214,-0.0839013326417,0.047853504869,-0.0155918220262,-0.254038710737,3.81127405167,0.566039800644,-0.528934121132,-0.221349716187,1.45101869106,-0.217782407999
2017/07/09/10:19:07.022450,513169,1499566749,828931548,,0.84557192978,0.0482855716217,0.0810509492242,0.785135509813,0.612499390934,0.0768887809668,0.0499484003527,0.0306934734625,-0.169818594379,-0.0749692406086,0.0615787624505,-0.0488626454789,-0.270600648406,3.40529060364,0.640188157558,-0.274926453829,-0.195418775082,1.31716406345,-0.216458976269
2017/07/09/10:19:07.032303,513170,1499566749,838932190,,0.84593186064,0.0474596980562,0.0800863185355,0.785637283404,0.611837941585,0.0772804116534,0.0495593597391,0.0210328375974,-0.175824557941,-0.08844525725,0.0585270125904,-0.023290937987,-0.274183616413,3.37722229958,0.758938074112,-0.266306966543,-0.303408741951,1.34649777412,-0.272917151451
2017/07/09/10:19:07.042428,513171,1499566749,848937023,,0.845819747404,0.0457490695336,0.078783929603,0.786355337174,0.610942941959,0.0771153767879,0.0494694252146,0.0181293600746,-0.173200447435,-0.101831739165,0.0632161327818,-0.0237341176855,-0.249498588506,2.39358997345,-0.370936989784,-0.519556820393,0.361729562283,0.881723284721,-0.066029265523
2017/07/09/10:19:07.052243,513172,1499566749,858932042,,0.846342338838,0.0451749562507,0.0777755486778,0.786711772463,0.610409481754,0.0780267721448,0.0489558421643,0.0107471460271,-0.187401539111,-0.110549353406,0.0538675272198,-0.0161759972417,-0.26552020098,1.48862969875,-2.03377819061,-0.499857902527,1.31930530071,0.508098781109,0.202380552888
2017/07/09/10:19:07.062070,513173,1499566749,868928941,,0.846361563448,0.0430600124604,0.077510916553,0.787621510787,0.609210454275,0.0781919483424,0.0489999730744,0.028086580983,-0.143383522787,-0.0944409548505,0.0992589725821,-0.0507043133922,-0.232783679908,1.02241516113,-2.78607702255,-0.584834694862,1.70710659027,0.309426814318,0.305167973042
2017/07/09/10:19:07.072650,513174,1499566749,878935779,,0.84633213935,0.0402507418576,0.0761131128445,0.788583603618,0.607958636729,0.0778911678355,0.0495495923669,0.025254112066,-0.157449440377,-0.0945998522929,0.0840784726236,-0.0477240174312,-0.237829743859,1.64360642433,-2.34019947052,-0.526917397976,1.3786906004,0.672417402267,0.155554383993
2017/07/09/10:19:07.082403,513175,1499566749,888931892,,0.8465461131,0.0402240857326,0.0750620662114,0.789371450097,0.606891020021,0.0789720588134,0.0483675254376,0.0290306347049,-0.160122785742,-0.0930134071954,0.067116952442,-0.0607813883234,-0.239329675584,2.54089045525,-1.43787992001,-0.270981431007,0.741102576256,1.15427553654,-0.0205188393593
2017/07/09/10:19:07.092201,513176,1499566749,898931677,,0.846816449421,0.0375738905053,0.0741040178935,0.790138095535,0.605844215137,0.0789487392374,0.049006872403,0.0201560108021,-0.150465285008,-0.106399853242,0.0993957044758,-0.0372601285669,-0.257220214841,2.93615484238,-0.286172986031,-0.124801427126,0.0684861242771,1.41638016701,-0.216138601303
2017/07/09/10:19:07.102271,513177,1499566749,908929753,,0.846935235081,0.0373414960462,0.0731412206607,0.790509873737,0.605346750105,0.0794642081086,0.0483207128648,0.0205759507508,-0.144397254119,-0.10895551502,0.110459438022,-0.0365406544346,-0.228184166613,3.33051514626,0.242956206203,0.0531739741564,-0.191088080406,1.61997270584,-0.252709388733
2017/07/09/10:19:07.112369,513178,1499566749,918932001,,0.84689730403,0.0349108009585,0.0716875319534,0.791139786724,0.604534785213,0.0792823841297,0.0484750956334,0.00985918956742,-0.157681686094,-0.109334964884,0.0857720980276,-0.0305186472688,-0.201053669246,2.93188738823,0.29168894887,0.208010405302,-0.107118591666,1.44127905369,-0.187404587865
2017/07/09/10:19:07.122364,513179,1499566749,928926980,,0.847273395926,0.0331326345014,0.0713478138865,0.791217154365,0.604367209305,0.0794715813515,0.0489893734779,0.009783902771,-0.181468031173,-0.102186820826,0.0100277016638,-0.0229279130833,-0.162548004716,2.98460531235,0.00497764348984,0.135925233364,0.0892321616411,1.44686365128,-0.162922665477
2017/07/09/10:19:07.132451,513180,1499566749,938931606,,0.846281345655,0.0314226619419,0.0693836652694,0.791940752956,0.603581059291,0.0787376899171,0.0481676744108,-0.0067302616582,-0.206595084634,-0.114265342426,-0.0395446037106,0.0108033099688,-0.128100221245,2.78455734253,-0.498985886574,0.0449157692492,0.413444638252,1.27768719196,-0.0711296349764
2017/07/09/10:19:07.142232,513181,1499566749,948931270,,0.846718098184,0.0294389747397,0.0691205793038,0.791941187649,0.603489185427,0.0791263949269,0.0486720864938,-0.00346016863173,-0.199061842734,-0.106571869384,-0.0195901305012,-0.00116444447294,-0.114197804342,2.8511826992,-0.544216573238,0.0399362184107,0.453799694777,1.2795085907,-0.0811339318752
2017/07/09/10:19:07.152191,513182,1499566749,958928151,,0.846956561159,0.0272288542712,0.0678817756923,0.792447374194,0.602769809467,0.0792944253103,0.04907249783,-0.00451671265572,-0.182796371711,-0.110081116791,0.00711986470504,0.00513872973385,-0.12025695831,3.03563022614,-0.567996382713,0.00974661484361,0.41082829237,1.37457048893,-0.10814011097
2017/07/09/10:19:07.162255,513183,1499566749,968933824,,0.847060143957,0.0266095169328,0.0668723974768,0.792463413643,0.602752605978,0.0794683248915,0.0487423774953,-0.000107155103581,-0.186659554009,-0.110931613651,0.0434538557984,-0.0213369335099,-0.147553683288,2.85775232315,-0.397266358137,-0.0782773345709,0.372950732708,1.24575269222,-0.090217590332
2017/07/09/10:19:07.172247,513184,1499566749,978930907,,0.847276279501,0.0252737144267,0.0656765543451,0.792735145333,0.602370622363,0.0796846380609,0.0486927214755,-0.00114973312616,-0.16638043916,-0.111613355225,0.0350682951711,-0.0114206118154,-0.0755302389993,3.00242352486,-0.114036530256,-0.119963258505,0.07243488729,1.35217058659,-0.168834328651
2017/07/09/10:19:07.182264,513185,1499566749,988930389,,0.847085288947,0.0226522325536,0.0647139608828,0.793040545908,0.601924064591,0.0798839607743,0.0489148834607,-0.00115809366344,-0.174719618357,-0.115446879128,0.0390028453341,-0.0245810323072,-0.0750526811316,2.87706136703,-0.0407315194607,0.0710860267282,0.0308295786381,1.32405912876,-0.125769227743
2017/07/09/10:19:07.192055,513186,1499566749,998931286,,0.846687345465,0.0203360315997,0.0633824475801,0.793520915337,0.601321025055,0.0796480279593,0.0489262035366,-0.010824549033,-0.206756454769,-0.115472057273,0.000721278598374,-0.0179783274779,-0.0683324471335,2.67072701454,-0.124078303576,0.203976199031,0.0502575039864,1.29610002041,-0.12866447866
2017/07/09/10:19:07.202528,513187,1499566750,8954868,,0.846542930791,0.0191969005572,0.0621047755997,0.79287521729,0.602221494489,0.0792865573766,0.0489060650767,-0.00924313857086,-0.216411469083,-0.110324971797,-0.0386713287832,-0.0235360990739,-0.049070886614,2.52958607674,-0.414683103561,0.45598217845,0.209158092737,1.26789021492,-0.0384927392006
2017/07/09/10:19:07.212178,513188,1499566750,18930798,,0.846726993988,0.0177606237539,0.0611673997483,0.792806938181,0.602271710263,0.0794085048668,0.0491958854436,-0.00457688602852,-0.216722594081,-0.101572998199,-0.0890779738413,-0.0199404661042,0.00182714596294,1.87972283363,-0.141408711672,0.508839786053,0.133184015751,1.01911985874,-0.123850516975
2017/07/09/10:19:07.222272,513189,1499566750,28930716,,0.846643985201,0.0163792682485,0.0602544962364,0.792620535879,0.602548317324,0.0791274695913,0.0492651494444,-0.0189646004073,-0.20539176467,-0.10831816796,-0.0798070257817,0.0134530156627,0.0182177440766,2.22678375244,-0.431240350008,0.484537541866,0.280435204506,1.13078022003,-0.118668541312
2017/07/09/10:19:07.232323,513190,1499566750,38924616,,0.846348148051,0.0123067639514,0.0595659472941,0.793146097111,0.601809803807,0.0789186771154,0.0501604533691,-0.0437751273522,-0.199278003622,-0.128884168046,-0.054541881663,0.0669377741253,0.037025891857,2.80945086479,-0.527195990086,0.361525297165,0.338280797005,1.36140811443,-0.107758045197
2017/07/09/10:19:07.242177,513191,1499566750,48932110,,0.845150552772,0.010961138578,0.0573573836659,0.792991271269,0.602220005348,0.0779561932476,0.0491806952452,-0.03701568782,-0.188715898249,-0.127273557621,-0.0112897298901,0.0484160057471,0.0168306372623,2.59223604202,-0.510576367378,0.31164675951,0.431763380766,1.23083007336,-0.0305132716894
2017/07/09/10:19:07.252301,513192,1499566750,58932718,,0.844721959343,0.00920578621503,0.0560564840594,0.793259414478,0.601894281856,0.0779996752459,0.0487732044609,-0.0370374841796,-0.186006715372,-0.128241304118,-0.0104095348525,0.0456863751586,0.00789359666514,2.68213558197,-0.367748200893,0.201552659273,0.271917939186,1.26315116882,-0.054048165679
2017/07/09/10:19:07.262359,513193,1499566750,68939667,,0.844810258984,0.00760892769795,0.0553575484302,0.792801426553,0.602470902394,0.0779062318358,0.0492476280239,-0.0364953710032,-0.173695060031,-0.13778618443,-0.0060147365258,0.0497589812701,0.0473152603279,2.3200969696,-0.192132651806,0.206562161446,0.174548640847,1.15612351894,-0.0995229035616
2017/07/09/10:19:07.272341,513194,1499566750,78931281,,0.84453510201,0.0058887579571,0.0537716028033,0.792674140898,0.602648273197,0.0779446557419,0.0490652199223,-0.049445047951,-0.189274959435,-0.150591175862,-0.0120974561916,0.0683672742744,0.0434347141375,2.36504793167,-0.177106752992,0.301704645157,0.0910882875323,1.19212698936,-0.0833962857723
2017/07/09/10:19:07.282076,513195,1499566750,88939116,,0.843168540252,0.00346495857116,0.0520297201261,0.793000783349,0.6023911364,0.0769768160818,0.0484690228948,-0.0487765581994,-0.198866856933,-0.135954848064,-0.00921756217605,0.0555231967325,0.0121493656733,2.28332161903,-0.142670661211,0.393624514341,0.0869348943233,1.13708984852,-0.0876757949591
2017/07/09/10:19:07.291983,513196,1499566750,98923236,,0.843457739943,0.00276889775326,0.0513021377054,0.792451969157,0.603059005611,0.0774960504837,0.0483122602449,-0.0460886700902,-0.196335125394,-0.114223876262,-0.000395350023977,0.037890097523,0.0249497218679,2.02840852737,-0.169465318322,0.508914351463,0.118784680963,1.02038657665,-0.0611986368895
2017/07/09/10:19:07.302155,513197,1499566750,108929966,,0.842388281463,0.000357707038041,0.0498352794209,0.792403987701,0.603229629127,0.0766694172626,0.0482880448421,-0.0563294152336,-0.208730152222,-0.116029694961,-0.0067591393842,0.0480061020536,0.0321797406468,2.22495293617,-0.517121315002,0.373205691576,0.267243146896,1.05867552757,-0.0607630908489
2017/07/09/10:19:07.312240,513198,1499566750,118930668,,0.842193483406,-0.00207482211068,0.0490749280677,0.792674985611,0.602830128708,0.076955833248,0.0483735758155,-0.0774586309505,-0.191384216765,-0.148958615815,-0.00126417477118,0.10664858763,0.0396930504909,2.50078034401,-0.612329006195,0.174577489495,0.356179773808,1.15818786621,-0.0410155877471
2017/07/09/10:19:07.322635,513199,1499566750,128931643,,0.841327443257,-0.00306163092258,0.0471726342686,0.792414395486,0.603312550686,0.0763543381817,0.0475752777385,-0.0673700982465,-0.18409582791,-0.15500541966,-0.0138435157105,0.0911926109075,0.0708715939934,3.16927933693,-0.89632499218,-0.0192951168865,0.523212015629,1.38382768631,0.00699254870415
2017/07/09/10:19:07.332489,513200,1499566750,138931147,,0.841052954322,-0.00458275749638,0.0457284557754,0.79184210142,0.604087965111,0.0760973663477,0.0476760701114,-0.0688157551223,-0.182460108624,-0.146910785136,0.00633203313019,0.0820150272122,0.055240083158,2.67238283157,-0.654343903065,0.043480347842,0.47855463624,1.21362555027,0.0177979320288
2017/07/09/10:19:07.342084,513201,1499566750,148927875,,0.839769166662,-0.00680027878791,0.0442223367352,0.791864632082,0.60415180108,0.0758795603397,0.0468326598839,-0.0801776311806,-0.187721168302,-0.164304975286,0.0316061271759,0.0874970115352,0.0396538021899,2.77351570129,-0.716015517712,0.082525536418,0.498918563128,1.2710723877,0.0288519710302
2017/07/09/10:19:07.352180,513202,1499566750,158925670,,0.839089363613,-0.00823129853341,0.0421454300353,0.791797241875,0.604285108689,0.0757882084661,0.046398088669,-0.0851750647236,-0.217124297412,-0.149233510453,0.00207112292749,0.0805879666138,0.0489835881065,2.9334590435,-0.5849173069,0.359410047531,0.385259181261,1.38953542709,-0.00505511462688
2017/07/09/10:19:07.362148,513203,1499566750,168936885,,0.838481468581,-0.00983872686479,0.0412716989162,0.791518549265,0.604713766741,0.0753138406884,0.0463408230829,-0.0823752619442,-0.209972486281,-0.146455667623,-0.0178201264026,0.0878882895005,0.0582860545467,1.9603831768,-0.314133435488,0.545524835587,0.151162818074,1.05108082294,-0.0500341393054
2017/07/09/10:19:07.372376,513204,1499566750,178930935,,0.837950955853,-0.0124880039672,0.0401504096804,0.791636246502,0.604556676416,0.075132528681,0.0466731331552,-0.0613998887891,-0.156691585107,-0.134776764601,0.0295026029332,0.0630398224001,0.0723487041032,1.7150042057,-0.213173106313,0.730696201324,0.162524074316,0.938900649548,-0.0458073765039
2017/07/09/10:19:07.382445,513205,1499566750,188931724,,0.837042240806,-0.0138764146683,0.0385500598851,0.791392965821,0.604976679163,0.0746558794624,0.0461182282781,-0.0719688142792,-0.166774048817,-0.155676491781,0.0190964215304,0.0780307524782,0.0948970809988,1.77377068996,-0.1210398525,0.585076153278,0.104408144951,0.926724553108,-0.0755470842123
2017/07/09/10:19:07.392044,513206,1499566750,198926334,,0.836247971208,-0.0159481891343,0.0371670038464,0.791556733855,0.604760567379,0.0749647256673,0.0456386145522,-0.0800392237592,-0.17258878035,-0.163045538074,0.0314168377876,0.0770563553083,0.068273824007,2.60263609886,-0.361288666725,0.485852092505,0.205388307571,1.26081120968,-0.0595559030771
2017/07/09/10:19:07.402484,513207,1499566750,208925777,,0.83500907454,-0.0185850455234,0.0354368198525,0.791394674996,0.605073741282,0.0741613207061,0.0456106841668,-0.0944805506614,-0.201736088502,-0.163365494465,0.0380745817943,0.0791320599077,-0.00445614291924,2.77057313919,-0.606472790241,0.537289977074,0.305273026228,1.38631427288,-0.0504067316651
2017/07/09/10:19:07.412402,513208,1499566750,218927388,,0.834096208165,-0.0192175030152,0.0336026563154,0.791086098111,0.605575319228,0.0739984007331,0.0445595646972,-0.0854665235595,-0.201877997044,-0.162666118207,0.0265697643415,0.055490369097,0.0345107808127,2.31179428101,-0.786808133125,0.361283183098,0.479693561792,1.150182724,0.0173928141594
2017/07/09/10:19:07.422356,513209,1499566750,228931382,,0.833847322532,-0.0209285810171,0.0324825384312,0.791011143281,0.605621632175,0.0743446681999,0.0446842271744,-0.0745715258052,-0.164144440799,-0.163531104314,0.0407769751209,0.0529446645012,0.0690036791798,2.65647101402,-0.771474599838,0.227792516351,0.433221489191,1.27376651764,-0.0310874581337
2017/07/09/10:19:07.432241,513210,1499566750,238932176,,0.833551272672,-0.0227187932822,0.0311335098944,0.791063970576,0.605507745617,0.0747783374016,0.044568651639,-0.073605983907,-0.17555904399,-0.152220732784,0.0420223623831,0.0409161500433,0.0523203156451,2.63798570633,-0.74159514904,0.130452692509,0.403489857912,1.2790261507,-0.0266454666853
2017/07/09/10:19:07.442290,513211,1499566750,248931185,,0.832281746113,-0.0247742425818,0.028999400051,0.790699163481,0.606094592256,0.074070870195,0.0442457263184,-0.0661466220786,-0.184323493076,-0.153850638554,0.0142065739208,0.0181316067937,0.0587898802369,2.66511678696,-0.564379632473,0.306684523821,0.288779497147,1.31633317471,-0.0730495303869
2017/07/09/10:19:07.452257,513212,1499566750,258932127,,0.832290709783,-0.0261985359835,0.0278793671659,0.790306120457,0.606550285705,0.0742552598962,0.0447117798493,-0.0660759653822,-0.19070127934,-0.166295298788,0.0261084216835,4.25747696575e-06,0.024404522986,2.52149963379,-0.580837011337,0.360531508923,0.351100444794,1.24543464184,-0.0634926855564
2017/07/09/10:19:07.462417,513213,1499566750,268934186,,0.831669748208,-0.0281593420417,0.0262311684056,0.790356694254,0.606440168562,0.0746845929764,0.0445962932716,-0.0741548446491,-0.219894890616,-0.161271330898,-0.00869607937361,-0.00722362200652,0.0205421398072,2.51726031303,-0.683152556419,0.524657189846,0.303305447102,1.28913545609,-0.0802734419703
2017/07/09/10:19:07.472214,513214,1499566750,278931034,,0.830958696176,-0.0303765570355,0.0245635227246,0.790561079599,0.6061491599,0.0748441486647,0.0446623867059,-0.0471823432713,-0.180604907601,-0.152915821618,0.0256003213403,-0.0520996060233,0.0389901725844,2.66502833366,-0.810765862465,0.606580853462,0.42809382081,1.32421302795,-0.0225633382797
2017/07/09/10:19:07.482370,513215,1499566750,288927349,,0.830705167731,-0.0318229244549,0.0232995649453,0.79012145834,0.606667273544,0.0752763582567,0.0446807583673,-0.0533222357965,-0.194902497003,-0.170790838518,0.00640922686295,-0.0496319495155,0.0693175867003,2.46727442741,-0.694220721722,0.540975093842,0.301753669977,1.28185212612,-0.0674489885569
2017/07/09/10:19:07.492257,513216,1499566750,298930600,,0.830854390408,-0.0339630398945,0.0221059766952,0.789601419421,0.607188582071,0.0758384406065,0.045827450035,-0.0361383446228,-0.187068983741,-0.1521058963,-0.0157066226988,-0.0852789098603,0.0812076034643,2.43476939201,-0.79101139307,0.420521706343,0.417990148067,1.24830818176,-0.0145625323057
2017/07/09/10:19:07.502271,513217,1499566750,308932466,,0.829799187122,-0.0355479613234,0.0198716049955,0.789358915312,0.607578988923,0.07542712261,0.0455085070298,-0.0470947002702,-0.196492848754,-0.164960799113,-0.0200433390838,-0.0810062515365,0.0634647883698,2.80811262131,-0.900124311447,0.252156674862,0.397171884775,1.4112995863,-0.0128621533513
2017/07/09/10:19:07.512196,513218,1499566750,318931194,,0.829348564792,-0.0369403024144,0.0182034930007,0.789498148296,0.6073203156,0.0762042805398,0.0452505881049,-0.0416051230283,-0.191540065311,-0.176446217194,-0.0411893896807,-0.0817217205408,0.0974249289473,3.31871604919,-1.09845495224,0.0183155480772,0.458730846643,1.54194760323,-0.0135378390551
2017/07/09/10:19:07.522269,513219,1499566750,328927889,,0.828782178585,-0.0396028031917,0.0168756884495,0.789139467587,0.607731714487,0.0761252929389,0.0461086074147,-0.022844236413,-0.187861180881,-0.143143405044,-0.0288931934732,-0.133126254465,0.0833098765023,3.40704035759,-1.20911550522,-0.0739032179117,0.52221763134,1.54013848305,0.0143781006336
2017/07/09/10:19:07.532416,513220,1499566750,338934306,,0.829161118851,-0.0402384684483,0.0157061821469,0.788703640077,0.608143258868,0.0771893760912,0.0463696564703,-0.0229472734981,-0.183220269859,-0.151424691339,-0.0498431478983,-0.129014769059,0.104042987992,3.25901794434,-1.16215419769,-0.27907294035,0.472993016243,1.4460952282,0.00211420655251
2017/07/09/10:19:07.542352,513221,1499566750,348947757,,0.82911408959,-0.0426446828834,0.0143025027056,0.787978316952,0.608969646856,0.0771631141155,0.0478747850258,-0.0104877021417,-0.185777476646,-0.135914471266,-0.0602867934049,-0.166304035389,0.120918640227,3.22250342369,-1.16696107388,-0.27110016346,0.484793752432,1.41965889931,0.014603599906
2017/07/09/10:19:07.552354,513222,1499566750,358930959,,0.828725232804,-0.0459382458793,0.0131536115322,0.788320026596,0.608366397599,0.077875795227,0.0487567683363,-0.0248919202227,-0.236814402926,-0.144005508163,-0.0911847674684,-0.176288430422,0.0570144487892,3.40529561043,-1.48165404797,-0.114759646356,0.637951910496,1.4892553091,0.0707296878099
2017/07/09/10:19:07.562118,513223,1499566750,368930325,,0.828702928396,-0.0467593430747,0.0112662046836,0.787838530517,0.608918829421,0.0781671709608,0.0491752213282,-0.00920801691748,-0.207217803823,-0.130874444609,-0.0758072742949,-0.192703721052,0.0622726865372,3.46399092674,-1.25090742111,-0.0138344559819,0.465323120356,1.52743256092,0.00944779068232
2017/07/09/10:19:07.572334,513224,1499566750,378928123,,0.828438107626,-0.0488053005496,0.0101821498654,0.787966493849,0.608623787078,0.0787740544581,0.049805006963,-0.0181217147719,-0.188806255118,-0.141500383533,-0.0690203715078,-0.16768137874,0.0453963386904,3.68484997749,-1.49857127666,0.268366277218,0.567393600941,1.64509546757,0.0298071652651
2017/07/09/10:19:07.582150,513225,1499566750,388924722,,0.828752272072,-0.0505778285758,0.00890870944922,0.787957423288,0.60846403706,0.0793972414516,0.0508988481184,0.00678825598342,-0.194586649927,-0.114944339676,-0.0639153688536,-0.221653044573,-0.0255549327898,3.56343507767,-1.50830626488,0.285370498896,0.622426629066,1.56240439415,0.0520657524467
2017/07/09/10:19:07.592325,513226,1499566750,398931524,,0.827886208172,-0.0524353809932,0.00729557595391,0.788179891425,0.608144304591,0.079559316066,0.051022336031,0.00223706106278,-0.198138811775,-0.114589589999,-0.0541315319649,-0.216522423094,-0.0561098950489,4.06660699844,-1.77383136749,0.18171453476,0.621062040329,1.73465037346,0.0367178544402
2017/07/09/10:19:07.602100,513227,1499566750,408924346,,0.828013891008,-0.0530944170857,0.00600811671066,0.788157507089,0.608059253109,0.0803698944624,0.0511113372134,-0.0271670340127,-0.20010487299,-0.141257723177,-0.0311288948818,-0.150322703282,-0.111158288671,4.3319106102,-1.82494950294,-0.106924854219,0.706742405891,1.76577162743,0.0760716274381
2017/07/09/10:19:07.612240,513228,1499566750,418930945,,0.827917519618,-0.0561669117893,0.00531721705414,0.788467441593,0.607475078235,0.0809012546588,0.0524224175933,-0.0261608057938,-0.187781458683,-0.129050045307,-0.0200371521344,-0.148400966161,-0.0665505827445,4.12188529968,-1.92157661915,-0.24124404788,0.769672334194,1.60735952854,0.097487077117
2017/07/09/10:19:07.622364,513229,1499566750,428924746,,0.827242778616,-0.0573332551191,0.0038487040979,0.787921137586,0.608175502924,0.0809358397856,0.0524616853201,-0.0235293607248,-0.166706971017,-0.121780901289,-0.0352684566576,-0.134007920743,0.00907533764824,4.84096813202,-2.09497594833,-0.299534648657,0.753385603428,1.89733088017,0.123388722539
2017/07/09/10:19:07.632317,513230,1499566750,438930587,,0.827295587568,-0.0592558344263,0.00282320901368,0.787953650616,0.607976629552,0.0815223052132,0.0533626850171,-0.034091709293,-0.180101391283,-0.123918580945,-0.0457668137283,-0.118278869931,0.0166794397705,4.18254184723,-1.86629629135,-0.324203073978,0.6980265975,1.59626758099,0.0698539763689
2017/07/09/10:19:07.642147,513231,1499566750,448964918,,0.826933261235,-0.0608156326709,0.00207503695769,0.787281347843,0.608819681087,0.0813528568942,0.0539294718551,-0.0411469642114,-0.177810411578,-0.121969386915,-0.059953061363,-0.103384533977,0.0753284935003,5.24042510986,-2.23520088196,-0.474518984556,0.796911537647,2.04941487312,0.0854059308767
2017/07/09/10:19:07.652291,513232,1499566750,458931339,,0.826602990033,-0.0627820170395,0.000941294943572,0.787174890549,0.608824974809,0.0820045999811,0.0544342476739,-0.0488414238409,-0.159897721603,-0.126026244098,-0.056129704388,-0.0747458332208,0.155588831411,5.02905035019,-2.20481777191,-0.407493978739,0.773856163025,2.00613641739,0.0757136791945
2017/07/09/10:19:07.662070,513233,1499566750,468926587,,0.82563227821,-0.0646172460831,-0.00052362149607,0.786492879682,0.609744043159,0.0815277223902,0.0547209514141,-0.0420707926467,-0.166430666126,-0.112894463599,-0.0721840150393,-0.085352953708,0.177929311081,4.82034778595,-2.09771704674,-0.170080453157,0.822287678719,1.93776845932,0.0814674794674
2017/07/09/10:19:07.672438,513234,1499566750,478924054,,0.825167882334,-0.0652261155331,-0.00163271782492,0.785838233279,0.610602525263,0.0815719282172,0.0544871341305,-0.0732332937439,-0.164047115944,-0.127412504286,-0.0302551825722,-0.0200532898962,0.113983600698,4.61910820007,-2.1129784584,-0.134044930339,0.770954310894,1.86594319344,0.0976547971368
2017/07/09/10:19:07.682043,513235,1499566750,488926883,,0.82462540248,-0.0666064820951,-0.00251010617007,0.785373499163,0.611129440802,0.0820544073109,0.0545559129461,-0.0769585016282,-0.150001940604,-0.125802660098,-0.0253412915307,0.0014134350547,0.14587853627,4.42329216003,-1.85745406151,-0.206824094057,0.638286054134,1.78219258785,0.0484342128038
2017/07/09/10:19:07.692302,513236,1499566750,498924793,,0.823487709956,-0.0677378530813,-0.00399782832359,0.784654558568,0.612156839803,0.0814671224749,0.0542617282857,-0.0625975018922,-0.145857407667,-0.101169895624,-0.0387274218462,-0.0203480140022,0.18382696427,4.18003702164,-1.83176648617,0.0725589990616,0.654584169388,1.71600306034,0.0719427838922
2017/07/09/10:19:07.702037,513237,1499566750,508924387,,0.822456941393,-0.0692211727629,-0.00490783471826,0.784090194941,0.612932937753,0.0811923000331,0.0540702360825,-0.0939359268221,-0.16001345299,-0.0984854587598,-0.0603757032484,0.0446667848385,0.201513548926,4.10496616364,-1.79265427589,0.202781200409,0.595289766788,1.74313890934,-0.0362359434366
2017/07/09/10:19:07.712332,513238,1499566750,518930873,,0.821673357143,-0.0705572433391,-0.00576751118652,0.784316822071,0.612671810763,0.0810962310849,0.0538866979613,-0.0882379361052,-0.131553945543,-0.100887708377,-0.0016147017853,0.0393234875544,0.126190473428,4.38105773926,-1.82540631294,0.328089416027,0.590940952301,1.90664577484,-0.0606742352247
2017/07/09/10:19:07.722316,513239,1499566750,528929076,,0.820664982665,-0.0723668109202,-0.00641614495981,0.784229188389,0.6128362751,0.0806363276525,0.0539820587116,-0.108713169655,-0.10848920628,-0.126922015359,0.0436557988388,0.0983477325135,0.0766889106339,5.02240514755,-2.39923977852,0.122587963939,0.961247205734,2.1230225563,0.0705729722977
2017/07/09/10:19:07.732298,513240,1499566750,538928288,,0.81924049544,-0.0732227021296,-0.00846747286321,0.784302210483,0.612851345874,0.0805409642703,0.0528812212932,-0.103623399138,-0.106394454276,-0.111855038933,0.0464998213673,0.0909306529031,0.0554296598688,4.79551362991,-1.97800624371,0.337531208992,0.654291987419,2.15409421921,-0.0734931081533
2017/07/09/10:19:07.742008,513241,1499566750,548924665,,0.819075403398,-0.073767129771,-0.00852960525207,0.783736218206,0.613544366805,0.0807661841409,0.0528930405011,-0.105352443155,-0.104055258471,-0.112429157797,0.0410259554621,0.106797923546,0.0699464697314,4.97350931168,-2.21171855927,0.227382794023,0.829141259193,2.17003750801,0.00661526620388
2017/07/09/10:19:07.752307,513242,1499566750,558929661,,0.817757667764,-0.0749220691155,-0.00969187044181,0.783655239777,0.61377602875,0.0802040355987,0.0522567160852,-0.0943325880372,-0.129796810069,-0.0776538594668,0.0136883170686,0.0639694613523,0.0799489849616,4.33792304993,-1.89333069324,0.411514818668,0.669017493725,1.96524262428,-0.0261458605528
2017/07/09/10:19:07.762279,513243,1499566750,568931207,,0.816808196062,-0.0766709501035,-0.0102047185989,0.783519214462,0.61399203562,0.0798661030256,0.0522764416576,-0.102401542651,-0.12263839369,-0.0864225941042,0.00150258216366,0.0869856650027,0.136978604196,4.41636180878,-2.1681303978,0.145700410008,0.776724159718,1.91573691368,0.0335995107889
2017/07/09/10:19:07.772201,513244,1499566750,578930107,,0.815846429506,-0.0770121101697,-0.0111198401122,0.782694889976,0.615136995023,0.0795839362103,0.0515905384396,-0.104860456898,-0.101479611762,-0.0910155152404,0.0421645199218,0.0946883226979,0.107200763681,4.87952232361,-2.3661646843,0.0327067114413,0.803695559502,2.10882043839,0.0271285325289
2017/07/09/10:19:07.782055,513245,1499566750,588924162,,0.815314150258,-0.0777949326202,-0.0116324682298,0.78234424247,0.615577217439,0.0797543835945,0.0513946878659,-0.0981176897972,-0.0680307892655,-0.097286765816,0.0613499664397,0.101740788905,0.156638905862,5.92952823639,-2.74527049065,-0.246350258589,0.901948928833,2.53419733047,0.0786225944757
2017/07/09/10:19:07.792253,513246,1499566750,598930985,,0.814059014186,-0.078617949468,-0.0128923547033,0.781738110538,0.616445561374,0.0794689900907,0.0506465794311,-0.0964995332874,-0.085734429765,-0.088188076438,0.027663389802,0.0910025058494,0.175485520138,5.96819543839,-2.8587179184,-0.148452177644,0.962934970856,2.50885987282,0.12268961966
2017/07/09/10:19:07.802289,513247,1499566750,608925303,,0.81368125871,-0.0781333149213,-0.0133893058862,0.781198031681,0.617189920485,0.0794529099402,0.0499346818544,-0.0829372713933,-0.0748666861557,-0.079382709776,0.0191307520662,0.075232345571,0.194918915107,5.72094488144,-2.85175085068,-0.237954929471,0.889995753765,2.41753816605,0.0953733623028
2017/07/09/10:19:07.812321,513248,1499566750,618928049,,0.812474495768,-0.0799482877815,-0.014330290762,0.780724891509,0.61787216561,0.0787764485246,0.0499690093985,-0.0758087952272,-0.0839207249488,-0.0672832650896,-0.00121622864644,0.0660734167921,0.174550247925,5.62962150574,-2.87115049362,-0.12464223057,0.923123836517,2.39785480499,0.125090315938
2017/07/09/10:19:07.822324,513249,1499566750,628968668,,0.812618477191,-0.0807004182984,-0.0141537774836,0.780011433042,0.618712204349,0.0789924619283,0.0503742342015,-0.0683228345287,-0.0775760208431,-0.0565959487569,-0.00374895067354,0.0516328129412,0.206505433282,5.90459012985,-2.95738840103,-0.133901908994,0.96860897541,2.49599051476,0.154807239771
2017/07/09/10:19:07.832427,513250,1499566750,638931745,,0.811806725858,-0.0812681469297,-0.0148693340274,0.77953174511,0.619345399093,0.0790480034999,0.049929431498,-0.0524426685889,-0.0646793140072,-0.0482294384576,-0.0153997998578,0.0278261449131,0.229536164609,5.62342882156,-2.97743797302,-0.196592226624,0.932429373264,2.37724900246,0.169180288911
2017/07/09/10:19:07.842520,513251,1499566750,648924481,,0.811411841061,-0.0816969642053,-0.0153693919128,0.779259129503,0.619701284771,0.0791854674921,0.0495498585066,-0.0714151379466,-0.0579449141529,-0.0698518299615,0.0178219249515,0.0671040729648,0.164287103721,5.96268892288,-3.02841091156,-0.265420049429,0.936930656433,2.5338947773,0.137419998646
2017/07/09/10:19:07.852122,513252,1499566750,658923394,,0.810361289486,-0.0823523257408,-0.0165093077127,0.779121468487,0.619997815499,0.0783697426879,0.0493014152965,-0.063578312307,-0.0683476638075,-0.0513232584569,0.0139065118445,0.0490797783658,0.108198147086,5.67315578461,-2.82206892967,-0.222594708204,0.819703578949,2.41962718964,0.127175241709
2017/07/09/10:19:07.862092,513253,1499566750,668924796,,0.810180526257,-0.0829249577599,-0.0163138903256,0.779252311515,0.619806298478,0.0786191552382,0.0492444493841,-0.0591630388172,-0.0629726695798,-0.0506727982198,0.0134173837413,0.053509233406,0.0504410692121,6.04971647263,-2.99790239334,-0.417207628489,0.822284281254,2.55279803276,0.108508698642
2017/07/09/10:19:07.872263,513254,1499566750,678923783,,0.809039666352,-0.0830174934248,-0.0174846631879,0.77851688671,0.620873339334,0.0779956824302,0.0484192847251,-0.042585533686,-0.0374773900762,-0.038182096075,0.0193308473948,0.0342884226536,0.104287885935,6.19541597366,-3.00095629692,-0.387389540672,0.897166728973,2.57576346397,0.145500734448
2017/07/09/10:19:07.882120,513255,1499566750,688923675,,0.809400779838,-0.0837951525852,-0.0169253373313,0.777975817794,0.621449304887,0.0784533132234,0.0489843447194,-0.0614152784133,-0.065484172987,-0.0464757872174,-0.00731933204743,0.0564253008803,0.102747438875,6.43928909302,-3.41817569733,-0.684132158756,1.09577465057,2.60749149323,0.220667123795
2017/07/09/10:19:07.892210,513256,1499566750,698931170,,0.808104059461,-0.0844858210982,-0.0180965738224,0.777884326168,0.621711166078,0.0777328083872,0.0482577618291,-0.0600353133411,-0.05907152749,-0.0463220120085,-0.0180259490435,0.0591914057746,0.171383925597,6.06337404251,-2.9952044487,-0.433997780085,0.97601211071,2.43835926056,0.163296401501
2017/07/09/10:19:07.902142,513257,1499566750,708931120,,0.808571514678,-0.0847390510115,-0.017868590878,0.777259270386,0.622427925332,0.0778182707633,0.0489471255758,-0.0387070773304,-0.0438766562319,-0.031217938176,-0.0261772337766,0.0331220993489,0.179361946009,5.93258953094,-3.11345982552,-0.323016643524,1.01957046986,2.44391107559,0.185901626945
2017/07/09/10:19:07.912324,513258,1499566750,718931040,,0.808234512902,-0.0844475800639,-0.0182279111382,0.777020296782,0.622751752683,0.0778328241488,0.0485979876425,-0.0343839678394,-0.0415338000998,-0.0349170017986,-0.0310864172441,0.034909183546,0.09432631701,5.46899938583,-2.99592018127,-0.0288357529789,0.975928544998,2.28595352173,0.167093545198
2017/07/09/10:19:07.922691,513259,1499566750,728928259,,0.807688824424,-0.0849780229368,-0.0187337133961,0.776972946324,0.622882277574,0.0773763577381,0.0484108275796,-0.0152408136059,-0.0231861705342,-0.0189868480922,-0.0112349365785,0.00490746979254,0.0477866954962,5.23247146606,-2.86168766022,0.254804462194,0.995346903801,2.19545459747,0.265770226717
2017/07/09/10:19:07.932382,513260,1499566750,738931183,,0.807704441934,-0.0847291986544,-0.0190656591535,0.77646422705,0.623493613806,0.0777543427893,0.0480965677749,-0.0249989696769,-0.0270290128945,-0.0269719753121,-0.0226151745838,0.0275028990896,0.113337202307,5.22139787674,-2.68807768822,0.205493047833,0.868474304676,2.20744252205,0.230069026351
2017/07/09/10:19:07.942292,513261,1499566750,748930507,,0.806948637991,-0.0855010582678,-0.0190462905063,0.77585471539,0.624330968139,0.0771507165011,0.0480423747642,-0.0210933258426,0.000178690900379,-0.0227001713766,-0.0127496426807,0.0318525653571,0.199281702416,5.52897644043,-2.80282521248,-0.320004343987,0.866177082062,2.24750304222,0.213902443647
2017/07/09/10:19:07.952227,513262,1499566750,758924306,,0.80699203566,-0.0855042131758,-0.019436829408,0.775422947695,0.624861044754,0.0771823923409,0.0480708357432,-0.0370854377082,-0.00213157797473,-0.0248704417581,-0.00538007747594,0.0617899134345,0.190646263375,5.80990457535,-2.98542952538,-0.565666675568,0.987999022007,2.26702928543,0.26498311758
2017/07/09/10:19:07.962250,513263,1499566750,768925014,,0.8057680431,-0.0862818013142,-0.0195101716691,0.77518276502,0.625301853546,0.0762546581513,0.0476917170798,-0.0385756273927,-0.00603582860261,-0.0180387068749,0.0125632834105,0.0584287795608,0.163684185912,6.5106215477,-3.48851323128,-0.732027292252,1.27111935616,2.44874501228,0.357423871756
2017/07/09/10:19:07.972408,513264,1499566750,778930074,,0.806611277168,-0.0854790050363,-0.0191697461642,0.774777476952,0.625708114955,0.0769152011363,0.0478880770368,-0.0381142254349,-0.0435575951799,-0.00763038731322,-0.0426163943703,0.0461039807092,0.117488620385,6.90875101089,-3.54141545296,-0.849292457104,1.19463717937,2.61588120461,0.34302136302
2017/07/09/10:19:07.982420,513265,1499566750,788940290,,0.805870592254,-0.0858358564825,-0.0196875742267,0.774674668285,0.625929289086,0.0763650973834,0.0475400387458,-0.0198934966866,-0.00533384540642,-0.010125483576,-0.00742717738161,0.0306605038014,0.0870003824603,6.61703634262,-3.26697206497,-0.846509099007,1.13388180733,2.43662929535,0.319040805101
2017/07/09/10:19:07.992227,513266,1499566750,798928634,,0.80571303315,-0.0863157513464,-0.0195750779622,0.774772056469,0.625822541621,0.0761874627967,0.0476432306465,-0.0173748009543,-0.0193472709231,-0.00461967420387,-0.0144597254688,0.0297865707898,0.0231372776482,6.29336977005,-3.26755976677,-0.949740290642,1.1129232645,2.28930830956,0.293130427599
2017/07/09/10:19:08.002137,513267,1499566750,808926059,,0.80604343036,-0.0854666733679,-0.0194198129628,0.77471074082,0.625877020258,0.0764882746545,0.0474422534395,-0.0041953806433,0.000330341469598,0.0019302625269,0.00802877778182,0.00588507181418,-0.0146515438579,6.01125001907,-3.00688815117,-0.917451798916,1.04392659664,2.18083238602,0.266760647297
2017/07/09/10:19:08.012371,513268,1499566750,818931443,,0.805498852658,-0.0855131127464,-0.0198097463909,0.774536353662,0.626140714058,0.0764038733831,0.0469434892969,-0.0068310485694,0.00295193181643,-0.00334577809291,0.0215427628232,0.0101628259588,-0.0303656129492,5.39505004883,-2.97650933266,-0.885374486446,1.0346391201,1.95646286011,0.248662993312
2017/07/09/10:19:08.022312,513269,1499566750,828931115,,0.805793114273,-0.085704207767,-0.0196405591406,0.774668864392,0.625931542915,0.0765735561816,0.0472688546389,0.00291922785464,-0.00550715545982,0.000369737584971,0.00689112645188,-0.0156968404895,-0.0103437263534,5.51218175888,-2.94651269913,-0.945498645306,1.08714556694,1.97308969498,0.296645998955
2017/07/09/10:19:08.032499,513270,1499566750,838948861,,0.805711015369,-0.0857029415105,-0.0198338955362,0.774656128012,0.625973860047,0.076294428561,0.0473684498573,-0.0112555207184,-0.0119623259452,-0.00173882499145,-7.63429789992e-05,0.00819627588206,-0.0278340673938,4.83523654938,-2.6592540741,-0.824583351612,0.973744452,1.7290623188,0.244761630893
2017/07/09/10:19:08.042373,513271,1499566750,848927755,,0.805275378142,-0.0858318232422,-0.0197452819687,0.774752412601,0.625903911035,0.0760809446788,0.0470604204897,-0.0165641717154,-0.0105522968262,-0.0116262567082,-0.0202415401807,0.028390764993,0.00378209409285,5.48155403137,-2.99420380592,-1.15366780758,1.08510601521,1.95905017853,0.290656924248
2017/07/09/10:19:08.052036,513272,1499566750,858929362,,0.805786304781,-0.0859180805472,-0.0195657260648,0.774591282713,0.626046195369,0.0761909184686,0.0476387442272,0.00206812343436,-0.00380043246465,0.0120079273314,-0.0106791296998,-0.00976943292329,0.012267962285,5.57867956161,-2.84941530228,-1.06404519081,1.01313865185,2.04677772522,0.237868443131
2017/07/09/10:19:08.062301,513273,1499566750,868928187,,0.806425668522,-0.08471806107,-0.0191140847935,0.774376610337,0.626241934944,0.0769544146835,0.0473278178486,-0.00237748131906,-0.00450896388001,0.0018959766641,-0.0294831955135,0.00996683906746,0.00906511787929,5.78631448746,-2.9290292263,-1.14522719383,1.04824495316,2.11577939987,0.269624829292
2017/07/09/10:19:08.072234,513274,1499566750,878930601,,0.80602271231,-0.0850973036436,-0.0195088447063,0.774752932685,0.625829643802,0.0765932128933,0.0472083676239,0.00751318854707,0.0139086778597,0.00284297716149,0.0159800973922,-0.0138627483005,0.00347862175577,6.10323905945,-3.21890926361,-1.12132668495,1.19681179523,2.23805165291,0.300628572702
2017/07/09/10:19:08.082393,513275,1499566750,888928275,,0.805667600823,-0.0865239286816,-0.0195335153022,0.774608162211,0.626036888696,0.0759189360914,0.0479199767402,0.00648409755912,0.0247604894466,-0.00337625242242,0.0253778887254,-0.00396242332532,0.0317528154628,5.37446212769,-3.1199901104,-1.07089757919,1.20333349705,1.9437032938,0.292908519506
2017/07/09/10:19:08.092089,513276,1499566750,898934385,,0.806299263116,-0.0852609084537,-0.0194043611799,0.774681222872,0.625853890535,0.0769225166658,0.0475272244352,0.00527926340274,-0.00180127846885,0.00846600364807,-0.0113340413836,-0.0078106471494,0.0155240691317,5.09764671326,-2.98069787025,-1.01312053204,1.15349733829,1.83036780357,0.297359794378
2017/07/09/10:19:08.102118,513277,1499566750,908925715,,0.806474695725,-0.0852338110097,-0.0191124753208,0.774230699902,0.626379489544,0.0770814293,0.0476865983755,0.0118501637478,0.0185968472926,0.00257758330264,0.0121268324554,-0.0113759915274,0.0232727244973,5.32611179352,-2.9620578289,-1.29402756691,1.08753430843,1.89761912823,0.250164270401
2017/07/09/10:19:08.112247,513278,1499566750,918924935,,0.806535718284,-0.0862218623757,-0.0187306196555,0.774750728676,0.62573015073,0.0767828001375,0.048244051307,0.0098702625815,8.48459759641e-05,0.0121649821931,0.00201611650653,-0.0226548798748,0.00593173214005,5.27152776718,-3.08392643929,-1.18642628193,1.17176699638,1.8773624897,0.298064410686
2017/07/09/10:19:08.122266,513279,1499566750,928963943,,0.806182314363,-0.0852301255575,-0.01936250516,0.774531419921,0.62608214462,0.0766458520889,0.0474092933917,-0.00652673788107,0.00164235658676,-0.00370789686528,0.00341136832742,0.020199513623,-0.00249559961032,4.72280979156,-2.85384011269,-1.25644135475,0.998172521591,1.66423475742,0.225370407104
2017/07/09/10:19:08.132239,513280,1499566750,938932837,,0.806301521128,-0.085709407875,-0.0193515884009,0.774376916572,0.626260918229,0.0763776727275,0.0480010884125,-0.0118785053215,-0.00612394729497,-0.00236663422047,-0.020548115647,0.0299532996174,0.00240470156726,5.03075456619,-2.9485514164,-1.3258254528,1.09491229057,1.76354622841,0.255640149117
2017/07/09/10:19:08.142480,513281,1499566750,948931128,,0.805749369731,-0.0855372836295,-0.0194561141488,0.774561538597,0.626108790675,0.0760938382923,0.0474545355068,-0.0128288075561,-0.00967807462374,-0.00519673372173,-0.0187207342336,0.0267573143896,-0.0112445672427,5.23388195038,-3.16662335396,-1.28455710411,1.25876045227,1.80038070679,0.285631597042
2017/07/09/10:19:08.152305,513282,1499566750,958931038,,0.806123771424,-0.0859403846633,-0.0194425733906,0.774710156019,0.625858580529,0.0763523865986,0.0479116311526,-0.000139184347075,-0.00206649549253,-0.00364290623715,-0.00885007820345,-0.00160182615597,0.00600827766503,5.30798578262,-3.17743563652,-1.25449597836,1.31157827377,1.8250207901,0.308122634888
2017/07/09/10:19:08.162224,513283,1499566750,968931329,,0.805439481326,-0.0859317307421,-0.0194317624213,0.774460977644,0.626251772949,0.0759853903161,0.047382818022,0.00716989664818,-0.00194691133639,0.00361157515426,-0.00895127381444,-0.0191404080125,0.0107489510592,5.47092294693,-3.20131397247,-1.21051621437,1.2552652359,1.95710384846,0.298527032137
2017/07/09/10:19:08.174058,513284,1499566750,978931610,,0.806027858795,-0.0863135889205,-0.0190928294267,0.774605693186,0.625981841801,0.0763159863423,0.0480481430209,0.0102043822639,-0.00811370396323,0.0081720820854,-0.00854207247124,-0.0263403619321,0.0056387444639,4.77990913391,-2.89957976341,-1.11554515362,1.1954485178,1.6584239006,0.286322265863
2017/07/09/10:19:08.182382,513285,1499566750,988928185,,0.806004950284,-0.0850699542023,-0.019573781946,0.774548825798,0.62606319689,0.0767525669761,0.0472020488591,-0.0030395703157,0.00863049361962,-0.0101118782243,0.0176194296946,0.00887925225395,-0.016295516822,4.7730255127,-2.71899175644,-1.12187039852,1.05827629566,1.72419154644,0.25753068924
2017/07/09/10:19:08.192423,513286,1499566750,998931099,,0.806371581957,-0.0851337459176,-0.0191603201378,0.774262426528,0.626388005339,0.0767193141795,0.0476435563941,-0.0025125441135,0.00950401287329,-0.00995994768126,0.015870321046,0.00671022508996,-0.00535780187892,4.72546195984,-2.76669812202,-1.0295894146,1.10916185379,1.74426186085,0.248552054167
2017/07/09/10:19:08.202274,513287,1499566751,8929416,,0.806493275358,-0.0856939490109,-0.0192583767753,0.774358726186,0.626230892158,0.0767660698789,0.048066655827,0.0202073791376,-0.00788469890657,0.0147195031644,-0.0167048905432,-0.0471612329717,-0.011170817353,4.20510721207,-2.5755841732,-0.902799010277,1.04928600788,1.56619107723,0.266093939543
2017/07/09/10:19:08.212166,513288,1499566751,18936584,,0.806146638193,-0.0866519429206,-0.019328992354,0.774901318181,0.625592706467,0.0763377001202,0.0483142653541,0.00735203886492,-0.0105666333563,-0.000906989873729,-0.0192822812115,-0.0147531839631,0.000479083457814,4.91291475296,-2.92872166634,-1.02984321117,1.19180619717,1.86157262325,0.259832262993
2017/07/09/10:19:08.222156,513289,1499566751,28933210,,0.806069023281,-0.0854423045867,-0.019875313209,0.77455407474,0.626045793591,0.0767163114998,0.0474052442234,0.0120470514607,-0.0208751919342,0.00979065757275,-0.0253853410596,-0.0378175238656,-0.0229957742747,4.18407678604,-2.65433335304,-0.727569818497,1.12052094936,1.58944404125,0.270261466503
2017/07/09/10:19:08.232213,513290,1499566751,38931827,,0.806008105928,-0.0864972612545,-0.0195070539469,0.774644961674,0.625919775541,0.0763030123806,0.0482438414789,0.0117598959653,0.00205345197222,0.00780672599541,0.00651581501647,-0.0233489887789,-0.00742797671257,4.56899595261,-2.73516583443,-0.931503653526,1.1414206028,1.74439394474,0.27499884367
2017/07/09/10:19:08.242226,513291,1499566751,48928990,,0.806217506876,-0.086248078253,-0.0194821376614,0.774847919282,0.625633417002,0.0767566786793,0.047978555557,0.00444995735194,-0.0139098613829,0.0078529071206,-0.0178962786283,-0.0231695925179,-0.00559398531807,4.64026260376,-2.63338494301,-0.871412754059,1.08006036282,1.81514537334,0.220371216536
2017/07/09/10:19:08.252282,513292,1499566751,58930191,,0.807217078373,-0.0853245927028,-0.018541360968,0.774389284418,0.626119685771,0.077114354449,0.0484639206746,0.0105064485479,-0.011391046805,0.0120210366715,-0.0152126561865,-0.0279252031343,-0.0047945057934,4.78748655319,-2.71520209312,-0.977133274078,1.11857044697,1.88916504383,0.251470118761
2017/07/09/10:19:08.262318,513293,1499566751,68930106,,0.806603221121,-0.0856770160583,-0.0193583816829,0.774327624614,0.626243209148,0.0768756468675,0.0482318118507,-0.0122943688549,-0.00291129946927,-0.00667825124588,-0.0134244179242,0.0281629540781,0.0118778262681,4.34767055511,-2.56752872467,-0.781397819519,1.10776972771,1.7012822628,0.24493779242
2017/07/09/10:19:08.272317,513294,1499566751,78925003,,0.806260991605,-0.0863406288874,-0.0193952260448,0.7746974697,0.625826309998,0.0765146187902,0.0482780826705,0.00911445715573,0.00687698026184,-0.00566522812687,-0.00199036570508,-0.0135962286794,0.00592311714156,3.93430042267,-2.48949480057,-0.817682266235,1.07429754734,1.55227410793,0.2307536304
2017/07/09/10:19:08.282246,513295,1499566751,88936599,,0.806759774767,-0.0865457301564,-0.0186424251608,0.774573959261,0.625912187622,0.0766945059645,0.048857627611,0.0129621932298,0.00834643918987,0.0116602935436,-0.00564471252219,-0.0207047901072,0.0232925929446,4.13785791397,-2.52600955963,-0.889462769032,1.12171423435,1.608314991,0.261902928352
2017/07/09/10:19:08.292279,513296,1499566751,98932688,,0.806588735809,-0.0869966289487,-0.0190193900924,0.774788520364,0.625628624162,0.076885593351,0.0487870769431,0.0182788474334,-0.00456126420202,0.0191426796129,-0.011439700525,-0.0353239855566,-0.000735712679671,4.0420923233,-2.40690469742,-0.822971105576,1.00938689709,1.61431729794,0.206737354398
2017/07/09/10:19:08.302272,513297,1499566751,108937248,,0.806256234045,-0.0862536100997,-0.0194483918052,0.774453999976,0.626127784873,0.0766059943336,0.0481302458367,0.000760633503713,-0.0114523810761,0.00885081384797,-0.00427809317963,-0.00342011524474,-0.0200178033515,4.03869628906,-2.35549998283,-0.810058355331,1.03009080887,1.56379473209,0.25452157855
2017/07/09/10:19:08.312204,513298,1499566751,118928178,,0.806586554007,-0.0866541845917,-0.0190437311223,0.774794978748,0.625644875241,0.0768138040339,0.0485887898721,-0.0137826065741,-0.0145974290149,-0.00289815049422,0.00523320191434,0.0176021079091,-0.0465230493436,4.33720064163,-2.56149148941,-0.991332054138,1.08744895458,1.65765321255,0.23921623826
2017/07/09/10:19:08.322176,513299,1499566751,128922868,,0.806682246855,-0.0859885277155,-0.0189353646864,0.774645448561,0.625856238103,0.0767260496494,0.0483891677665,-0.00756420598777,0.010501399373,-0.00185578364043,-0.00208951000314,0.0183176921572,0.023890983749,4.16804695129,-2.44740605354,-1.00058603287,1.03315794468,1.59941327572,0.210792526603
2017/07/09/10:19:08.332332,513300,1499566751,138953210,,0.806915203944,-0.0858950923953,-0.0191233786574,0.774543793963,0.625948828449,0.0768775766026,0.048577912813,0.0116275739035,0.0111496268591,0.0115676337579,0.0105793657713,-0.0224820208015,0.00510110006177,4.66540145874,-2.67747950554,-1.10357892513,1.11440885067,1.79663205147,0.245444372296
2017/07/09/10:19:08.342386,513301,1499566751,148924315,,0.806376863161,-0.0864703920813,-0.0188580675377,0.774668610437,0.625846162201,0.0765165702269,0.0484803026244,0.00566298679039,-0.00698174594857,0.00670839913125,-0.00679843833224,-0.0195561918588,-0.00288994684795,4.65669298172,-2.77659988403,-0.978944003582,1.16184163094,1.82866322994,0.247014462948
2017/07/09/10:19:08.351926,513302,1499566751,158923359,,0.807145156255,-0.0857132459527,-0.0186521296819,0.774310713787,0.626202248155,0.0770563356911,0.0487440668222,-1.26723723873e-05,-0.0012393857347,-0.000307499173991,-0.0109352263212,0.00307507401572,0.0264733384182,4.99897193909,-2.96553325653,-1.1912021637,1.23556423187,1.96816062927,0.270135819912
2017/07/09/10:19:08.362319,513303,1499566751,168931812,,0.80662295872,-0.0863173337417,-0.0190342014221,0.774527559325,0.626006805132,0.0766003178958,0.0485276320505,0.00431667071921,0.0178760729579,-0.00118345106099,0.0262559359709,-0.00181811926582,0.000335304648965,4.90575838089,-2.74769568443,-1.12747359276,1.16291165352,1.9082570076,0.242704004049
2017/07/09/10:19:08.372417,513304,1499566751,178931422,,0.806007821124,-0.0863257692292,-0.0191630030788,0.774584417467,0.626005789562,0.0762257442487,0.0482220651318,0.00611023989352,-0.00494081551424,0.00172036604319,0.00981496208228,-0.0194519290058,-0.0238802365423,4.0463809967,-2.5332775116,-1.05404305458,1.10330069065,1.57062709332,0.255923122168
2017/07/09/10:19:08.385988,513305,1499566751,188929918,,0.806821024437,-0.0861779162263,-0.0185385772301,0.774269065728,0.626268080753,0.0770506085196,0.0485685969968,-0.00134466217296,0.00822510365938,-0.00105261988827,0.00374304971009,0.0099010234284,0.0257397718265,4.37992811203,-2.48956775665,-1.11822295189,1.0112593174,1.71319746971,0.218390479684
2017/07/09/10:19:08.392144,513306,1499566751,198928000,,0.80734751888,-0.0851905139524,-0.0185987688186,0.77455714204,0.625832821908,0.0779218232672,0.0481944207981,0.00823882832007,0.0060525475841,0.00677977786452,0.00696730719914,-0.0119744548645,0.00419261446509,4.34936618805,-2.61999773979,-1.1578360796,1.08320915699,1.72281968594,0.239785522223
2017/07/09/10:19:08.402010,513307,1499566751,208930089,,0.807143008098,-0.0859690794213,-0.0186806615717,0.774421014899,0.626041789542,0.0772473352306,0.0487505756777,0.00984265481532,0.0093038580097,0.00268971749991,-3.93837653994e-05,-0.0140420707921,0.00879552034601,4.40881347656,-2.55456972122,-1.18270576,1.04693448544,1.73881518841,0.223616272211
2017/07/09/10:19:08.412064,513308,1499566751,218930142,,0.806671257323,-0.0860091838612,-0.0189421758925,0.774862100796,0.625552047952,0.077070555434,0.0483062059962,0.00405443927784,-0.00240672121085,0.00709116908973,0.00127302451425,-0.0150208994619,-0.0122585851837,4.4919462204,-2.54163885117,-1.17012679577,1.05063891411,1.77679169178,0.225456863642
2017/07/09/10:19:08.422017,513309,1499566751,228931197,,0.807008520334,-0.0860314080089,-0.0188185606953,0.774620768916,0.625809831856,0.0772043387484,0.0486231302457,0.00279070954986,0.00902265204765,0.00333965965775,0.0200048062795,-0.00966643533149,-0.00202587683912,4.38736867905,-2.59118461609,-1.14920186996,1.0552546978,1.75689828396,0.223857104778
2017/07/09/10:19:08.432400,513310,1499566751,238931026,,0.807532213719,-0.0849620480504,-0.018770178774,0.774418298058,0.626007490813,0.0777420913076,0.0484467575571,0.0142890293684,0.00824797820944,0.00765242150298,-0.00356372394121,-0.0262355889402,0.00998601729555,4.65329265594,-2.77061510086,-1.07794725895,1.15698122978,1.89138913155,0.245089754462
2017/07/09/10:19:08.442210,513311,1499566751,248933037,,0.807885642584,-0.0855276937496,-0.0184766516126,0.774233865545,0.626190808272,0.0776655682551,0.0491431845502,0.0330283247986,0.00783679033264,0.0278750794989,-0.00840878092873,-0.0575975406995,0.013272102032,4.47203874588,-2.6745288372,-1.12416112423,1.11992001534,1.80687582493,0.24150390923
2017/07/09/10:19:08.452198,513312,1499566751,258929040,,0.807589899947,-0.0858615864407,-0.0177287082754,0.774086003099,0.626410272363,0.0774150540279,0.0490707641574,0.0273482603228,0.011913149526,0.0136265772113,0.000638045506358,-0.0478381326234,0.00607376162008,-3.76482343674,1.75910651684,3.08550572395,-0.783165574074,-0.94705671072,-0.226237207651
2017/07/09/10:19:08.462391,513313,1499566751,268929993,,0.807436874182,-0.0861600605194,-0.0185102469223,0.774672980942,0.625683538604,0.0774268896693,0.0490607671554,0.00681322906703,0.00677397804749,0.00276129769203,0.00959354103612,-0.0218558252395,0.016731504148,-2.94896101952,1.39950704575,2.81724381447,-0.757979571819,-0.540569245815,-0.254732906818
2017/07/09/10:19:08.472315,513314,1499566751,278934050,,0.807933947543,-0.0848532151389,-0.0181397305214,0.774163940139,0.626284199006,0.0779239633299,0.0486431064373,0.00709214144031,0.00158056148368,0.000555479990811,0.00456956162594,-0.0119337921942,-0.000862652910456,-1.37486946583,0.328076958656,1.2039206028,-0.22110325098,-0.16523501277,-0.104771465063
2017/07/09/10:19:08.482300,513315,1499566751,288931033,,0.80799378634,-0.085123135106,-0.0180444039358,0.774505418356,0.625808197128,0.0783218703163,0.0486943731358,-0.0142336859449,0.00878228696472,-0.0126051283975,0.0314184657496,0.0323050301347,-0.00243638740023,-1.08538341522,-0.0017004609108,0.222916468978,-0.120768651366,-0.165213510394,-0.0972037762403
2017/07/09/10:19:08.492162,513316,1499566751,298924412,,0.808223902256,-0.0853385978132,-0.0180032171519,0.774228803792,0.626150088776,0.0780083040095,0.0491988842384,0.0138601847598,0.00448527189445,0.00748729227129,0.0106657742061,-0.0238154013017,-0.00577294708642,-2.50954008102,0.573217630386,0.502559959888,-0.398282110691,-0.619200587273,-0.150046795607
2017/07/09/10:19:08.502174,513317,1499566751,308922712,,0.80786236268,-0.0852419921738,-0.0182504632364,0.774205520282,0.626218170512,0.0778752489999,0.0489086994183,0.00670047133031,-0.0115060870484,0.00701098975955,-0.0154214062499,-0.0218658185796,-0.00842730873737,-2.82858777046,0.53485584259,0.796906590462,-0.322495818138,-0.673523306847,-0.149787589908
2017/07/09/10:19:08.512254,513318,1499566751,318928092,,0.808413788141,-0.0849706835382,-0.0180348384621,0.77395708169,0.626442049884,0.0782698668534,0.049341886694,0.0159130524004,0.00565795487724,0.0074620077685,-0.010091854099,-0.0436938413634,0.012426076272,-2.39590787888,0.467959612608,0.747006893158,-0.345510929823,-0.442132234573,-0.155863568187
2017/07/09/10:19:08.522283,513319,1499566751,328932301,,0.808318980785,-0.0856378167855,-0.0181426471092,0.774466989314,0.625784778754,0.0783857053696,0.0494972154469,0.0157598227229,0.0167168388211,-0.00824822392908,0.0169829968691,-0.0443070578316,0.00826605596229,-2.25928902626,0.336294054985,0.839956641197,-0.199794828892,-0.405673921108,-0.0882657766342
2017/07/09/10:19:08.532247,513320,1499566751,338949536,,0.80852892969,-0.0853792161328,-0.0182180357065,0.774530439813,0.62565537017,0.0787939308183,0.0494921412592,0.0130093425703,-0.00625531931083,-0.0052724025386,0.000648021120432,-0.048368157686,-0.031282986984,-1.06771588326,-0.418172866106,0.650140106678,0.0166034083813,0.052324436605,-0.0607660785317
2017/07/09/10:19:08.542230,513321,1499566751,348932568,,0.808748112458,-0.0856160736055,-0.0181821461895,0.774469985963,0.625692807677,0.0788248740516,0.0499138306999,0.00858775253203,-0.00051610601894,-0.00402100809493,-0.00887919061798,-0.0287504941532,-0.0176769765688,-0.695865273476,-0.473230302334,0.565096795559,0.0721753463149,0.105027414858,-0.0185391046107
2017/07/09/10:19:08.552252,513322,1499566751,358931248,,0.808262912949,-0.0854396011117,-0.0184479465755,0.774116691884,0.626230873769,0.0782479019292,0.0495530617503,0.0176749475501,-0.0062294934796,0.00787807045283,-0.0127268307876,-0.0477586090716,0.00796515473596,-0.863225340843,-0.441416591406,0.582280874252,0.0215732045472,0.0517444759607,-0.0596380978823
2017/07/09/10:19:08.562218,513323,1499566751,368929511,,0.808755000339,-0.0852372104979,-0.0184638063216,0.774128112356,0.626136347965,0.0787689501873,0.0497432598831,0.0129584156144,0.0111022938158,0.00583062507655,0.0040800802267,-0.0159614531784,0.0342931787098,-1.79262006283,0.114801794291,0.708906710148,-0.196201354265,-0.303951144218,-0.0851235538721
2017/07/09/10:19:08.572174,513324,1499566751,378930800,,0.808621848201,-0.0849684903963,-0.0181379245482,0.774250924816,0.626003481385,0.0788785899583,0.0493286403816,0.00707454070018,0.00697573256454,-7.60263900264e-05,0.0182234116907,-0.0164253189915,0.0049389215284,-3.3974366188,0.996166467667,0.878309965134,-0.458617091179,-0.923134982586,-0.12788823247
2017/07/09/10:19:08.582293,513325,1499566751,388929938,,0.808998120788,-0.0847242067631,-0.0182142184184,0.77433329427,0.625850115473,0.0791063891902,0.0496161419005,0.0131938883442,0.0127295377624,0.00601080458006,0.00662816631537,-0.0232447238256,-0.000857048245538,-3.80091142654,1.07920539379,0.879357457161,-0.395266860723,-1.05036520958,-0.0981059446931
2017/07/09/10:19:08.591959,513326,1499566751,398925021,,0.808944247869,-0.0851397725822,-0.0182603287055,0.773978470153,0.626293411315,0.0788518862889,0.0499626931926,0.00820348225309,0.0146519464339,-0.00688290301245,-0.0045692873986,-0.0219826901097,0.0433844967512,-3.02367568016,0.837685644627,0.985993266106,-0.323621034622,-0.628777205944,-0.117776758969
