time,.header.seq,.header.stamp.secs,.header.stamp.nsecs,.header.frame_id,.pose.position.x,.pose.position.y,.pose.position.z,.pose.orientation.x,.pose.orientation.y,.pose.orientation.z,.pose.orientation.w,.twist.linear.x,.twist.linear.y,.twist.linear.z,.twist.angular.x,.twist.angular.y,.twist.angular.z,.wrench.force.x,.wrench.force.y,.wrench.force.z,.wrench.torque.x,.wrench.torque.y,.wrench.torque.z
2017/07/09/10:23:48.992414,541366,1499567031,799806720,,0.78277722493,0.401061001403,0.167788811467,0.62184759397,0.780359461894,0.0576061965547,0.0320344536962,-0.00171978126509,-0.00785720470117,-0.00941701115758,-0.00919252588187,0.0109671585514,0.00153207311012,8.6380033493,1.66792845726,-1.34486937523,-0.781748771667,3.41134381294,-0.0352123454213
2017/07/09/10:23:49.002343,541367,1499567031,809768234,,0.782253468711,0.401121554907,0.167459529837,0.621465313634,0.78071236628,0.0570467768689,0.0318548322138,-0.00955781213818,0.00479791450464,-0.0229723716965,-0.000819450237371,0.032097201088,0.0141782914004,8.18248748779,1.55030226707,-1.29182696342,-0.682345271111,3.24875402451,-0.00541540980339
2017/07/09/10:23:49.012148,541368,1499567031,819782802,,0.782533415618,0.401212861711,0.16749826636,0.62190012472,0.780334000079,0.0573847617243,0.0320323635613,-0.0197933510907,0.0229883752824,-0.0158747986211,0.0180851503074,0.0387172753198,0.0307323040769,8.10614395142,1.52753460407,-1.25787711143,-0.725730657578,3.18296289444,-0.0435049384832
2017/07/09/10:23:49.022406,541369,1499567031,829776565,,0.782502753397,0.400735851452,0.167517293889,0.621590847957,0.780593582718,0.0571876305255,0.0320632386107,0.0041962118866,0.00532837627864,0.0117649061382,0.0140631207684,-0.0110145648048,-0.012531835446,8.09100532532,1.32986664772,-1.28506088257,-0.628321528435,3.20550465584,0.00705987215042
2017/07/09/10:23:49.032333,541370,1499567031,839782734,,0.782301936972,0.401005951007,0.167572596127,0.621770038628,0.780453634277,0.0572683643262,0.031850875295,-0.00385989488417,-0.00419828653798,-0.00636964392592,0.00831956022193,0.0178054770395,-0.021600793629,8.08700656891,1.45177459717,-1.18825292587,-0.663722455502,3.20983743668,0.00544011592865
2017/07/09/10:23:49.042451,541371,1499567031,849769494,,0.782736938683,0.400890127039,0.168131753356,0.622089832088,0.780149252445,0.0579612536441,0.0318100266905,-0.000541492727886,0.00531694384732,0.00812905346858,-0.00203348050697,-0.0122240667692,0.0103081530595,8.35417842865,1.48248720169,-1.01147937775,-0.687706112862,3.32403206825,-0.00615878403187
2017/07/09/10:23:49.052727,541372,1499567031,859776819,,0.781755165415,0.40103889724,0.167286284635,0.62180841136,0.780465032334,0.0569959490589,0.0313064634865,-0.00120984434083,0.00843913768157,-0.00116061686606,0.00938581059353,-0.00252355638867,0.0271769631216,8.45554351807,1.43734288216,-1.04266488552,-0.709380924702,3.34812498093,-0.0134183913469
2017/07/09/10:23:49.062222,541373,1499567031,869767744,,0.78198982416,0.401470336454,0.16738424162,0.621398108266,0.780772519394,0.0571764241255,0.0314566451989,-0.0222441299126,-0.00668314881588,-0.0257738047961,-0.0268517339902,0.0588597746622,0.0159997380994,8.59260654449,1.30454707146,-1.03985190392,-0.602927803993,3.40665340424,0.0116584002972
2017/07/09/10:23:49.072510,541374,1499567031,879771881,,0.782175477289,0.401044793788,0.167728011409,0.621731657135,0.780495578728,0.0572792018413,0.0315514047032,0.0045458747856,0.00114060917091,-0.00340426347663,-0.00556006633417,-0.00979842817122,0.00597041491445,8.40060138702,1.32069337368,-1.04815685749,-0.574819326401,3.30993962288,0.0319857001305
2017/07/09/10:23:49.082610,541375,1499567031,889768636,,0.78200301577,0.400946091435,0.167101901404,0.621829668825,0.780447070029,0.056973137318,0.0313734836448,-0.00467813447059,0.00345575848075,-0.00322035294064,0.0157556244678,0.0191727584964,-0.00579628447522,8.81540489197,1.43584930897,-1.00747132301,-0.647955834866,3.46339464188,-0.00869919359684
2017/07/09/10:23:49.092516,541376,1499567031,899774234,,0.782220257744,0.401234393989,0.167499832706,0.621839976451,0.780408968239,0.057245692403,0.0316198779405,0.00102104648315,0.00347759985556,-0.0114022627693,-0.00112171519527,0.00485903200887,0.00304490422625,8.9039478302,1.39750301838,-0.917003452778,-0.656981706619,3.51066946983,-0.00984470546246
2017/07/09/10:23:49.102393,541377,1499567031,909769038,,0.78176871462,0.400838835509,0.166777390926,0.622094995133,0.780253295654,0.0568469550927,0.0311614400964,-7.92936333708e-05,0.00985808606532,-0.00162839895268,0.00980374345356,0.000705440821322,0.0118923653088,8.88077163696,1.49592328072,-1.0062148571,-0.636836946011,3.46743297577,0.0022446513176
2017/07/09/10:23:49.112456,541378,1499567031,919775575,,0.781508768375,0.400997075869,0.166575193296,0.621763312703,0.780558879878,0.0565253855082,0.0307099139375,-0.0180695058565,-0.00322286653342,-0.0130437313142,-0.0143722291457,0.0458879751184,-0.00585467156485,9.19883060455,1.51239562035,-0.976546287537,-0.644468963146,3.57490444183,0.0134734362364
2017/07/09/10:23:49.122168,541379,1499567031,929776379,,0.781627039887,0.400880291485,0.166779672597,0.621826062553,0.780499780423,0.0564555151673,0.0310679174763,-0.0198852773621,-0.00474238833624,-0.0078913700988,0.00598389956574,0.0492479436069,-0.0112606387937,9.59054279327,1.69530880451,-1.26438415051,-0.657191991806,3.65677714348,0.0380618721247
2017/07/09/10:23:49.132473,541380,1499567031,939776262,,0.781617282033,0.401138799515,0.166814022477,0.621313825463,0.780906111775,0.0563478619596,0.0313000532662,-0.00796114577165,-0.00487353005702,0.000566653641903,-0.0139168633453,0.0210050066578,0.0084560866099,9.79604625702,1.88563036919,-1.37204372883,-0.743280529976,3.70888590813,-0.000513225793839
2017/07/09/10:23:49.142384,541381,1499567031,949768315,,0.781596175169,0.400403743501,0.166799010329,0.621965573264,0.78040159056,0.0562771432941,0.0310655157287,-0.0032287409461,-0.0146464433352,-0.00677516817678,-0.0314183125321,0.0200270841064,-0.00753789992298,9.98697471619,2.1040699482,-1.4929047823,-0.712412059307,3.79930520058,0.0493978634477
2017/07/09/10:23:49.152205,541382,1499567031,959774619,,0.781854424002,0.400332517728,0.167022787212,0.621871726144,0.780451301615,0.0563611026922,0.0315396280006,0.00671548987096,-0.0259400946789,0.0062312055693,-0.0337825471824,-0.0173417887195,-0.00500823334721,10.0188188553,2.07326006889,-1.49171042442,-0.675315082073,3.79989099503,0.0164966732264
2017/07/09/10:23:49.162609,541383,1499567031,969769066,,0.781896636047,0.399755303804,0.16721170714,0.621987571749,0.780364161293,0.0562081253485,0.0316841128133,0.0124203291573,-0.0502631075208,0.00381921482061,-0.0428324233492,-0.0174351999836,-0.0415775952474,10.1376752853,2.33611488342,-1.48703670502,-0.775430083275,3.87483739853,0.0506438985467
2017/07/09/10:23:49.172609,541384,1499567031,979777270,,0.782087981297,0.400321130259,0.167310704043,0.621922948051,0.780395499495,0.0565006080621,0.031660580282,0.00936343381879,-0.00927389620748,-0.000262937632831,-0.016265295414,-0.0159909735261,0.0121964468068,10.1415882111,2.33936285973,-1.4025015831,-0.6855712533,3.9376502037,0.070887953043
2017/07/09/10:23:49.182417,541385,1499567031,989777546,,0.781680357896,0.398375270204,0.166473107705,0.622742038081,0.779831001158,0.0552919340836,0.0316032540305,0.0128652687399,-0.03996818695,0.000469191189106,-0.0201851135603,-0.0153820777504,-0.0507963454072,10.1346683502,2.44863986969,-1.43434500694,-0.726313173771,3.91402363777,0.0361650437117
2017/07/09/10:23:49.192274,541386,1499567031,999769335,,0.782147578171,0.398482819987,0.166664255037,0.622451056085,0.780016700152,0.0557486250778,0.0319487255513,0.00100830090978,-0.0518671978341,-0.00724254888238,-0.0348105374396,0.0162232333475,-0.0588535338984,10.3743810654,2.73131895065,-1.50685656071,-0.886114239693,3.98305535316,-0.00363843142986
2017/07/09/10:23:49.202362,541387,1499567032,9768129,,0.781633188208,0.398906210358,0.166659227635,0.622311142165,0.780152947361,0.0555924162858,0.031618101018,0.0157123890719,-0.0548186813659,0.00431502898707,-0.0412894503748,-0.00973317634825,-0.0562282257361,10.0093736649,2.86811137199,-1.47453975677,-0.846791565418,3.82789111137,0.00221732258797
2017/07/09/10:23:49.212484,541388,1499567032,19774949,,0.781877455837,0.39766243416,0.166608109217,0.622874495924,0.779726424867,0.0551640616683,0.0317960845359,0.00333783715856,-0.0327878424088,0.00299624640835,-0.0333164853775,-0.00159481422965,-0.0247757226315,9.78517532349,2.91892743111,-1.60376119614,-0.835155904293,3.68437361717,0.0207710489631
2017/07/09/10:23:49.222285,541389,1499567032,29767965,,0.782099908841,0.397007797406,0.166716566669,0.622994074128,0.779618628845,0.0549849746953,0.032401075862,0.00278275228622,-0.0566619886187,-0.0071387143303,-0.0328362821704,0.0207878595807,-0.0728649175774,9.92485046387,3.09269285202,-1.71709895134,-0.842470526695,3.68923902512,-0.0019243657589
2017/07/09/10:23:49.232345,541390,1499567032,39775801,,0.782137540218,0.396988676896,0.166911299701,0.623236211437,0.779431520082,0.0549853863971,0.0322449614558,-0.0230925465382,-0.0602108469199,-0.0208355889187,-0.0768483642504,0.0684962897572,-0.0315407038526,9.95977306366,2.95818114281,-1.80245471001,-0.698238492012,3.63221859932,0.0268211960793
2017/07/09/10:23:49.242457,541391,1499567032,49770771,,0.781684581265,0.396290016184,0.166852410012,0.623672008377,0.779126416557,0.0545597378429,0.0319137587315,-0.0140349605984,-0.078578894299,-0.0134923303745,-0.0618236989734,0.0578138818567,-0.0784551613667,10.0972604752,3.09315896034,-1.85975468159,-0.682855069637,3.64684104919,0.0650375932455
2017/07/09/10:23:49.252337,541392,1499567032,59778440,,0.781817574212,0.394801039541,0.166722279422,0.623993527658,0.778895591255,0.0539978121445,0.0322175673727,-0.0120817092265,-0.0720997162389,-0.000542580592532,-0.0468473922312,0.0558009152954,-0.0979694019609,10.6743793488,3.31169199944,-2.01694560051,-0.733894884586,3.81555533409,0.0315476208925
2017/07/09/10:23:49.262568,541393,1499567032,69772419,,0.7811022152,0.394746227891,0.166346594265,0.624256976144,0.778751628194,0.0535395354781,0.0313472082052,-0.0012167263373,-0.0818654062551,0.00978094705988,-0.0438749491588,0.0289196993773,-0.101865442103,10.978304863,3.1641523838,-1.85436034203,-0.627004563808,3.94342207909,0.102080248296
2017/07/09/10:23:49.272406,541394,1499567032,79777869,,0.781246577077,0.394339550588,0.166495001911,0.62434890893,0.778660793646,0.0536414112187,0.0315975847016,-0.0249509539995,-0.0460644328522,-0.00725346767538,-0.0111364420589,0.0754804076319,-0.0595274403328,11.018740654,3.20668554306,-1.9527862072,-0.615521907806,3.89671063423,0.0968313440681
2017/07/09/10:23:49.282462,541395,1499567032,89771315,,0.780831262495,0.392523263191,0.166233546871,0.624830089434,0.778354835083,0.0525315612011,0.0314888094046,-0.0140346904114,-0.0650196728114,-0.0111533087247,-0.0251055303021,0.0620144356996,-0.076172922977,11.765789032,3.20562553406,-1.8568264246,-0.670247793198,4.16893911362,0.0811190083623
2017/07/09/10:23:49.292332,541396,1499567032,99773229,,0.780561953489,0.392401663279,0.166334384616,0.624965011829,0.778275452799,0.052392413661,0.0310014281942,-0.0199337113173,-0.0822625595238,0.00112429664154,-0.0469614227656,0.0707150885879,-0.0856435328144,12.2195720673,3.35413432121,-2.09048438072,-0.841423869133,4.27271747589,0.0154216438532
2017/07/09/10:23:49.302191,541397,1499567032,109769773,,0.780705958319,0.391322986795,0.166151744058,0.625842046243,0.777591103211,0.0520869079468,0.0309961833578,-0.0298751971131,-0.0874267937489,-0.0108940096139,-0.0266305939362,0.110724746336,-0.0985252367051,12.5282173157,3.44642734528,-2.16040086746,-0.871189892292,4.33116388321,0.0242306292057
2017/07/09/10:23:49.312229,541398,1499567032,119790531,,0.780162925798,0.390270465373,0.165681551929,0.626274276676,0.777300267123,0.0515532294766,0.0304481466603,-0.0251238190168,-0.0980894408195,-0.00908875549222,-0.0143664208723,0.105613841748,-0.13954189015,11.0452289581,3.04554820061,-2.0156416893,-0.830807387829,3.68758940697,-0.00481214374304
2017/07/09/10:23:49.322305,541399,1499567032,129769418,,0.780232534162,0.388668038974,0.16619134429,0.62705233723,0.776679976334,0.0512072874416,0.0308446826669,-0.0180524664276,-0.0983193735802,4.20301144451e-05,-0.0353962892983,0.0755208116601,-0.122112967752,6.97231531143,2.47870445251,-0.988428711891,-0.698485612869,2.20149183273,-0.0376325696707
2017/07/09/10:23:49.332420,541400,1499567032,139774568,,0.780078661145,0.38807721812,0.166229323414,0.627294975709,0.776502806537,0.0509113810937,0.0308615645299,-0.0168440002463,-0.121171662901,-0.00310232817965,-0.0687029318442,0.056855623118,-0.129713960152,4.80985641479,1.98061728477,0.335465610027,-0.56252259016,1.588799119,-0.0576030164957
2017/07/09/10:23:49.342616,541401,1499567032,149772711,,0.779664985325,0.387848724216,0.16609199332,0.627377563911,0.776459455802,0.0506536925583,0.030697055674,-0.0182727894183,-0.122581660322,0.00224934117157,-0.0771322582211,0.0378509348088,-0.127714388793,4.81780052185,1.89406251907,0.800489246845,-0.544027447701,1.72106707096,-0.0578482300043
2017/07/09/10:23:49.352212,541402,1499567032,159770390,,0.779729932927,0.38642151928,0.166326151325,0.628067708175,0.775926977489,0.05014675453,0.0308801321672,-0.0136615554523,-0.118403148837,0.00585978671647,-0.0535999901194,0.0394264138381,-0.13794446534,6.7386174202,2.36325955391,0.22969725728,-0.682519972324,2.44777798653,-0.00889823958278
2017/07/09/10:23:49.362190,541403,1499567032,169787730,,0.778494650603,0.38428182857,0.165668142265,0.629070148692,0.775231961496,0.0487284564684,0.0301942284183,-0.0453758605542,-0.127160605692,-0.0061664300328,-0.0572492457629,0.118501241519,-0.152123878919,8.04031848907,2.55369353294,-0.591728627682,-0.549978256226,2.89898204803,0.0549882873893
2017/07/09/10:23:49.372331,541404,1499567032,179775792,,0.778380492302,0.383360568779,0.166502581992,0.629375523113,0.774999111062,0.0483871405087,0.0303564390711,-0.0615586377284,-0.142529855996,-0.00579690621291,-0.091118137577,0.161819447498,-0.149808581051,7.86855697632,2.45498895645,-1.34439241886,-0.482022106647,2.64897680283,0.0245959311724
2017/07/09/10:23:49.382159,541405,1499567032,189768946,,0.777300489665,0.382358786638,0.165605822075,0.62937171342,0.775111816442,0.0469854484775,0.0297537559068,-0.0750112191157,-0.125384229375,-0.00143042011443,-0.0975845903846,0.180825577111,-0.115756772611,6.57652521133,2.16706514359,-1.48477220535,-0.26320001483,2.08102655411,0.0902775973082
2017/07/09/10:23:49.392248,541406,1499567032,199767682,,0.777095820405,0.380497038683,0.166159110037,0.630561733016,0.774171052543,0.0465969445282,0.0296615411132,-0.0619100474251,-0.160461086753,-0.00389011595426,-0.104177038255,0.163909949408,-0.162870813419,6.86637639999,2.3178794384,-1.7156482935,-0.393294066191,2.14613652229,0.0377384312451
2017/07/09/10:23:49.402364,541407,1499567032,209774240,,0.776172350787,0.379240653441,0.165421821605,0.631947386496,0.773132005782,0.0457642970365,0.0285487557053,-0.0585890231056,-0.143052412416,-0.00630360300382,-0.0503025036059,0.159255217354,-0.201421853432,7.51130580902,1.58217561245,-1.61828875542,-0.0951593145728,2.43909907341,0.132056131959
2017/07/09/10:23:49.412347,541408,1499567032,219775652,,0.77552764485,0.376250888143,0.165384164962,0.633815574548,0.77168135898,0.0447092112669,0.0280496718569,-0.052589003688,-0.166023442515,-0.0054146202452,-0.0440575507573,0.154140142124,-0.305258863691,7.69140815735,0.392307639122,-1.56227755547,0.485197544098,2.5868165493,0.287372946739
2017/07/09/10:23:49.422338,541409,1499567032,229779759,,0.774989832511,0.37516918138,0.165290769031,0.635024518452,0.77072415885,0.0441772397271,0.0278658109515,-0.0626860295824,-0.193905539948,-0.017089844692,-0.0399989823768,0.180148851273,-0.387351881063,8.19508838654,0.255482912064,-1.47800159454,0.519751608372,2.81602692604,0.298701435328
2017/07/09/10:23:49.432426,541410,1499567032,239775888,,0.774168201992,0.373838620069,0.165159311651,0.636918761623,0.769236883761,0.0432227339047,0.0272195339398,-0.0829093185509,-0.161141163359,-0.020082664549,-0.0287475089894,0.215334327,-0.415954237999,7.74654960632,0.516605913639,-1.38703668118,0.253713697195,2.63896894455,0.190622836351
2017/07/09/10:23:49.442436,541411,1499567032,249771291,,0.773066978587,0.372164127704,0.164903798013,0.638377216038,0.768124490903,0.0420208210927,0.0263352826665,-0.091526575214,-0.174910094276,-0.0236916292343,-0.0496352322135,0.237571834531,-0.468000609425,7.42403268814,1.08575534821,-1.50046110153,-0.0875093340874,2.47121191025,0.100154653192
2017/07/09/10:23:49.452372,541412,1499567032,259772280,,0.772455979437,0.369982013941,0.164624029802,0.639951790749,0.766876550956,0.0412000100942,0.0257802303926,-0.0971626805415,-0.161017133286,-0.029120932997,-0.0328032174903,0.265092447597,-0.455386622445,7.83114814758,1.638007164,-1.60438251495,-0.407397627831,2.63931059837,0.0781219899654
2017/07/09/10:23:49.462338,541413,1499567032,269775699,,0.771656316598,0.368477075556,0.164866102565,0.640455072827,0.766515957786,0.0402543594038,0.025498484228,-0.0968256246783,-0.196321547318,-0.0325673808053,-0.0698584318807,0.266291535443,-0.344100111542,8.31604671478,2.02574062347,-1.7930059433,-0.569616913795,2.8529343605,0.0699490234256
2017/07/09/10:23:49.472297,541414,1499567032,279775649,,0.770247318118,0.366186854283,0.163822622402,0.641651233821,0.76564094996,0.0384843942516,0.0244250133998,-0.103597554436,-0.205652714534,-0.0303086139227,-0.0922908618349,0.27842321312,-0.237173356114,8.49435901642,1.9557005167,-1.96710908413,-0.556506097317,2.90032577515,0.0326988324523
2017/07/09/10:23:49.482324,541415,1499567032,289772044,,0.769329805218,0.364105382589,0.16391658211,0.642167814951,0.765287651749,0.0371571189254,0.023971984397,-0.10909034305,-0.211100862073,-0.0248611766293,-0.132945589446,0.270605571998,-0.191861944227,7.9024977684,1.58010840416,-1.66083371639,-0.252211749554,2.73319554329,0.0782495886087
2017/07/09/10:23:49.492385,541416,1499567032,299774476,,0.767793600742,0.361986890515,0.163043480692,0.643013450802,0.764686757935,0.0354765341789,0.0230060828892,-0.117316730434,-0.219061393096,-0.0268339023501,-0.145271775932,0.288680911274,-0.195364852744,6.9120516777,1.2894217968,-1.65200078487,-0.12910066545,2.33338928223,0.0602808482945
2017/07/09/10:23:49.502270,541417,1499567032,309768294,,0.767196418786,0.360125072521,0.163406412036,0.643700752043,0.764151981264,0.0346846779961,0.022761029463,-0.1155894409,-0.228519226356,-0.0291459899924,-0.134164082876,0.283589216376,-0.204717437486,7.31948423386,1.23640692234,-1.48608016968,-0.112857744098,2.5404920578,0.0685096904635
2017/07/09/10:23:49.512080,541418,1499567032,319787852,,0.765675773361,0.357802888135,0.162901075602,0.644525452734,0.763560290344,0.0328445608886,0.0219967863193,-0.114659910047,-0.212014260722,-0.0176358437494,-0.113714297226,0.2654151694,-0.219491679634,7.27664899826,1.15436136723,-1.19376718998,-0.0996525362134,2.55590963364,0.0919862240553
2017/07/09/10:23:49.522691,541419,1499567032,329774804,,0.764923380646,0.35590928001,0.162802189465,0.645360652901,0.762905263688,0.0320029322494,0.0214708791441,-0.122633616193,-0.224448156866,-0.0235773453677,-0.13836774455,0.289910744653,-0.210076140982,7.0337395668,1.11930656433,-1.11792993546,-0.135956212878,2.47715711594,0.0963785126805
2017/07/09/10:23:49.532249,541420,1499567032,339776339,,0.763507569678,0.352614108482,0.162205371711,0.646355640214,0.762153331421,0.0300965166049,0.0209972725513,-0.142728166037,-0.264412524853,-0.0436142952603,-0.171545486201,0.344660076674,-0.247141109333,6.74165964127,1.25655162334,-1.25945878029,-0.261158049107,2.34426617622,0.047362037003
2017/07/09/10:23:49.542496,541421,1499567032,349767905,,0.762201709747,0.350325456313,0.162288658607,0.647000871603,0.761685210832,0.0282227252289,0.0207120623353,-0.134162528205,-0.263230854061,-0.043816502123,-0.174066445385,0.319809890214,-0.245064191624,6.05060958862,1.13535439968,-1.29333889484,-0.193543449044,2.10287594795,0.0645727068186
2017/07/09/10:23:49.552397,541422,1499567032,359774227,,0.761100309966,0.347993455735,0.161442608228,0.647858917051,0.761030971622,0.0266611347793,0.0199966927642,-0.133183342496,-0.25339407178,-0.0410424168976,-0.186431765321,0.314080120046,-0.201335775055,5.1794128418,1.01114940643,-1.19637918472,-0.168081104755,1.81066095829,0.0543369315565
2017/07/09/10:23:49.562274,541423,1499567032,369769196,,0.760506712762,0.344857482543,0.161706216908,0.649070772229,0.760033645675,0.0254508765874,0.0202050231775,-0.122654574502,-0.259250470816,-0.044726223223,-0.191930442032,0.292708922799,-0.215637791692,5.5397362709,0.917825579643,-1.19696307182,-0.151144310832,1.99047684669,0.0697208791971
2017/07/09/10:23:49.572348,541424,1499567032,379778753,,0.759433551794,0.342746930082,0.161460863242,0.649908546928,0.759370901419,0.0241590723294,0.0197750836368,-0.113482240022,-0.265068652424,-0.0405191071278,-0.201723734203,0.26488452345,-0.211775578922,5.77505874634,0.888296246529,-1.15763700008,-0.119339510798,2.12371110916,0.0698448866606
2017/07/09/10:23:49.582095,541425,1499567032,389770543,,0.758421829956,0.339031167368,0.161146130682,0.651191320167,0.758330431799,0.0223064016265,0.0196785465482,-0.109203299786,-0.298797707723,-0.0274340094612,-0.189560414231,0.254330472202,-0.290279206096,5.59058713913,0.938553035259,-1.31712865829,-0.133694753051,2.02430534363,0.0448383428156
2017/07/09/10:23:49.592342,541426,1499567032,399774499,,0.756487378461,0.337004075289,0.160105973877,0.651631201936,0.758042078144,0.0200028234762,0.0186781016301,-0.118828887888,-0.28575791667,-0.0231819020952,-0.199198326205,0.269838269091,-0.259735050167,5.87824440002,0.708742618561,-1.14850854874,-0.0392605774105,2.12667536736,0.0929488614202
2017/07/09/10:23:49.602122,541427,1499567032,409772740,,0.755487567311,0.333870378496,0.160558236521,0.652703593504,0.75715501415,0.0185982019159,0.0186657563546,-0.13032366698,-0.259079089713,-0.0366904311335,-0.200492383521,0.296576411596,-0.227201741127,5.80327415466,0.571712374687,-1.26994347572,-0.132828354836,2.07402610779,0.0751401633024
2017/07/09/10:23:49.612377,541428,1499567032,419771758,,0.753834525002,0.331351946297,0.159058103083,0.653587912456,0.756464919908,0.0165670611273,0.0175840303938,-0.150086772998,-0.279708644612,-0.0524887576619,-0.182314792315,0.343902573055,-0.266405159428,5.1426949501,0.249128073454,-1.36296963692,0.0187048874795,1.7469881773,0.0877676159143
2017/07/09/10:23:49.622199,541429,1499567032,429776241,,0.752740144936,0.329099714173,0.159155789796,0.654191932143,0.755972718651,0.0152351156584,0.017494451271,-0.142914533213,-0.281238128308,-0.0449828805019,-0.190467190828,0.329040707368,-0.243282261083,5.79384231567,0.566589593887,-1.10638022423,-0.0999156683683,1.970089674,0.0670870393515
2017/07/09/10:23:49.632041,541430,1499567032,439782518,,0.751684997333,0.326089479061,0.158805856549,0.655271831518,0.755076332293,0.0136274879668,0.0171128840826,-0.12903224353,-0.277720264217,-0.0218908540895,-0.196472590397,0.264046785513,-0.247649472286,5.7437005043,0.685853123665,-1.08480226994,-0.200941249728,1.88005447388,0.0301830284297
2017/07/09/10:23:49.642534,541431,1499567032,449770439,,0.750329289943,0.323461081944,0.159053011518,0.65649812141,0.754039842141,0.0124362971441,0.0167174029672,-0.117851418038,-0.300539509163,-0.0272128241129,-0.195455947178,0.253953617351,-0.282523696219,6.22576141357,1.01350605488,-1.04824888706,-0.328239679337,2.10256099701,0.0143438912928
2017/07/09/10:23:49.652321,541432,1499567032,459766914,,0.749312906592,0.321196153953,0.158707361391,0.657141785592,0.753504263982,0.0113087918468,0.0163740348505,-0.121999350665,-0.294450298041,-0.0307881379514,-0.161394919336,0.2588785273,-0.314300937532,6.0764374733,0.729081809521,-1.05777645111,-0.0950818955898,2.09230971336,0.0408686622977
2017/07/09/10:23:49.662448,541433,1499567032,469768822,,0.74793338437,0.318092096552,0.157998169957,0.65866727207,0.752212847135,0.00956428063847,0.0155493358446,-0.129567670397,-0.284733509093,-0.0302145996565,-0.168439219751,0.272005778108,-0.271447590928,5.82475328445,0.577581644058,-1.17361652851,-0.15007545054,2.031863451,0.0257630236447
2017/07/09/10:23:49.672472,541434,1499567032,479771782,,0.746650566251,0.31461645839,0.157774252719,0.659733461539,0.751299375536,0.00790767082424,0.0154426936484,-0.133359442599,-0.292908984764,-0.0439003294813,-0.149460511529,0.276045298117,-0.316423600072,5.58458280563,0.507312178612,-0.955141723156,-0.153032571077,2.03089642525,0.0147521477193
2017/07/09/10:23:49.682093,541435,1499567032,489770988,,0.74552097535,0.312997448301,0.15717103153,0.660809444491,0.750379383454,0.00718060826668,0.0144947515691,-0.119634850899,-0.27938102932,-0.0308314585369,-0.122466605932,0.22962614171,-0.302891454096,4.34964466095,0.418809622526,-0.690537571907,-0.203989759088,1.58996975422,-0.00338647514582
2017/07/09/10:23:49.692620,541436,1499567032,499772053,,0.745157201526,0.309931786155,0.157372909442,0.66217685348,0.749172521715,0.00664630207667,0.0147707173596,-0.114462250679,-0.253630414253,-0.0276936750745,-0.0621513548765,0.214806927395,-0.321956828663,4.10331678391,0.159613400698,-0.464739859104,-0.031408701092,1.57978081703,0.0379009246826
2017/07/09/10:23:49.702309,541437,1499567032,509768059,,0.744048516209,0.308545716819,0.156807800365,0.662468337386,0.748935532282,0.00579291183634,0.0140610319495,-0.110577920339,-0.260056757121,-0.0378456085921,-0.0687007019932,0.203141441729,-0.326195025772,3.85718774796,0.325131654739,-0.181942969561,-0.0659279152751,1.54760992527,0.0487539730966
2017/07/09/10:23:49.712528,541438,1499567032,519776702,,0.743195845049,0.305388595769,0.15693002887,0.663859742359,0.747711738427,0.00497707557869,0.0138790278197,-0.0947717633733,-0.240238505998,-0.00837763357749,-0.068206571396,0.144190874815,-0.288093101568,3.18085098267,-0.141394227743,-0.117910273373,0.0546350963414,1.25839996338,0.0537400171161
2017/07/09/10:23:49.722572,541439,1499567032,529773552,,0.74227022636,0.302883731163,0.15708075945,0.665316456171,0.746426853968,0.00436567303656,0.0134872429209,-0.0961145971179,-0.29257539826,-0.00730980586211,-0.0826032389796,0.160271228149,-0.357081125584,3.29681253433,-0.0140964537859,-0.607762515545,0.0145068652928,1.21635603905,0.0363321788609
2017/07/09/10:23:49.732296,541440,1499567032,539773903,,0.741165508185,0.299753160014,0.156708502941,0.666996566767,0.744941094999,0.00342923312533,0.0129067913193,-0.123775868707,-0.30503896672,-0.0371167462006,-0.101736543347,0.236640405245,-0.381139293171,3.6663172245,-0.17944124341,-0.800715386868,0.113407343626,1.33629858494,0.0428436659276
2017/07/09/10:23:49.742047,541441,1499567032,549770647,,0.74000231608,0.296850418504,0.156180022049,0.668064381057,0.743997350568,0.00235280343087,0.012344611205,-0.111829673072,-0.272705644888,-0.0283492923715,-0.0679048258426,0.193021125408,-0.33157622461,3.47060799599,-0.282872438431,-0.768456816673,0.244154140353,1.21574103832,0.0482429750264
2017/07/09/10:23:49.752293,541442,1499567032,559766804,,0.738969508088,0.294275303267,0.155916638381,0.669305532992,0.742884140812,0.00116024372174,0.0123252046842,-0.0848588656057,-0.272320695745,-0.0172213729666,-0.0746266671037,0.123376601433,-0.308389080314,3.32486057281,-0.294691115618,-0.356649577618,0.322244912386,1.16343092918,0.0921591520309
2017/07/09/10:23:49.762559,541443,1499567032,569767574,,0.738316894526,0.292376145881,0.155620891089,0.670308162196,0.741990918872,0.00128569495601,0.0116099523401,-0.0897262915388,-0.274130386443,-0.0276298575592,-0.0838520068991,0.136882233839,-0.326803488961,3.03012013435,-0.34240886569,0.150891661644,0.356454014778,1.07493913174,0.0618751496077
2017/07/09/10:23:49.772409,541444,1499567032,579775595,,0.737961536663,0.288980749965,0.155634941383,0.671781939585,0.740652785359,0.000784105446474,0.0119105989023,-0.084067928223,-0.276541041508,-0.0225537449156,-0.0474083350646,0.116498418821,-0.359645507931,2.8498415947,-0.865769207478,0.122963324189,0.444002479315,1.00095438957,0.0570725761354
2017/07/09/10:23:49.782361,541445,1499567032,589772722,,0.736811902291,0.287565711458,0.155106910718,0.672459197948,0.740047951265,-9.24275653857e-06,0.0112985325564,-0.0855636696295,-0.270500494341,-0.0252390183949,-0.0455223198495,0.122989335146,-0.361917521686,2.14508247375,-0.742703557014,-0.253181695938,0.461901962757,0.770780324936,0.0791859328747
2017/07/09/10:23:49.792349,541446,1499567032,599774404,,0.736274993164,0.283781714323,0.154989804301,0.673998399281,0.738641019967,-0.000764786547744,0.0116196596351,-0.0852771893467,-0.264452280587,-0.0205058066074,-0.0395551652961,0.116403659442,-0.351889360472,2.18467521667,-1.19919347763,-0.341448366642,0.612099766731,0.784070432186,0.0907051712275
2017/07/09/10:23:49.802063,541447,1499567032,609769585,,0.735142852795,0.280963388649,0.15449777168,0.675589670517,0.737197378871,-0.00136936775146,0.010804929827,-0.079638853474,-0.276271334491,-0.0094725082204,-0.0497059620427,0.0985664711584,-0.352114520039,1.6098896265,-1.62306118011,-0.550933003426,0.771298825741,0.596135318279,0.134490862489
2017/07/09/10:23:49.812469,541448,1499567032,619774509,,0.734445380417,0.278490429713,0.154282095163,0.676817961466,0.736070348193,-0.00200718099113,0.0106705563698,-0.0932190028985,-0.282736856163,-0.0275008103854,-0.0357733950623,0.138261670797,-0.386433161195,1.76908671856,-1.29127991199,-0.618660032749,0.687533318996,0.611290454865,0.0799247324467
2017/07/09/10:23:49.822368,541449,1499567032,629770304,,0.733540418817,0.275236977712,0.154343871826,0.67850649329,0.734516305099,-0.00262020596935,0.010386078519,-0.0873918171899,-0.27892045226,-0.011415482411,-0.0308835570365,0.125413412502,-0.390492248519,1.38713848591,-1.68491339684,-0.181434065104,0.839115381241,0.492797255516,0.115642398596
2017/07/09/10:23:49.832397,541450,1499567032,639775436,,0.73282251834,0.273844391524,0.15396182929,0.679159022988,0.73392034784,-0.0028065820768,0.00980140900309,-0.0899815407472,-0.29392861746,-0.023811566288,-0.0543416514884,0.133395013436,-0.389527465901,1.56039571762,0.4888266325,0.0422301702201,-0.176571145654,0.501352608204,-0.0297474041581
2017/07/09/10:23:49.842591,541451,1499567032,649769631,,0.731967960086,0.271352707146,0.154243790478,0.680561976105,0.732619092145,-0.00331316911266,0.00967912262386,-0.112623559306,-0.266577116951,-0.0365162716825,-0.0780761441093,0.18606680447,-0.323322321177,2.15838623047,1.81621527672,0.0662814900279,-0.902712166309,0.67863881588,-0.160640835762
2017/07/09/10:23:49.853316,541452,1499567032,659772843,,0.731057313612,0.268430587398,0.154253811265,0.681601264646,0.731648140168,-0.00427309465972,0.00961538781648,-0.0940432456314,-0.264187034562,-0.0169259572635,-0.0524144423651,0.126334767849,-0.350819984975,1.82023727894,1.73219370842,-0.00279282964766,-0.897314965725,0.538307964802,-0.145041748881
2017/07/09/10:23:49.862258,541453,1499567032,669767848,,0.729861232363,0.264864870955,0.153527149833,0.683257663982,0.730098068461,-0.0054916441929,0.00925293920795,-0.0962404325252,-0.302986893043,-0.0271856682221,-0.077560110494,0.136604559838,-0.396804041096,2.21484017372,1.19129407406,-0.216163888574,-0.596744298935,0.670974612236,-0.113888189197
2017/07/09/10:23:49.872430,541454,1499567032,679772010,,0.728951114498,0.262521584963,0.153709700061,0.68432302853,0.729096068433,-0.00600955281219,0.0092087400957,-0.0980964543782,-0.31194504235,-0.0318351377285,-0.0822646476639,0.148792710743,-0.389016438941,1.94579577446,0.0775440558791,-0.331467539072,0.165257632732,0.595537602901,0.042245015502
2017/07/09/10:23:49.882401,541455,1499567032,689767745,,0.728608072644,0.26000338113,0.153540102665,0.685495542332,0.727993427907,-0.00619925711244,0.00911041049052,-0.0982236898912,-0.293945492096,-0.0220049256767,-0.0955080679838,0.133516951309,-0.35376601425,0.913446903229,-0.666436374187,0.110101245344,0.638293921947,0.205254763365,0.0862426161766
2017/07/09/10:23:49.892461,541456,1499567032,699788244,,0.727368279029,0.256286256002,0.153130236851,0.686931246541,0.726627144476,-0.00747606766336,0.00908646510819,-0.0911385287301,-0.287292997796,-0.0151386558201,-0.0775452207292,0.105729702686,-0.348963504079,0.293373793364,-1.27772021294,0.333926230669,0.819699645042,0.008180889301,0.0811262354255
2017/07/09/10:23:49.902285,541457,1499567032,709767591,,0.726528351352,0.253893784934,0.152913441132,0.688229786383,0.725398407413,-0.00788904335825,0.00864144968243,-0.0978898094552,-0.28739438203,-0.0322843337181,-0.0506212400838,0.135339160074,-0.375460373361,-0.531823635101,-1.21602678299,0.519075095654,0.824558019638,-0.30888941884,0.0905889198184
2017/07/09/10:23:49.912457,541458,1499567032,719792444,,0.725518795115,0.250989883564,0.152542293783,0.689803784476,0.723894649671,-0.00874945142311,0.00840964927333,-0.0842685581735,-0.265370380554,-0.0187478224934,-0.0420985926661,0.0970563832222,-0.368355166727,-0.974090099335,-1.3638086319,0.585875153542,0.787736475468,-0.486110657454,0.0765500664711
2017/07/09/10:23:49.922533,541459,1499567032,729770841,,0.724685912902,0.248720912418,0.152455884433,0.690894338095,0.72285663199,-0.00906230321965,0.00782162622432,-0.093940001077,-0.260089977107,-0.0209702934259,-0.0177390667128,0.125169711199,-0.373781058971,-1.20074784756,-1.03092336655,0.33745482564,0.564464151859,-0.597501575947,0.0629747137427
2017/07/09/10:23:49.932349,541460,1499567032,739773166,,0.724470583042,0.245902362252,0.152787908947,0.692377901752,0.721436546024,-0.00888502980883,0.00795031268535,-0.106691059132,-0.2682773426,-0.033766384748,-0.0452655181774,0.161395205859,-0.351128375354,-0.902800559998,-1.19791913033,0.227006822824,0.766505777836,-0.52040296793,0.12717781961
2017/07/09/10:23:49.942348,541461,1499567032,749773209,,0.722983678804,0.244280914006,0.151977281782,0.693253018856,0.720586235572,-0.0102284662576,0.00714894609321,-0.116171189921,-0.261068721669,-0.0355315436771,-0.0406121802738,0.179543342034,-0.362591845481,-0.347541332245,-0.776694297791,0.0186522454023,0.647654652596,-0.370607793331,0.0846223384142
2017/07/09/10:23:49.952349,541462,1499567032,759774906,,0.72163927228,0.241449975562,0.151229973434,0.694351437759,0.719514838229,-0.0114089653317,0.00665687325484,-0.122447215565,-0.270446394604,-0.0487903769978,-0.0507286834045,0.210763911972,-0.387189600328,-0.62003839016,-0.917501449585,-0.33381703496,0.725291609764,-0.51305013895,0.0884779319167
2017/07/09/10:23:49.962414,541463,1499567032,769772551,,0.720240891287,0.238254412285,0.150842563006,0.695845110119,0.718058784201,-0.0124993441936,0.00591029192271,-0.122294470986,-0.265836256294,-0.0511641770101,-0.0585108395404,0.204383632768,-0.351999905827,-0.415662318468,-1.17389023304,-0.302171975374,0.779601216316,-0.540349721909,0.10911257565
2017/07/09/10:23:49.972438,541464,1499567032,779775608,,0.719199066451,0.236265073965,0.150117845342,0.696604482358,0.717307526867,-0.0135299625299,0.00538954282798,-0.120028095009,-0.267501630404,-0.0508909270299,-0.0890340470783,0.207969559178,-0.325710180559,-0.893902957439,-1.07566690445,-0.016809720546,0.639943957329,-0.764161109924,0.103011339903
2017/07/09/10:23:49.982464,541465,1499567032,789772807,,0.718638127606,0.234163131408,0.149938474545,0.69767754043,0.716259228492,-0.0137665541963,0.00540824974756,-0.114914349227,-0.269709876593,-0.0448903101153,-0.103545402929,0.193204638576,-0.319064416448,-1.57445108891,-0.815823435783,0.300494164228,0.490240871906,-1.14196300507,0.100492805243
2017/07/09/10:23:49.992388,541466,1499567032,799776367,,0.717271596798,0.231729971357,0.149502328088,0.69861837878,0.715314172498,-0.0152492800796,0.00504528614813,-0.111802379583,-0.256732657076,-0.0439250515513,-0.107648619906,0.185788671403,-0.296998929495,-2.47673845291,-0.528195917606,0.412318527699,0.473765194416,-1.47963142395,0.141110002995
2017/07/09/10:23:50.002686,541467,1499567032,809773273,,0.715616978658,0.228294328268,0.148763942938,0.699592753288,0.714322210956,-0.017104389003,0.00460416745508,-0.118874810787,-0.278956137912,-0.0568919489874,-0.142455135249,0.196363063426,-0.260024964037,-2.75989699364,-1.1385986805,0.38923561573,0.675644278526,-1.54762232304,0.152849286795
2017/07/09/10:23:50.012637,541468,1499567032,819793908,,0.714386635784,0.224924907281,0.148021129294,0.700561073883,0.713338139304,-0.0185071165676,0.00451302684093,-0.122774498667,-0.295095860082,-0.0604604940763,-0.169030828712,0.211430927747,-0.261452357741,-3.51893162727,-1.68123161793,0.622903823853,0.940792024136,-1.85571682453,0.209051579237
2017/07/09/10:23:50.022560,541469,1499567032,829775879,,0.71371249082,0.222987281617,0.147779037015,0.701197813,0.712685132036,-0.0194492132713,0.00482262605855,-0.119303447488,-0.302732679115,-0.0694877560591,-0.197075226067,0.205223200271,-0.276051127632,-4.11681222916,-1.54101061821,0.678595304489,0.997062027454,-2.12923383713,0.20111939311
2017/07/09/10:23:50.032252,541470,1499567032,839775156,,0.712771997473,0.219597045739,0.146771790961,0.702467009682,0.711397608318,-0.0207571886949,0.00476259438842,-0.105732194922,-0.291824065491,-0.0655681552423,-0.183414589191,0.178313948204,-0.278945328922,-4.15748548508,-1.55859386921,1.00680696964,0.997528612614,-2.17176651955,0.202889546752
2017/07/09/10:23:50.042381,541471,1499567032,849769864,,0.711601207362,0.216550326348,0.146080096145,0.702761792823,0.711054266969,-0.0224123806701,0.00503757531981,-0.116008661818,-0.287712436937,-0.0720796837996,-0.215189139384,0.202595325753,-0.232883266432,-4.79107236862,-1.64492833614,1.34310889244,1.00402867794,-2.41982293129,0.238103300333
2017/07/09/10:23:50.052440,541472,1499567032,859775497,,0.710637030601,0.214618166847,0.14524872591,0.703377996638,0.710410688895,-0.0234972832532,0.00489128098416,-0.104363234273,-0.304831976734,-0.0643640048104,-0.240903244671,0.167021105005,-0.230253346998,-5.7933382988,-1.46875631809,1.73161387444,1.01205384731,-2.75395035744,0.261728107929
2017/07/09/10:23:50.062117,541473,1499567032,869773668,,0.709615557657,0.211636682879,0.144889536563,0.703904108072,0.709823624675,-0.0252731325718,0.00554051106686,-0.116519812789,-0.301902944105,-0.0716303971897,-0.278903399952,0.194142653702,-0.181591958043,-6.13562488556,-1.42016124725,1.89955508709,1.05543506145,-2.91040563583,0.30737015605
2017/07/09/10:23:50.072423,541474,1499567032,879775076,,0.707940358265,0.208032333405,0.143799873667,0.704585701895,0.709056188469,-0.0276808015629,0.00566423027532,-0.115724171127,-0.305011356818,-0.0814861667331,-0.310905811935,0.198971567162,-0.162245335987,-6.26863718033,-1.6305398941,1.73232829571,1.17215585709,-2.88646483421,0.311889141798
2017/07/09/10:23:50.082270,541475,1499567032,889769580,,0.707243888044,0.205148720611,0.143194965351,0.704802138353,0.708773079948,-0.0291894698053,0.00653006634913,-0.12352902203,-0.312056013651,-0.0786096171305,-0.347481472254,0.206620280121,-0.15165597188,-6.66255140305,-1.74930369854,1.9738445282,1.2777223587,-3.09287118912,0.344177037477
2017/07/09/10:23:50.092373,541476,1499567032,899769120,,0.705889642603,0.202453946881,0.142194850885,0.704506633656,0.708950851815,-0.0317242101081,0.00725722664151,-0.117869727859,-0.324509841199,-0.0827916846461,-0.407503453689,0.204839549252,-0.10632770925,-7.06683921814,-1.17780268192,1.87109029293,1.09440171719,-3.20245027542,0.343564450741
2017/07/09/10:23:50.102433,541477,1499567032,909771196,,0.704847075265,0.198922902236,0.141598267871,0.705322018688,0.708038059271,-0.0337328418739,0.00806547934399,-0.141797297019,-0.309746798153,-0.0951066735068,-0.421362135628,0.261155477881,-0.0427399009567,-6.74662399292,-1.68641221523,2.09813451767,1.14099180698,-3.081148386,0.319008409977
2017/07/09/10:23:50.112523,541478,1499567032,919775561,,0.703742057695,0.196561053043,0.140892977653,0.704737238704,0.708503597239,-0.0359431952724,0.00872718724895,-0.121988285573,-0.320770778758,-0.0764732590776,-0.444862669915,0.214933912374,-0.0482266613228,-6.81582260132,-1.31936597824,2.34275794029,1.02278184891,-3.11648225784,0.347495734692
2017/07/09/10:23:50.122488,541479,1499567032,929770136,,0.702009290091,0.192376711749,0.139967035521,0.705177436228,0.707880863784,-0.0391690475298,0.00975970489206,-0.129250648573,-0.339967049407,-0.0786208278242,-0.497797838809,0.233170176253,-0.01587508331,-7.35104179382,-1.54996609688,2.61784982681,0.985656380653,-3.31532478333,0.360758572817
2017/07/09/10:23:50.132530,541480,1499567032,939788679,,0.700749452012,0.189485107178,0.139286851426,0.704728495638,0.70816239897,-0.0418455656707,0.0106166263098,-0.140198218862,-0.365179777313,-0.0769480247162,-0.528524824955,0.261820499823,-0.0322753372513,-7.35735273361,-1.52518200874,2.38664579391,1.04017829895,-3.27540612221,0.407753318548
2017/07/09/10:23:50.142262,541481,1499567032,949773256,,0.699298347746,0.186743782811,0.137950028971,0.704619680783,0.70811213806,-0.0444037739126,0.010798622497,-0.151370009648,-0.337217802434,-0.0890786789342,-0.543288165141,0.289024590152,0.0217676790528,-8.06152248383,-1.4140393734,2.58625841141,1.06817555428,-3.59556984901,0.442337095737
2017/07/09/10:23:50.152187,541482,1499567032,959775055,,0.697591330211,0.182572950941,0.137377208657,0.704520768422,0.707963116168,-0.0478548878592,0.0121910916308,-0.149628761159,-0.333822261116,-0.0838116088852,-0.551320563808,0.298773979659,0.0377124323127,-8.26749229431,-1.70268845558,2.2598233223,1.21884036064,-3.66480112076,0.521024882793
2017/07/09/10:23:50.162349,541483,1499567032,969767877,,0.696469462033,0.179244582062,0.136378901607,0.704162017352,0.708085340114,-0.0509169184895,0.0133593354871,-0.153294345094,-0.359485989392,-0.0861069739221,-0.58431105223,0.303035857255,0.0136243091809,-8.00075340271,-1.61812245846,2.45836472511,1.34171330929,-3.64090824127,0.530249118805
2017/07/09/10:23:50.172714,541484,1499567032,979777601,,0.694755540121,0.175661944332,0.135493995167,0.704133310043,0.707846855348,-0.0542604810694,0.0143147216076,-0.15743462358,-0.369177047747,-0.0843397785868,-0.640616314685,0.319354576882,0.0276511706731,-8.15088272095,-1.49794363976,2.03092217445,1.23726642132,-3.68461179733,0.5846965909
2017/07/09/10:23:50.182338,541485,1499567032,989769488,,0.693154781915,0.171650194813,0.13494298029,0.704039551031,0.707628877715,-0.0578317600014,0.0156578907642,-0.166700890727,-0.365761674904,-0.0894327738673,-0.658314904108,0.345047286356,0.0624738966764,-7.54912948608,-1.88663291931,2.22981214523,1.30777835846,-3.47536683083,0.58452796936
2017/07/09/10:23:50.192408,541486,1499567032,999769835,,0.691694802087,0.169196261099,0.133648000622,0.703193974377,0.708188302186,-0.0609850549051,0.0163824944718,-0.168437317117,-0.373806341146,-0.0805068904432,-0.687974246275,0.348665432819,0.0515007201858,-8.19042015076,-1.4470897913,2.41958045959,1.28565084934,-3.75894331932,0.656032979488
2017/07/09/10:23:50.202699,541487,1499567033,9768666,,0.690808895598,0.164468014007,0.133900354281,0.702578961241,0.708389511819,-0.0648099983584,0.0191511586666,-0.158122873743,-0.380357822495,-0.0835900097987,-0.733232523887,0.346734967859,0.106401570675,-7.93460988998,-1.50616359711,2.34110164642,1.17041170597,-3.62668013573,0.631617307663
2017/07/09/10:23:50.212348,541488,1499567033,19768765,,0.688979503015,0.160863867023,0.132369615762,0.701987473002,0.708594750809,-0.0685803632284,0.0200947917124,-0.158283662012,-0.390170423192,-0.0832812713471,-0.77125026003,0.346739957844,0.150096187686,-8.3598613739,-1.67972564697,2.24684453011,1.23848628998,-3.71916770935,0.655114650726
2017/07/09/10:23:50.222329,541489,1499567033,29772432,,0.686889575812,0.157386859085,0.131245734318,0.701162177077,0.708976209649,-0.0727277605941,0.0208568556356,-0.163940957246,-0.416258055603,-0.0812098996196,-0.795921528238,0.363546635295,0.142414506487,-8.11857128143,-1.14882683754,2.18275403976,1.15436124802,-3.60903668404,0.69900906086
2017/07/09/10:23:50.232234,541490,1499567033,39775335,,0.685912683548,0.153538574616,0.130919362056,0.700320612809,0.709365631666,-0.0763310519653,0.0229131052509,-0.160965889818,-0.382546755547,-0.0832626532395,-0.783801536382,0.375913330593,0.188333486409,-7.41281080246,-1.43855214119,2.17964100838,1.16803658009,-3.34464979172,0.704867303371
2017/07/09/10:23:50.242322,541491,1499567033,49768120,,0.683441195563,0.14989488092,0.129976288563,0.699492799017,0.709637866822,-0.0810172621762,0.0236669669586,-0.181655924831,-0.395091518289,-0.0807379818113,-0.785831352752,0.411920770465,0.164545424669,-7.92031145096,-1.39422500134,2.13554930687,1.0996376276,-3.55393075943,0.727306842804
2017/07/09/10:23:50.252392,541492,1499567033,59773958,,0.68212622758,0.145799493167,0.129702879822,0.698436545695,0.710134630406,-0.0851107441806,0.0255217468313,-0.179519993002,-0.394687840862,-0.0702101048744,-0.8177727335,0.426129736376,0.193470699999,-6.99110460281,-1.35952699184,2.21332097054,1.14588928223,-3.26266717911,0.754725754261
2017/07/09/10:23:50.261983,541493,1499567033,69768476,,0.680399621967,0.141987244623,0.128423962094,0.697510666841,0.710482917101,-0.0893252157104,0.0267189069746,-0.173870335652,-0.417602906666,-0.0683566274542,-0.848214652541,0.415744276409,0.155606761845,-7.19955778122,-1.41402339935,1.95910990238,1.18931937218,-3.33298969269,0.780749320984
2017/07/09/10:23:50.272344,541494,1499567033,79775379,,0.678561375104,0.138222031345,0.127762046912,0.69675564635,0.710614624148,-0.0937357994133,0.0277853402769,-0.179802127339,-0.399032341413,-0.0675060169653,-0.844295702634,0.442908005463,0.189313264808,-7.7515001297,-1.63110351562,1.90323066711,1.27591478825,-3.5613758564,0.875424623489
2017/07/09/10:23:50.282457,541495,1499567033,89776344,,0.676856244614,0.134678620985,0.127173812934,0.695734031055,0.710989725742,-0.0979610510514,0.0291787662081,-0.181233495338,-0.39621270861,-0.0665493243855,-0.835750623167,0.453612421352,0.171705308329,-7.25538396835,-1.54493629932,2.00673794746,1.28232240677,-3.3637111187,0.871672987938
2017/07/09/10:23:50.292219,541496,1499567033,99781556,,0.67450378124,0.129742538434,0.126322863742,0.695255818519,0.710680878498,-0.103064967756,0.0304901323915,-0.177964645924,-0.385734118686,-0.0653790110109,-0.843521460962,0.449099734846,0.189104532655,-7.10272026062,-2.24891781807,1.78169977665,1.40450882912,-3.19069457054,0.870993077755
2017/07/09/10:23:50.302225,541497,1499567033,109769355,,0.673146874871,0.12681749337,0.125857221047,0.694600616022,0.710708508945,-0.106862922727,0.0316814658844,-0.180809248119,-0.399269444183,-0.061201886139,-0.833401420087,0.448919631386,0.13219802143,-6.9401922226,-1.60767149925,1.97146654129,1.28648817539,-3.16548967361,0.854316115379
2017/07/09/10:23:50.312632,541498,1499567033,119775786,,0.671620335469,0.123882917801,0.125139279545,0.694057539532,0.710653057344,-0.11041298581,0.032639492497,-0.185539167184,-0.367699281068,-0.0677086303111,-0.807366789336,0.470876446755,0.134397929027,-7.00851869583,-1.36249148846,1.75256967545,1.23062050343,-3.15670347214,0.857928872108
2017/07/09/10:23:50.322343,541499,1499567033,129774952,,0.669303776413,0.120525257797,0.12378677731,0.693666322405,0.710296154016,-0.11494845973,0.0330644576204,-0.189937738818,-0.362020743127,-0.0644900750819,-0.77648983143,0.459951356253,0.0243242150612,-7.23615169525,-1.80213665962,1.37346196175,1.24323296547,-3.22892332077,0.889097750187
2017/07/09/10:23:50.332483,541500,1499567033,139773025,,0.667959060974,0.116404199962,0.124180170342,0.693477211644,0.709715058169,-0.11907054613,0.0348725993038,-0.196144775,-0.355978103953,-0.0598626383692,-0.751088530879,0.466362344518,-0.0459700194855,-6.51036882401,-2.29741644859,2.05658102036,1.356082201,-2.99533247948,0.822432935238
2017/07/09/10:23:50.342043,541501,1499567033,149771072,,0.66622077894,0.114241037722,0.123381744747,0.693770572926,0.70888853276,-0.12219058545,0.0350556855689,-0.175639207426,-0.336758434515,-0.0590877871434,-0.73889111471,0.424455925819,-0.0592440228606,-6.95493364334,-1.91576290131,1.78295433521,1.25879299641,-3.15468454361,0.88879096508
2017/07/09/10:23:50.352092,541502,1499567033,159768237,,0.664582670415,0.111141753561,0.122993594727,0.694096656641,0.707860779569,-0.125964896586,0.0359971223355,-0.191025951884,-0.315506547524,-0.0710472462757,-0.662835423919,0.435092084499,-0.163392374511,-6.74304056168,-1.90183031559,2.03787302971,1.26114726067,-3.10707974434,0.83465731144
2017/07/09/10:23:50.362674,541503,1499567033,169769829,,0.662462142253,0.107600504244,0.121915251994,0.694906929084,0.706421339538,-0.12950472891,0.0360801350556,-0.189232680023,-0.297440134417,-0.0746106805133,-0.616033376612,0.435829512715,-0.210413547581,-6.83841848373,-2.44933605194,1.35792994499,1.41556680202,-3.06365418434,0.874322891235
2017/07/09/10:23:50.372391,541504,1499567033,179776409,,0.661240841467,0.106187891376,0.121086670785,0.695361071159,0.705491402967,-0.132044516535,0.0363195086474,-0.198487070199,-0.288340788104,-0.0788043514598,-0.5714806618,0.439985439569,-0.288337342919,-6.70982122421,-1.59404540062,1.87123131752,1.27709305286,-3.0948445797,0.852903008461
2017/07/09/10:23:50.382266,541505,1499567033,189776661,,0.659478809678,0.10337908556,0.11998291629,0.696209634734,0.704061919323,-0.135169767415,0.0363055400616,-0.185830201268,-0.246374124421,-0.0799230985447,-0.514335703774,0.412956493908,-0.298256903554,-6.21931171417,-1.05593812466,1.45643270016,1.111079216,-2.86259293556,0.846518099308
2017/07/09/10:23:50.392069,541506,1499567033,199769448,,0.657610303775,0.101407836752,0.119352608565,0.69747926407,0.702281280466,-0.137941367233,0.0359980347272,-0.18314404858,-0.232454356542,-0.0889545031507,-0.470029094354,0.389139832313,-0.347933227565,-6.34295940399,-1.33447015285,2.11109256744,1.14036417007,-2.9557800293,0.795853018761
2017/07/09/10:23:50.402432,541507,1499567033,209770292,,0.655874464753,0.0986002656968,0.118870608363,0.698725105414,0.70041366194,-0.140984734452,0.0364312212892,-0.171282009055,-0.221691737636,-0.0836393149791,-0.451868454101,0.359811806895,-0.389268821785,-5.83702135086,-1.57073760033,2.07838273048,0.935953855515,-2.71816372871,0.805098176003
2017/07/09/10:23:50.412382,541508,1499567033,219781699,,0.654315603046,0.0971979914087,0.117686520845,0.699915697457,0.69869594391,-0.143648124849,0.0361553681275,-0.173534551524,-0.239336371826,-0.0823178623975,-0.456356777915,0.36012791195,-0.451143692377,-5.47199440002,-1.04187512398,1.67498123646,0.5878713727,-2.64465355873,0.840216040611
2017/07/09/10:23:50.422460,541509,1499567033,229773736,,0.652774692194,0.0950435093864,0.117103722693,0.700243526478,0.69768459221,-0.146801059407,0.0366696383383,-0.15874565231,-0.231472020442,-0.0677804983371,-0.487102277806,0.324943026774,-0.439651841117,-5.68045425415,-1.39135181904,1.22746646404,0.565020442009,-2.70795869827,0.816208422184
2017/07/09/10:23:50.432427,541510,1499567033,239772797,,0.651253470345,0.0918643532285,0.116178178812,0.701480244941,0.69568132908,-0.150243224853,0.0371473782695,-0.159351251125,-0.235613558395,-0.0678220126894,-0.531817439165,0.338113869997,-0.404714092319,-5.21186828613,-1.22759866714,0.893341422081,0.357385545969,-2.62090086937,0.753129065037
2017/07/09/10:23:50.442191,541511,1499567033,249769467,,0.649511402284,0.090364464707,0.115941778986,0.702273791658,0.694240731183,-0.153108428401,0.0374050513821,-0.169976426926,-0.261033987702,-0.0799171175895,-0.567462710029,0.364862763767,-0.403806809019,-4.4594168663,-0.772083342075,0.43980589509,0.36332565546,-2.32519602776,0.629969060421
2017/07/09/10:23:50.452370,541512,1499567033,259768026,,0.648392619042,0.0877019375598,0.115123479924,0.70349638102,0.692337458652,-0.155928319571,0.0380531785104,-0.14518411242,-0.248013481552,-0.0603988465969,-0.55737069303,0.31686213085,-0.390199979429,-4.55727291107,-0.912984371185,1.08816730976,0.696700692177,-2.3751039505,0.636140465736
2017/07/09/10:23:50.462049,541513,1499567033,269768718,,0.647099814722,0.0864590519755,0.114426265327,0.704241336787,0.691078641524,-0.158155837424,0.0379629013429,-0.139113817137,-0.219296139443,-0.0690429393648,-0.504233334644,0.300986079158,-0.396735872129,-4.5328874588,-0.225903883576,0.715444743633,0.645487189293,-2.31866049767,0.664520919323
2017/07/09/10:23:50.472565,541514,1499567033,279776283,,0.645576421645,0.085193406351,0.113218414505,0.705239681251,0.689428512269,-0.160888287805,0.037950985579,-0.143197953066,-0.210839314069,-0.0757075055148,-0.457058764904,0.275506560572,-0.467365405677,-4.39994955063,0.540320694447,0.48818218708,0.474614143372,-2.17462325096,0.600531935692
2017/07/09/10:23:50.482371,541515,1499567033,289771380,,0.644341691891,0.0827748768998,0.112532752718,0.707041189055,0.68710176231,-0.162879444645,0.0381341280456,-0.131032697808,-0.19352968886,-0.0706012268112,-0.43550120866,0.244040493018,-0.484638478671,-5.24054193497,-0.148789435625,1.62325370312,0.769836843014,-2.5052614212,0.729934990406
2017/07/09/10:23:50.492299,541516,1499567033,299767636,,0.643193397461,0.0807548154537,0.112089996314,0.708727761492,0.684855885808,-0.164915409058,0.038474454123,-0.137971930424,-0.186727072039,-0.0655361030404,-0.410518650637,0.25238728807,-0.508825193548,-5.60798358917,-0.603486835957,1.35157883167,0.703253746033,-2.57056188583,0.729433655739
2017/07/09/10:23:50.502105,541517,1499567033,309768582,,0.641652393881,0.0787402527584,0.111512977294,0.710215075926,0.682698388637,-0.167446569955,0.038459098934,-0.13330852633,-0.180016091018,-0.0595431075932,-0.390984782693,0.236881575012,-0.531490459967,-5.27400302887,-0.635116636753,1.44700801373,0.546849906445,-2.44673633575,0.677014350891
2017/07/09/10:23:50.512477,541518,1499567033,319776109,,0.640982290845,0.0773917750639,0.1112077645,0.711627366041,0.680845927627,-0.168921864401,0.0387391076603,-0.133932320008,-0.176082957774,-0.0714681226739,-0.366681517229,0.255367458232,-0.530745061616,-3.86042094231,-0.39526835084,0.740393340588,0.434754550457,-1.99348497391,0.527752161026
2017/07/09/10:23:50.522370,541519,1499567033,329769176,,0.63932880677,0.076129346558,0.110474982856,0.712712527059,0.679174156646,-0.171180149183,0.0382187812873,-0.138872071595,-0.157664167941,-0.0642446280227,-0.351507310559,0.278287180401,-0.495468161879,-3.22215771675,0.122490830719,0.309410959482,0.199780672789,-1.74957537651,0.46888923645
2017/07/09/10:23:50.532294,541520,1499567033,339773443,,0.637619753885,0.0749723457124,0.109511533564,0.713948394229,0.677230815144,-0.173818757382,0.037724699875,-0.143278115493,-0.155370581142,-0.0757114182333,-0.324356343841,0.273273964122,-0.507001083125,-3.21769714355,0.139798998833,0.359541207552,0.199768602848,-1.70636236668,0.47124928236
2017/07/09/10:23:50.541950,541521,1499567033,349769204,,0.636520519876,0.0735149111163,0.108788719314,0.715197422688,0.675481476367,-0.175499802552,0.0376462610366,-0.126652718376,-0.136642218104,-0.0623717115602,-0.310704008615,0.23326336993,-0.483845018527,-3.37274742126,-0.0137423686683,0.000356920063496,0.211930572987,-1.7487398386,0.471166968346
2017/07/09/10:23:50.552275,541522,1499567033,359771665,,0.634910989068,0.0718505793175,0.108118425417,0.716711579183,0.673338209547,-0.177585251801,0.0374652661992,-0.125800983935,-0.129026122232,-0.0707740421634,-0.309820517957,0.25435535286,-0.424657194956,-3.00498843193,-0.335879504681,0.655761539936,0.371351033449,-1.6655600071,0.461525142193
2017/07/09/10:23:50.562121,541523,1499567033,369768349,,0.634303868415,0.0710770235957,0.107724961472,0.717660289587,0.671929345687,-0.179077682294,0.0374946244076,-0.141437716366,-0.154420234066,-0.0691941524051,-0.312825034085,0.265361218422,-0.474930069369,-3.03684902191,0.255041152239,0.715220153332,0.341929584742,-1.74634826183,0.479935646057
2017/07/09/10:23:50.572379,541524,1499567033,379775336,,0.632444154259,0.0687264477406,0.106874270004,0.718697124609,0.670098763825,-0.181816961096,0.0372113216107,-0.130456134117,-0.128765176343,-0.0602332789145,-0.283459196324,0.254465539791,-0.43572146191,-3.32983613014,-0.253027409315,0.348057329655,0.329991042614,-1.77123057842,0.537316203117
2017/07/09/10:23:50.582533,541525,1499567033,389770198,,0.631215128709,0.0675814583342,0.106149810272,0.720452038066,0.667863899846,-0.183199226153,0.036670364958,-0.147868458094,-0.133927809983,-0.0728696094721,-0.275481533044,0.299586833855,-0.44595692707,-2.48356294632,-0.166242584586,0.364884465933,0.342158436775,-1.49658322334,0.455011606216
2017/07/09/10:23:50.592318,541526,1499567033,399774645,,0.629862002439,0.0669363578459,0.105462695726,0.721070070402,0.666751946452,-0.184903995743,0.0361981744229,-0.152490046729,-0.136202363296,-0.0714281173466,-0.252967163375,0.282408288613,-0.48661291774,-2.04746484756,0.420973539352,-0.172637984157,0.121153071523,-1.31149554253,0.418542981148
2017/07/09/10:23:50.602754,541527,1499567033,409768901,,0.628802424083,0.0660888473549,0.104787652359,0.722038478601,0.665248127351,-0.18659334131,0.0358927493318,-0.146708135413,-0.119013435236,-0.0714991042128,-0.242031807,0.294061852134,-0.438816421623,-1.63417601585,0.644843041897,-0.00614238530397,0.221143126488,-1.24965512753,0.41522359848
2017/07/09/10:23:50.612377,541528,1499567033,419775520,,0.626736667881,0.064087239779,0.104470537293,0.723407311282,0.663044554602,-0.189260942828,0.0351294195303,-0.140048681242,-0.122728952921,-0.0521712770876,-0.258363175648,0.267032527054,-0.465054744851,-2.04312419891,0.0681411772966,-0.197547495365,0.274312615395,-1.28502035141,0.387407630682
2017/07/09/10:23:50.622341,541529,1499567033,429768950,,0.625776646313,0.063210050722,0.104005862216,0.724587530263,0.661361745586,-0.190667977429,0.0349181162949,-0.177210033854,-0.145966748556,-0.0613018225467,-0.286076869556,0.364406168137,-0.45397887808,-1.27919054031,0.291377842426,-0.0574003085494,0.251579105854,-1.12040233612,0.353458821774
2017/07/09/10:23:50.632252,541530,1499567033,439769124,,0.623997287223,0.0616082160487,0.10376618756,0.725416675169,0.659817328064,-0.192945984155,0.0344033162808,-0.166445770332,-0.133476272864,-0.0522332231868,-0.253662626366,0.339051514502,-0.418046003222,-1.31632208824,-0.0315010100603,0.330486804247,0.304108202457,-1.1363120079,0.314277052879
2017/07/09/10:23:50.642529,541531,1499567033,449775964,,0.621776688364,0.0601820468813,0.102855007247,0.726774193705,0.657696055402,-0.195278136925,0.0331906509591,-0.176284603371,-0.12966062778,-0.0546229763229,-0.241989419194,0.354290586955,-0.445379440669,-1.95554971695,-0.215092897415,0.100922584534,0.226120635867,-1.24926316738,0.340363293886
2017/07/09/10:23:50.652572,541532,1499567033,459772065,,0.620633498197,0.0598237136005,0.10250329594,0.727187217448,0.656735323782,-0.197012512092,0.0329170982346,-0.171935263013,-0.125522761621,-0.0502272705946,-0.23158499981,0.345403047193,-0.421378158113,-0.727362453938,0.693847417831,0.421659886837,0.18642359972,-0.901817560196,0.27213203907
2017/07/09/10:23:50.662434,541533,1499567033,469768140,,0.618645530911,0.0585426808764,0.101938333375,0.728020497996,0.655206393884,-0.199209094757,0.0317249504018,-0.174390278189,-0.115308971653,-0.0525602781623,-0.244547685001,0.360493485961,-0.414668183639,-0.300173133612,0.224877491593,-0.355883896351,0.0702350065112,-0.624255120754,0.150801107287
2017/07/09/10:23:50.672343,541534,1499567033,479775504,,0.616916788474,0.056692115584,0.10154896024,0.729219568416,0.653225948626,-0.201391925515,0.0312405732635,-0.183151206291,-0.139497949962,-0.0463328054852,-0.25732936827,0.387266389347,-0.405843720678,-0.431655704975,-0.0500966832042,0.446222454309,0.259589076042,-0.76374733448,0.15055668354
2017/07/09/10:23:50.682373,541535,1499567033,489767975,,0.615675550046,0.0558717464005,0.10135003734,0.729672391998,0.65218368115,-0.203181923918,0.0308504811885,-0.161877782187,-0.144027577432,-0.0314328852751,-0.253102233451,0.342803142899,-0.361209764188,-0.182423859835,0.636346817017,0.0560524649918,0.0529151372612,-0.608137190342,0.115079335868
2017/07/09/10:23:50.692368,541536,1499567033,499775847,,0.61462815427,0.0545098754125,0.100933096169,0.72998376187,0.651321239876,-0.204883863646,0.0304458915005,-0.151119625802,-0.142681353944,-0.0358736511403,-0.259960201293,0.341695938922,-0.336032881002,0.0129028819501,0.63289809227,-0.211452201009,0.0945242866874,-0.512638151646,0.092138171196
2017/07/09/10:23:50.702335,541537,1499567033,509768457,,0.612740149827,0.0524731785857,0.100899488388,0.730839865114,0.649549944307,-0.207496893157,0.0300499707454,-0.16490255725,-0.138645515196,-0.0395431938981,-0.235022180063,0.369415321454,-0.297972696023,0.326971024275,0.311700791121,-0.149947226048,0.0590225234628,-0.404777228832,0.0611253082752
2017/07/09/10:23:50.712195,541538,1499567033,519767936,,0.611036253183,0.0514275659358,0.100006373681,0.731146790622,0.648669927497,-0.209339646547,0.0287855538165,-0.166329204646,-0.147269676661,-0.039747238486,-0.228604047629,0.368214569351,-0.287221752933,0.392801463604,0.287228018045,-0.45605301857,0.0280844680965,-0.37422066927,0.0657735690475
2017/07/09/10:23:50.722194,541539,1499567033,529770426,,0.60979683517,0.0496222783455,0.100105075225,0.731716422382,0.647457226646,-0.211088046796,0.0288453355022,-0.160786661183,-0.160574146484,-0.0375781167868,-0.242471480979,0.369516315755,-0.246752286435,0.616332232952,0.00685956701636,-0.523683547974,0.0413695275784,-0.271198570728,0.0291209910065
2017/07/09/10:23:50.732399,541540,1499567033,539771318,,0.608367394561,0.0478510910756,0.0997019953985,0.731545645173,0.646922314083,-0.213338316155,0.0286225685378,-0.1586647203,-0.184355962606,-0.0344872248294,-0.262077376675,0.343172448653,-0.260270997007,0.614333331585,0.273474574089,0.131757259369,0.207703843713,-0.370996713638,0.0440568588674
2017/07/09/10:23:50.742277,541541,1499567033,549773105,,0.606878395956,0.0465414325316,0.0991166597678,0.732271981125,0.645569910411,-0.215051086561,0.0277536772362,-0.147286476058,-0.175492135504,-0.0302982223464,-0.256484893616,0.341092372424,-0.194070437482,1.12665581703,0.722003281116,-0.877851903439,-0.107047989964,-0.0831933692098,-0.0152170602232
2017/07/09/10:23:50.752345,541542,1499567033,559776149,,0.605140840142,0.0450338388214,0.0985829009854,0.732456795964,0.644737887705,-0.216990529153,0.0271147277673,-0.138664706419,-0.165286985934,-0.0296811395884,-0.226931608374,0.322315863734,-0.155918858804,1.25790679455,1.00328981876,-0.919854700565,-0.11289152503,-0.0270425789058,-0.00715137459338
2017/07/09/10:23:50.762329,541543,1499567033,569774129,,0.603846884723,0.0430845774516,0.0980272592009,0.732247710863,0.644354484227,-0.21887745121,0.0267067396822,-0.144267367159,-0.154351258057,-0.0415640125288,-0.216488922102,0.340717191442,-0.124231704712,1.29588842392,-0.0293372124434,-1.11702919006,0.184408992529,0.00440947711468,-0.0239948071539
2017/07/09/10:23:50.772595,541544,1499567033,579766969,,0.602238948168,0.0413092819878,0.0974717054999,0.732227088579,0.643707227405,-0.220901847841,0.0262082002017,-0.128716576489,-0.167070517587,-0.0424922106952,-0.212629540973,0.293111169035,-0.115941577958,1.32435894012,0.0678623318672,-1.2212651968,0.0183183792979,0.0248502418399,-0.0522730872035
2017/07/09/10:23:50.782346,541545,1499567033,589769107,,0.601817423013,0.0399999945625,0.0974934405024,0.732416601358,0.643100083724,-0.221992164768,0.0266023147857,-0.136900173074,-0.155574800298,-0.0416981101003,-0.178977579475,0.310353569177,-0.115238681472,1.7933267355,-0.232569605112,-0.935074329376,0.0321104861796,0.129127621651,-0.0764628648758
2017/07/09/10:23:50.792223,541546,1499567033,599767027,,0.600032977765,0.0387569649322,0.0971960543933,0.732522563948,0.642468273343,-0.223570609465,0.0257175745157,-0.11963309195,-0.140671862333,-0.0345931895072,-0.158088194588,0.24268878993,-0.15148922254,1.29866313934,-0.0815164968371,-0.711791813374,-0.130112335086,-0.053962148726,-0.0123787429184
2017/07/09/10:23:50.802199,541547,1499567033,609770076,,0.599057889896,0.0376344455337,0.0970903857326,0.732976143291,0.64163668032,-0.224508373294,0.025383738005,-0.125320579459,-0.138657385217,-0.0412150797951,-0.131992268741,0.245438384715,-0.163086614515,1.31927394867,-0.406055629253,-0.507227182388,-0.0419697575271,-0.0180924385786,-0.0276715997607
2017/07/09/10:23:50.812393,541548,1499567033,619781719,,0.598173480997,0.0364041290122,0.0962184953882,0.732981765124,0.641274344732,-0.22554733,0.0251664203824,-0.131462890036,-0.142069801433,-0.0440495268937,-0.115044568754,0.238697094047,-0.172763816134,1.62067103386,0.294939160347,-0.812371492386,-0.32703986764,0.028949143365,-0.0233116578311
2017/07/09/10:23:50.822197,541549,1499567033,629769655,,0.595995515873,0.0351299411328,0.0955132478152,0.733401355093,0.640378569675,-0.226887922947,0.0236560831276,-0.155549332096,-0.146464807596,-0.0586951077932,-0.0927014305317,0.26690653199,-0.209966744919,1.23185217381,0.069813914597,-1.2101919651,-0.225913792849,-0.00842153653502,0.00501605682075
2017/07/09/10:23:50.832265,541550,1499567033,639775936,,0.594850394957,0.033737459432,0.0948058872243,0.734060074431,0.639324418732,-0.227775044024,0.0232082756385,-0.14379455468,-0.100335960234,-0.0725833249722,-0.0330745163874,0.252329630233,-0.150436942579,1.37442457676,-0.286008358002,-0.937465667725,-0.0909412577748,0.00664215162396,-0.00261305086315
2017/07/09/10:23:50.842917,541551,1499567033,649776286,,0.593895548939,0.0332661871694,0.0943826051017,0.734288852721,0.638878513697,-0.228345237148,0.0226401894299,-0.133951289178,-0.0918544597524,-0.0693807457348,-0.0175669882492,0.214850274071,-0.147531619554,2.01008653641,0.963642776012,-0.381661087275,-0.177348271012,0.369706392288,-0.0892497003078
2017/07/09/10:23:50.852330,541552,1499567033,659767252,,0.592593606308,0.0318241944226,0.0938119592739,0.734483284332,0.638423076352,-0.229059169369,0.0219585415066,-0.124464196871,-0.106626831877,-0.0570238179958,-0.0291585205668,0.176025830354,-0.169104231066,0.993342995644,-0.0985928922892,0.0721651017666,0.00994222611189,0.016465658322,-0.0509067773819
2017/07/09/10:23:50.862102,541553,1499567033,669767252,,0.591094135799,0.0306795242905,0.0931741024599,0.734750690862,0.637782491316,-0.230061827813,0.0211298706262,-0.133601951606,-0.131094143873,-0.0470987826554,-0.0493164385898,0.180429385386,-0.225588696,-0.131735131145,0.0753663629293,-0.415673524141,-0.0175753422081,-0.279323905706,0.0359197296202
2017/07/09/10:23:50.872364,541554,1499567033,679776460,,0.589663600273,0.0301340887208,0.0925164985991,0.734448735053,0.637740221918,-0.231238447991,0.0200311032848,-0.150553203407,-0.114731956338,-0.0561992097819,-0.0368241922172,0.232718930499,-0.176197343973,-0.222670465708,0.256670385599,-0.291421532631,0.00226815417409,-0.285556703806,0.0450302138925
2017/07/09/10:23:50.882333,541555,1499567033,689772504,,0.587903980047,0.0288781653506,0.0915631538504,0.734983413573,0.636768886536,-0.232296192797,0.0190590063688,-0.153600313697,-0.113087946778,-0.0599147680607,-0.0401694112074,0.243105861542,-0.166330296765,0.328020632267,0.479349285364,-0.47786283493,-0.106396779418,-0.101883880794,-0.0106943063438
2017/07/09/10:23:50.892432,541556,1499567033,699796392,,0.587307802694,0.0279643057297,0.0914911998503,0.735411005936,0.636289849329,-0.232257900417,0.019030178211,-0.144000684949,-0.116208702279,-0.0587017119074,-0.028680966247,0.214805222546,-0.157175350555,0.930648028851,0.174932196736,0.104619130492,0.0976452678442,0.0269897338003,-0.112469367683
2017/07/09/10:23:50.902216,541557,1499567033,709770223,,0.585398344431,0.0262132037426,0.0909603226514,0.735886185169,0.635195979736,-0.233807107367,0.018216101379,-0.135015410513,-0.116051074355,-0.0624344016172,-0.0436467735907,0.182581665209,-0.18217964808,1.14915275574,0.303906261921,0.0753086358309,0.0511894896626,0.166558429599,-0.128943130374
2017/07/09/10:23:50.912388,541558,1499567033,719776720,,0.584284546632,0.02550650041,0.0901467676292,0.735881604238,0.63499901836,-0.234420423987,0.0173659449116,-0.136382324467,-0.0989451985635,-0.0669829525312,-0.0197769144406,0.215169746866,-0.129123306565,0.351698964834,0.297997385263,0.151726156473,0.0828773900867,-0.0769227445126,-0.0662018209696
2017/07/09/10:23:50.922127,541559,1499567033,729768173,,0.582960101773,0.0244548194344,0.0898631593384,0.736167272795,0.634425429291,-0.235126376209,0.0166645835455,-0.12754583138,-0.0968464550396,-0.0524703379227,-0.0122566988925,0.180087203615,-0.155905890917,-0.360095858574,0.295761615038,0.365791082382,0.101011306047,-0.359092116356,0.0342185497284
2017/07/09/10:23:50.932273,541560,1499567033,739781052,,0.581340662998,0.0229850959328,0.0890841396518,0.736547845706,0.633626582347,-0.236136162792,0.0159479701282,-0.146709941702,-0.125704968859,-0.0552388217669,-0.0193528160178,0.180960582675,-0.214131431024,-1.39153420925,0.0628903359175,0.733604133129,0.195820614696,-0.780139923096,0.123377211392
2017/07/09/10:23:50.942105,541561,1499567033,749771988,,0.580147890216,0.0220537790501,0.088580618824,0.737045589612,0.632859946797,-0.236676127433,0.0153784679366,-0.138965231255,-0.14462410625,-0.0518208444148,-0.0329605369492,0.157672561159,-0.227247919097,-1.65563881397,0.340714007616,0.42246645689,0.204074680805,-0.78405046463,0.147815272212
2017/07/09/10:23:50.952409,541562,1499567033,759779176,,0.579051506023,0.0211991202091,0.0878598560995,0.737357232847,0.632345741301,-0.237127598606,0.0146176812534,-0.125144123841,-0.107767164637,-0.0654348137242,0.00574117546059,0.143968400857,-0.179128973947,-0.785416841507,0.491373389959,0.452945411205,0.260166108608,-0.45698133111,0.0755574926734
2017/07/09/10:23:50.962537,541563,1499567033,769776599,,0.578038180203,0.0198849688654,0.0871505603931,0.737855594614,0.631658434143,-0.237439598749,0.0141131505688,-0.13805818316,-0.114621197257,-0.0687298731444,-0.00865044878825,0.170675500862,-0.205581393542,0.35837700963,1.02177214622,0.108085595071,0.005480337888,-0.0174545627087,-0.0600297264755
2017/07/09/10:23:50.972313,541564,1499567033,779776430,,0.576400511497,0.0185131031313,0.0870860578842,0.738522413536,0.63052081141,-0.23842040827,0.0135594986483,-0.140045276827,-0.140196536666,-0.0623024964272,-0.0288960483256,0.153774816418,-0.231657875698,-0.0468620881438,0.750633776188,0.728330492973,0.150696545839,-0.152521401644,-0.0519030615687
2017/07/09/10:23:50.982284,541565,1499567033,789768934,,0.575312079624,0.0173314889735,0.086299343773,0.738785095037,0.630028518318,-0.238948725486,0.012812339631,-0.131545084426,-0.11640928239,-0.0562664478937,-0.00547151654816,0.175157448074,-0.160888181039,-0.131643995643,0.549987435341,0.457216024399,0.0745321065187,-0.126898273826,-0.0888700783253
2017/07/09/10:23:50.992490,541566,1499567033,799791385,,0.573285826958,0.0155084831895,0.0855058894298,0.73935319029,0.628973950425,-0.240030803769,0.0115690507831,-0.14558877577,-0.120885120505,-0.0593017219047,-0.0114426275258,0.205855869376,-0.20828400284,-1.32993710041,0.0451833158731,0.468827366829,0.150232926011,-0.464829295874,0.0156341232359
2017/07/09/10:23:51.002548,541567,1499567033,809769790,,0.572039476226,0.0149731362447,0.0847907185552,0.739471296965,0.628613904713,-0.240649289975,0.0107088281987,-0.152927455679,-0.11191666467,-0.0633139063701,0.0158509502381,0.21177313722,-0.209015812734,-1.7241704464,0.670340240002,0.64859187603,0.136340335011,-0.632324814796,0.102277331054
2017/07/09/10:23:51.012478,541568,1499567033,819775619,,0.571652064203,0.0146331599945,0.084705568696,0.739805964139,0.628215511433,-0.240671668345,0.0104668368928,-0.175413608598,-0.114881794785,-0.0705374953261,0.012774986362,0.263733887716,-0.211414919569,-0.612582683563,0.929673552513,1.33245897293,0.0654036253691,-0.5011754632,0.0576442107558
2017/07/09/10:23:51.022490,541569,1499567033,829768205,,0.569041205404,0.0131873146017,0.0837486373529,0.739833292399,0.627472424986,-0.242582687497,0.00887102407807,-0.158345589941,-0.118707507205,-0.0613219590325,-0.0241674749444,0.233624792279,-0.201812153235,-0.628435492516,0.780263245106,0.872538089752,0.0301275141537,-0.379927366972,0.0217071194202
2017/07/09/10:23:51.032173,541570,1499567033,839771929,,0.56780396348,0.0116062162176,0.0835001288548,0.740448117807,0.626464153277,-0.243328011047,0.00841002590075,-0.162896005085,-0.132697120681,-0.0667336764058,-0.0260638671482,0.238338891225,-0.21833313985,-0.656851112843,0.446444272995,1.0960829258,0.128156200051,-0.450884461403,0.0112670194358
2017/07/09/10:23:51.042163,541571,1499567033,849769619,,0.566205027977,0.00982428542715,0.0827935572547,0.740852719488,0.625604978054,-0.244330185163,0.0076433029184,-0.159763006637,-0.140548275371,-0.0593873726946,-0.0475029312733,0.255574346189,-0.16638063797,-0.956597805023,0.0235283970833,0.822027623653,0.173729464412,-0.542017161846,0.00953346677125
2017/07/09/10:23:51.052302,541572,1499567033,859775352,,0.564496803707,0.00869334402899,0.0823741422093,0.740763637508,0.625217869558,-0.24561525466,0.00670787667034,-0.155443093642,-0.147366216501,-0.0616285188082,-0.0579310565592,0.236159671101,-0.183205815698,-0.61479896307,0.169649541378,0.93807220459,0.246615424752,-0.416254848242,-0.0352336168289
2017/07/09/10:23:51.062342,541573,1499567033,869770630,,0.56361357756,0.00824064968041,0.0813443811909,0.741060868423,0.624707386649,-0.246038005418,0.00589663023452,-0.14729006292,-0.122766912629,-0.0636167231985,-0.0408740398792,0.240833247612,-0.125719305001,-0.0733955651522,0.814885556698,0.517125308514,0.0375150665641,-0.264767944813,-0.032701395452
2017/07/09/10:23:51.072539,541574,1499567033,879771905,,0.561911879088,0.00575771570693,0.0812874490449,0.74148251682,0.62355954657,-0.247676800595,0.00577681384669,-0.145537527426,-0.135177344857,-0.0609556731182,-0.0680887852527,0.22847535113,-0.147339323061,-0.170872837305,-0.0986802205443,0.842519402504,0.181006774306,-0.219742670655,-0.130547523499
2017/07/09/10:23:51.082283,541575,1499567033,889769759,,0.560635144892,0.00571792970431,0.0800347181541,0.741181983255,0.62373681153,-0.248157047569,0.00444267745582,-0.139242377776,-0.120557276191,-0.0627320533284,-0.068330091524,0.230038651735,-0.0992791685458,-0.48677021265,0.67843323946,0.561970233917,0.107733272016,-0.333495467901,-0.0382322706282
2017/07/09/10:23:51.092197,541576,1499567033,899783514,,0.558612248249,0.00437775737899,0.0792838810106,0.741073321303,0.623148156272,-0.249965516022,0.00373478077129,-0.162025429719,-0.133729161916,-0.0772237338816,-0.0615782716409,0.269966608217,-0.128926217185,0.112083271146,0.978129148483,-0.0369645021856,-0.0599728263915,-0.0323011875153,-0.106183543801
2017/07/09/10:23:51.102316,541577,1499567033,909770097,,0.557104656894,0.002154287455,0.0788649339386,0.740912280041,0.622760966273,-0.251409669317,0.00330913045294,-0.15332408431,-0.13843720262,-0.069450996506,-0.0695574209082,0.261923511496,-0.12718455224,0.378812491894,-0.2177182585,0.467875748873,0.280368626118,-0.0390387251973,-0.221639990807
2017/07/09/10:23:51.113148,541578,1499567033,919780694,,0.556396198631,0.000938067918617,0.0783014388686,0.740864114748,0.622653074751,-0.251818947991,0.00327557842996,-0.165630806668,-0.155316234838,-0.0680497440416,-0.0858541616995,0.279138188916,-0.129285925918,0.320475310087,-0.390343368053,1.36051285267,0.392766058445,-0.254433035851,-0.174183279276
2017/07/09/10:23:51.122197,541579,1499567033,929770041,,0.554449820915,-0.000845464896281,0.0771596609387,0.741623469187,0.621181770908,-0.253225653734,0.00214609721742,-0.172241459239,-0.159476263942,-0.0782923295228,-0.101299410734,0.310553637372,-0.102671080175,0.473967432976,-0.268263727427,0.996785759926,0.331168323755,-0.143052831292,-0.189485758543
2017/07/09/10:23:51.132400,541580,1499567033,939772079,,0.552846058851,-0.00179686648696,0.0766666434321,0.74109062421,0.621179717313,-0.254791069427,0.00139873053904,-0.152448994305,-0.12720265975,-0.0804777234793,-0.0578006109231,0.279161202574,-0.0724739661737,0.060306482017,0.450057923794,1.20033717155,0.188625440001,-0.291450679302,-0.0930190160871
2017/07/09/10:23:51.142375,541581,1499567033,949775367,,0.551082386356,-0.00330723203592,0.0755496044722,0.741089629888,0.620623175642,-0.256149281553,0.000761505033162,-0.162463072468,-0.139832435442,-0.0766089952248,-0.0946311708261,0.290236041286,-0.0804917624303,0.216066241264,0.401322335005,1.10270357132,0.263782918453,-0.274740844965,-0.0793374702334
2017/07/09/10:23:51.152325,541582,1499567033,959773184,,0.550032810215,-0.00429932280163,0.074897505336,0.740660953433,0.620674999761,-0.257262099083,0.000330311275944,-0.14834613026,-0.132397546485,-0.0809851031905,-0.0978944468592,0.27958687126,-0.0394590295574,0.634002327919,0.122369766235,0.711376667023,0.194504529238,-0.0785129368305,-0.196594104171
2017/07/09/10:23:51.162368,541583,1499567033,969768994,,0.548218952442,-0.00546848591624,0.0742061661676,0.74029523602,0.620448431934,-0.258856378483,-0.000286627679779,-0.151489182355,-0.126084383871,-0.0787355074485,-0.0751562842482,0.29504259949,-0.0503408970016,0.361184179783,0.328541725874,0.380336254835,0.143585979939,-0.00615706853569,-0.162395775318
2017/07/09/10:23:51.172433,541584,1499567033,979774781,,0.547029117425,-0.00692656598084,0.0731964969021,0.740377255442,0.620020497339,-0.259643654786,-0.00112917320869,-0.159472969664,-0.135439066109,-0.0846696936396,-0.0980087892539,0.291792027787,-0.0577889976898,1.30919861794,-0.18383154273,0.35292211175,0.192134678364,0.23098602891,-0.295558035374
2017/07/09/10:23:51.182582,541585,1499567033,989771353,,0.545587140071,-0.00804008580325,0.072601877594,0.740209998258,0.619694205542,-0.260893894043,-0.00162053938532,-0.146863987881,-0.137721920208,-0.0893308966469,-0.0790093331449,0.263259360551,-0.0677692661874,1.27193450928,-0.215974673629,0.185087800026,0.213724419475,0.305481016636,-0.287084043026
2017/07/09/10:23:51.192472,541586,1499567033,999782702,,0.543961013182,-0.0102594210097,0.0718263251484,0.74034419285,0.618875271214,-0.262450017084,-0.00196553443041,-0.158750912802,-0.127997558039,-0.092569515879,-0.0643701756325,0.294867521344,-0.0548350245339,1.36523640156,-0.228487074375,0.11282594502,0.125595733523,0.437616467476,-0.323634922504
2017/07/09/10:23:51.202688,541587,1499567034,9772501,,0.542398301753,-0.0105785084165,0.0700933677278,0.739715652918,0.619258410102,-0.263301665645,-0.0034651427555,-0.167600051379,-0.129117880508,-0.0979566648971,-0.0608399617292,0.319800642754,-0.0507611677489,1.23377394676,0.0418054871261,0.0458539836109,0.127846449614,0.352581232786,-0.302379071712
2017/07/09/10:23:51.212417,541588,1499567034,19776619,,0.540179929254,-0.0119677026702,0.0694142485999,0.739082260073,0.618985451154,-0.265699340624,-0.0042760374761,-0.176710107982,-0.130311158667,-0.100989658741,-0.0757515906486,0.345886518089,-0.0327201591309,1.3395357132,-0.00609461963177,0.26862809062,0.201264351606,0.354679346085,-0.347121596336
2017/07/09/10:23:51.222467,541589,1499567034,29773840,,0.539051108794,-0.0129963642099,0.0682594609534,0.738882796578,0.618894693494,-0.26645245259,-0.00496606438357,-0.175610110134,-0.120384762256,-0.10925025828,-0.0589781429948,0.343868449153,-0.0335567103017,1.52928781509,-0.0049739331007,0.348014593124,0.180241912603,0.427673518658,-0.37152042985
2017/07/09/10:23:51.232407,541590,1499567034,39773324,,0.538170397645,-0.0139541783241,0.067618869813,0.738794510507,0.618644754436,-0.267275495357,-0.00501484149801,-0.156660378856,-0.109744682455,-0.10188874688,-0.0500787192551,0.295752200374,-0.0245655444746,1.85323405266,0.00326507538557,0.358081877232,0.214258611202,0.558999955654,-0.390785813332
2017/07/09/10:23:51.242041,541591,1499567034,49770351,,0.536154470975,-0.0149918590978,0.0660969500985,0.738585293533,0.618379757917,-0.268431401321,-0.00654384901336,-0.157529007168,-0.107957867566,-0.0975880330314,-0.0469459114988,0.284086837228,-0.0351232266286,2.29684281349,0.135337293148,-0.48118275404,-0.0200698822737,0.840853154659,-0.437223762274
2017/07/09/10:23:51.252333,541592,1499567034,59772909,,0.534903584743,-0.0161607412844,0.0654806529089,0.738552026308,0.61804132071,-0.269288297838,-0.00704577734693,-0.158447084138,-0.100925817773,-0.111466644058,0.00903788332139,0.287645075716,-0.045588915893,1.6292848587,-0.0690240487456,-0.577749550343,-0.024185648188,0.701728463173,-0.353152751923
2017/07/09/10:23:51.262321,541593,1499567034,69780850,,0.53313723911,-0.0166556711139,0.0639382037932,0.738003781013,0.618172307556,-0.270451420617,-0.00833345476418,-0.180899687502,-0.0996393602119,-0.122988513869,0.00993266267922,0.328250228337,-0.0595292837798,2.09285378456,0.23147213459,-0.0568473413587,-0.0947940200567,0.671928584576,-0.350968897343
2017/07/09/10:23:51.272246,541594,1499567034,79775305,,0.530526644172,-0.017966960761,0.0626073370886,0.737910605076,0.617684190411,-0.271759329357,-0.0100522007501,-0.164009551527,-0.0757923037026,-0.137351070364,0.0426179133809,0.273387091167,-0.0789684172523,1.30968356133,-0.393475443125,0.168110653758,0.128656297922,0.423053354025,-0.319763630629
2017/07/09/10:23:51.282197,541595,1499567034,89768121,,0.53058687405,-0.0184167486584,0.0613204182446,0.738132245295,0.617605860127,-0.271336283706,-0.0100205357932,-0.155299692344,-0.0782076204588,-0.131794115748,0.0555962660392,0.233551802958,-0.0879419018003,1.55034303665,-0.00262279808521,0.708485841751,0.0835527181625,0.310195833445,-0.239365726709
2017/07/09/10:23:51.293357,541596,1499567034,99767417,,0.52950880516,-0.0188779530474,0.0596665975677,0.737942432693,0.617800913767,-0.271369637488,-0.0110234672106,-0.130799926318,-0.0814066183752,-0.144782641626,0.0871836011755,0.161654591878,-0.0907163576826,2.24964475632,0.0129878520966,0.296041607857,0.0318009927869,0.612366437912,-0.375705659389
2017/07/09/10:23:51.302284,541597,1499567034,109769745,,0.527542992885,-0.0188731746349,0.0580791103599,0.738085614039,0.617438810754,-0.271733688532,-0.0126389809867,-0.105393416462,-0.0607376655054,-0.159595483684,0.126913882898,0.104916116411,-0.0716825531883,1.86358141899,0.0364249423146,0.120466299355,0.0899102017283,0.595731139183,-0.375093430281
2017/07/09/10:23:51.312330,541598,1499567034,119776107,,0.527602961221,-0.020055219936,0.057182741932,0.738382259981,0.617209181146,-0.271464757677,-0.0123024466843,-0.128467027498,-0.025405145476,-0.170655753527,0.163635229259,0.123816209729,-0.115616652807,2.13231515884,-0.212968945503,0.08094856143,0.173801213503,0.642109274864,-0.372688055038
2017/07/09/10:23:51.322629,541599,1499567034,129772609,,0.526099892265,-0.0196626663602,0.0547416049125,0.738218617124,0.617628327667,-0.270874233694,-0.0139882706312,-0.111597032601,-0.0249643234605,-0.169458460299,0.148862499617,0.0952862402331,-0.0887367265615,1.85921573639,-0.163976073265,-0.41677325964,0.125059485435,0.6911059618,-0.356812685728
2017/07/09/10:23:51.332215,541600,1499567034,139774016,,0.525273831574,-0.0196586797689,0.0530096491701,0.738670523881,0.617230728521,-0.270481236238,-0.0152310788177,-0.0825173573652,-0.0327974534814,-0.174520251108,0.168730491122,0.0384313247746,-0.0678040427362,1.82633054256,-0.113587200642,-0.822504639626,0.0739596858621,0.717877328396,-0.368919968605
2017/07/09/10:23:51.342758,541601,1499567034,149785010,,0.524583779939,-0.0199416599351,0.0515157720011,0.738701234597,0.617374167188,-0.270040402833,-0.0157418083702,-0.084179549284,-0.0484144921192,-0.171844027928,0.138930606854,0.0188780284362,-0.105910138421,1.45580506325,0.759619355202,-0.674019992352,-0.0981210172176,0.577059090137,-0.237292096019
2017/07/09/10:23:51.352159,541602,1499567034,159768612,,0.523118404415,-0.0212992867589,0.0497500350805,0.739400633752,0.616526177667,-0.270019922985,-0.016474715425,-0.109515037742,-0.0367635276452,-0.188490652616,0.183360838587,0.0532300319364,-0.100978352934,1.73494613171,-0.190237998962,-0.384380608797,0.00193881243467,0.558092355728,-0.312091082335
2017/07/09/10:23:51.362127,541603,1499567034,169768644,,0.522364293296,-0.022134747754,0.0481384959473,0.739721315547,0.616309090078,-0.269603137926,-0.017018485016,-0.0690068120323,-0.0236917078971,-0.183865561821,0.206834057112,-0.0275999205998,-0.0662493237143,1.22051024437,-0.138398393989,-0.582178473473,-0.195179343224,0.455795258284,-0.220645785332
2017/07/09/10:23:51.372432,541604,1499567034,179776622,,0.522449202469,-0.020714736256,0.0459054443786,0.740170867355,0.616662770877,-0.267476818323,-0.0181732163667,-0.0754717044649,-0.0173093460979,-0.193826894142,0.235152662774,-0.037415799197,-0.104208272537,1.74722492695,0.394878208637,-1.08217036724,-0.415786981583,0.505701541901,-0.130528569221
2017/07/09/10:23:51.382436,541605,1499567034,189769311,,0.521362656043,-0.0200891308592,0.043970232023,0.740049209306,0.617233131128,-0.266397460398,-0.0195658564311,-0.0611062532471,0.0152267240138,-0.204826481914,0.280081164984,-0.0929686981379,-0.143195341507,1.88765454292,0.519802331924,-1.28797256947,-0.433815270662,0.55105394125,-0.0824992135167
2017/07/09/10:23:51.392348,541606,1499567034,199767606,,0.521429059608,-0.0207241215611,0.0420519179017,0.74071398133,0.616982339335,-0.265132023856,-0.0195089911544,-0.0470632806572,0.0133994640584,-0.206032466517,0.276903069428,-0.137799140565,-0.101142436933,1.89310741425,-0.0402833074331,-0.827456474304,-0.22542899847,0.407220721245,-0.0866705626249
2017/07/09/10:23:51.402098,541607,1499567034,209772985,,0.521103932475,-0.0207556351494,0.0398980611417,0.741457305657,0.616662349778,-0.26376812977,-0.0198742036757,-0.0413260425909,-0.0037984667794,-0.213775759636,0.248464918465,-0.156870466456,-0.0778837632814,1.77383553982,-0.383294075727,-1.34203588963,-0.238969683647,0.475401878357,-0.119883298874
2017/07/09/10:23:51.412438,541608,1499567034,219775761,,0.520411300499,-0.0214918586356,0.0378108151569,0.741551502844,0.616949403989,-0.262795121914,-0.0203353250608,-0.034658447158,-0.006524423956,-0.213382489102,0.234109681543,-0.163399946558,-0.0521291686777,1.51379621029,-1.25008356571,-0.969153761864,-0.0363036878407,0.339072018862,-0.17112326622
2017/07/09/10:23:51.422291,541609,1499567034,229769067,,0.520299981353,-0.0212689818633,0.035850194757,0.741157819486,0.617861024507,-0.261759330844,-0.020368940225,-0.0311453391753,-0.018900801902,-0.216225307556,0.224342358151,-0.162072884306,-0.0123976816317,1.47560739517,-0.752903103828,-1.16161847115,-0.0396557301283,0.337721467018,-0.135540738702
2017/07/09/10:23:51.432526,541610,1499567034,239772259,,0.520212630726,-0.0213755294641,0.0338985443392,0.741507312858,0.618041883275,-0.260351711077,-0.0202020304636,-0.039971409395,-0.019692031515,-0.214521262822,0.217693679683,-0.160234458338,0.029245420638,1.35495972633,-0.743775963783,-1.22670269012,-0.0838242247701,0.245486333966,-0.106019251049
2017/07/09/10:23:51.442546,541611,1499567034,249769491,,0.519701921736,-0.0219465689833,0.0315993990032,0.741840351266,0.618159296662,-0.259084558056,-0.0206680662256,-0.00876928205361,-0.0247102206712,-0.200921717193,0.171025650791,-0.239874845417,0.0103228952623,1.10342824459,-0.820866048336,-0.831725180149,0.0391753688455,0.151993453503,-0.0694345831871
2017/07/09/10:23:51.452413,541612,1499567034,259776013,,0.520305367109,-0.022300079397,0.029682939303,0.74228325707,0.618416975261,-0.257256456146,-0.0198777954927,-0.0122316807113,-0.0480024393753,-0.215619687288,0.149870410361,-0.246893721512,0.0272990797929,1.04174888134,-0.664768218994,-0.113433808088,0.138156950474,0.0694499015808,-0.084568798542
2017/07/09/10:23:51.462419,541613,1499567034,269769599,,0.519703840787,-0.0237038809144,0.0280103041414,0.742300008727,0.618636187253,-0.256712865888,-0.0194542888184,0.00293055137755,-0.0626264058952,-0.203284926995,0.109910279773,-0.261955259811,0.0772669647547,0.294592767954,-0.541444778442,-0.00942135602236,0.102490767837,-0.147554531693,-0.0437072664499
2017/07/09/10:23:51.472397,541614,1499567034,279772997,,0.520256029131,-0.0237289526709,0.0259792690558,0.742144205272,0.619490015805,-0.255163089011,-0.0185983038336,-0.00679683487344,-0.0645998703066,-0.203139629221,0.118177094313,-0.24444014509,0.108130251379,0.21365813911,0.284080713987,0.343058824539,0.108520492911,-0.26991724968,-0.00289503950626
2017/07/09/10:23:51.482320,541615,1499567034,289766681,,0.519543468357,-0.0240133807954,0.0236552480681,0.741584827161,0.62054322282,-0.25422452008,-0.0186533140798,-0.00389064774628,-0.0579072889916,-0.21240120888,0.126606837628,-0.275090025228,0.0701092301438,-0.286595135927,0.432931959629,-0.161511152983,0.072972625494,-0.278333812952,0.0619734451175
2017/07/09/10:23:51.492475,541616,1499567034,299773493,,0.520637542476,-0.024098306816,0.0216169402539,0.742348166881,0.62073750993,-0.25155754079,-0.0179707141142,-0.000116709598637,-0.0513247770891,-0.219090640459,0.163151554718,-0.297447339665,0.0916517679908,0.212547451258,0.637889623642,0.305068492889,0.177306652069,-0.24492020905,0.0961498618126
2017/07/09/10:23:51.502378,541617,1499567034,309774887,,0.520468042279,-0.026285103814,0.0196297539784,0.743149773924,0.620439395365,-0.249984214932,-0.0170664138359,0.0227670612441,-0.068175197412,-0.220213763459,0.151011461427,-0.369936551556,0.0422494206218,-0.405553638935,-0.720750331879,0.690656125546,0.42879614234,-0.427151709795,0.020248003304
2017/07/09/10:23:51.512450,541618,1499567034,319771479,,0.52063767525,-0.025866917871,0.0173140134804,0.743161405985,0.621071887821,-0.248395798133,-0.0167440222897,0.0323255370809,-0.0669738537319,-0.213968515555,0.153781923374,-0.395220725307,0.0220003083173,-0.106073997915,0.520187020302,-0.0408983007073,0.163310065866,-0.313342690468,0.0604213960469
2017/07/09/10:23:51.522444,541619,1499567034,329768279,,0.521321206753,-0.025700127942,0.0152401740776,0.743708353122,0.621439599391,-0.245844701634,-0.0164648863948,0.0435844443155,-0.0473783696237,-0.215158880345,0.160858854162,-0.404326143046,0.0394112090929,-0.0283011309803,0.656438708305,0.0558915659785,0.0471399016678,-0.445280641317,0.120948716998
2017/07/09/10:23:51.532369,541620,1499567034,339768630,,0.522250500999,-0.0267471362825,0.0134934339665,0.743821483849,0.622072192117,-0.243990303928,-0.0149839764056,0.0379616886202,-0.0399092758677,-0.212957863149,0.176277073494,-0.409184320341,0.00503156308653,0.0794293880463,0.565832674503,-0.0668434351683,-0.0430456250906,-0.52220505476,0.129029110074
2017/07/09/10:23:51.542390,541621,1499567034,349768541,,0.52216246895,-0.0273895626828,0.0114941616633,0.744294029477,0.62207855784,-0.242552022788,-0.0146007466065,0.0266817499308,-0.0629168738318,-0.200605420779,0.160153704851,-0.3994830496,-0.0265511961014,0.244869336486,0.624386191368,-0.658964395523,-0.0918201059103,-0.381369829178,0.0848603397608
2017/07/09/10:23:51.552204,541622,1499567034,359769271,,0.522759469564,-0.026639320384,0.00947211132895,0.744599542154,0.622694388029,-0.240028863976,-0.0144694643877,0.0222619282322,-0.0341719858762,-0.208710211257,0.188380814119,-0.377076590558,0.0258686405327,0.764066696167,0.238680675626,-0.301528275013,0.0267989523709,-0.27969583869,0.0163858830929
2017/07/09/10:23:51.562560,541623,1499567034,369770469,,0.521795142894,-0.0287754484763,0.00774676550483,0.745489772071,0.622090445496,-0.238839306435,-0.0142920628621,0.0111050792156,-0.0435823473054,-0.209060742532,0.203893886633,-0.362770394287,-0.009818764651,0.679530322552,-0.770473837852,-0.381753176451,0.255864083767,-0.104458063841,-0.102188371122
2017/07/09/10:23:51.572542,541624,1499567034,379776720,,0.522110788701,-0.028392902866,0.00567760586923,0.745577986561,0.622661802949,-0.237080685771,-0.0140887734442,-0.00908544956485,-0.0672273855467,-0.188141995577,0.16899461861,-0.332214454854,-0.0502459166949,0.601571679115,-0.025727076456,-0.144744902849,0.164124876261,-0.238516107202,-0.0515394508839
2017/07/09/10:23:51.582119,541625,1499567034,389768667,,0.52157297442,-0.029212795139,0.00415328286631,0.746311924539,0.622237003708,-0.235903931189,-0.0137461906418,-0.0172970937078,-0.0342303855249,-0.184903205799,0.176526965216,-0.294150267143,-0.00930469914186,-0.280998468399,-0.122814849019,0.200935468078,0.172757521272,-0.580125749111,0.0876815915108
2017/07/09/10:23:51.592467,541626,1499567034,399776271,,0.52212250107,-0.0291683889491,0.00255813473747,0.746459337224,0.622820786173,-0.233910363341,-0.0133666788678,-0.00298425468372,-0.0355135714577,-0.172350256102,0.17412910469,-0.303997394936,0.0146766895338,-0.805194139481,0.288293808699,0.409846365452,0.0727929472923,-0.836407780647,0.184490054846
2017/07/09/10:23:51.602642,541627,1499567034,409772833,,0.52140947139,-0.0295300664831,0.000978555888644,0.746204168832,0.623564524929,-0.232749217499,-0.0132069459702,-0.0107827725609,-0.0596633865853,-0.163749417363,0.147249270397,-0.299456865616,-0.0135673761391,-1.38853061199,0.557114064693,0.176737308502,0.0732252895832,-0.866136372089,0.202306091785
2017/07/09/10:23:51.612520,541628,1499567034,419773742,,0.521224375659,-0.0303218089076,-0.000607074064487,0.746733308167,0.623317366477,-0.231721984614,-0.0130287746156,-0.0304227289265,-0.0573356016818,-0.165024796928,0.14507963211,-0.264252465528,-0.0181248847176,-0.733670175076,0.16646823287,0.0871276631951,0.190725117922,-0.730923175812,0.0937838554382
2017/07/09/10:23:51.622521,541629,1499567034,429790677,,0.520612941825,-0.0309856159098,-0.00225449384624,0.747151827755,0.623364695326,-0.230243419648,-0.0129834745621,-0.0313353110654,-0.0490233651848,-0.160244142109,0.139684718674,-0.257378454696,-0.0316411927282,-0.623772978783,-0.199067696929,0.0763050764799,0.247831836343,-0.559650480747,0.0123469671234
2017/07/09/10:23:51.632495,541630,1499567034,439778896,,0.520568695954,-0.0311830444351,-0.00372686137775,0.747680834716,0.623244321047,-0.228866378952,-0.0126517298153,-0.0362043119622,-0.0470267578676,-0.155935430959,0.163538277682,-0.245951408834,-0.0509715419951,-0.30376842618,0.280502140522,0.171345666051,0.282588481903,-0.612833619118,0.0650788247585
2017/07/09/10:23:51.642301,541631,1499567034,449771339,,0.520387337495,-0.0315771491532,-0.00505504024235,0.748093909813,0.623275073513,-0.227434952026,-0.0125310587919,-0.0311415068286,-0.0553699669529,-0.147401050225,0.123739069751,-0.244655836799,-0.0426102556439,-1.20807099342,0.485417336226,0.11563436687,0.153833851218,-0.952172100544,0.182046234608
2017/07/09/10:23:51.652308,541632,1499567034,459767076,,0.519878883216,-0.0330785533317,-0.0059884799834,0.74845717742,0.623067025082,-0.226844660739,-0.0118674225949,-0.0430957860955,-0.0516351476825,-0.140957736843,0.144906310363,-0.224681638786,-0.0708512316281,-1.34200227261,-0.242820471525,0.511702656746,0.275905191898,-1.07223463058,0.175939425826
2017/07/09/10:23:51.662148,541633,1499567034,469768373,,0.519053657071,-0.0326516364304,-0.00769033062254,0.748663528683,0.623386475602,-0.225232563086,-0.0127481520865,-0.0473950406161,-0.041173346985,-0.142806951031,0.175256648243,-0.20526603687,-0.0504852445784,-1.98880946636,0.288946330547,0.713298916817,0.1942230165,-1.17874884605,0.224422499537
2017/07/09/10:23:51.672346,541634,1499567034,479775286,,0.518470008919,-0.0332377224205,-0.00888330173353,0.749487543849,0.622761606017,-0.224221333869,-0.012696342965,-0.0529099328355,-0.0366525354592,-0.146070597802,0.158265807568,-0.187004236127,-0.0351061206576,-1.41334486008,0.0317251011729,0.981227397919,0.233819425106,-1.06774652004,0.176603406668
2017/07/09/10:23:51.682618,541635,1499567034,489768972,,0.518831156614,-0.0331027692834,-0.0100639171622,0.749192861658,0.623624514231,-0.22282056649,-0.0123901751068,-0.0338299381786,-0.0246601150328,-0.144148585393,0.152117325688,-0.220637572767,-0.041383245636,-1.12847065926,0.202824383974,1.06303656101,0.114152267575,-0.924078464508,0.111209735274
2017/07/09/10:23:51.692450,541636,1499567034,499791024,,0.518046664441,-0.0340610595763,-0.0114626553029,0.750070563092,0.62296718379,-0.221699306163,-0.0124681975659,-0.049254108919,-0.0315932051235,-0.137483613411,0.147678671128,-0.178423448149,-0.0158707680135,-1.4652774334,0.111527040601,0.935611784458,0.158563390374,-0.969199955463,0.125311732292
2017/07/09/10:23:51.702452,541637,1499567034,509772242,,0.517455590476,-0.0336759621148,-0.0128815928264,0.750247324667,0.623156200193,-0.22053615595,-0.0130040727829,-0.0574153048914,-0.0337698176703,-0.135999504167,0.158585216682,-0.167186799785,-0.0492309252192,-1.95999252796,0.537690639496,0.60840857029,0.0176219791174,-1.14290416241,0.175623863935
2017/07/09/10:23:51.712452,541638,1499567034,519775618,,0.516811563668,-0.0339012756803,-0.0140105103533,0.74992024048,0.623688509326,-0.220151952822,-0.0128605568654,-0.0518488172407,-0.0369500744656,-0.130095227465,0.12848562029,-0.142813229254,-0.00336500238123,-3.15128207207,0.287910014391,1.42780172825,0.473441004753,-1.69336879253,0.213729545474
2017/07/09/10:23:51.722032,541639,1499567034,529770081,,0.516174693799,-0.0343892175569,-0.0152190019368,0.750409327554,0.623480077443,-0.219070751445,-0.0129011632463,-0.0740547941983,-0.0239174853236,-0.133078747311,0.138083879502,-0.0962017087946,0.0303192351742,-2.09139156342,-0.0335028618574,1.20047461987,0.398476272821,-1.41444551945,0.127939790487
2017/07/09/10:23:51.732582,541640,1499567034,539775636,,0.516204795135,-0.0351120363341,-0.0160484898715,0.75062007499,0.623524198583,-0.218248811208,-0.0124311387297,-0.083520507018,-0.0318374294218,-0.131073226,0.1305641275,-0.0789128554094,-0.0295090904471,-0.697124779224,-0.0403644815087,0.317101418972,0.277390867472,-0.890586078167,0.00854655355215
2017/07/09/10:23:51.742339,541641,1499567034,549772762,,0.515068797237,-0.0349749030264,-0.0174111437081,0.750360996346,0.623968620518,-0.217838131694,-0.0129647271739,-0.0535112555249,-0.0221203401424,-0.124453293895,0.112052092445,-0.120754337307,0.0125342723249,-0.656262040138,0.0481326431036,0.16882096231,0.237642467022,-0.76687759161,0.00299769639969
2017/07/09/10:23:51.752400,541642,1499567034,559775298,,0.51351461659,-0.0353671883379,-0.0191037668212,0.750677865467,0.623636382674,-0.217639601782,-0.0139071290702,-0.0631098008823,-0.0297585975897,-0.120531387734,0.0984385387213,-0.090296691245,0.0257822393415,-2.02362012863,-0.160705417395,0.632603168488,0.327959537506,-1.28208434582,0.139395520091
2017/07/09/10:23:51.762471,541643,1499567034,569768689,,0.513435463129,-0.035141770452,-0.0199576783048,0.75016686288,0.624484630738,-0.216990293265,-0.0135586296156,-0.0790667941464,-0.0261345775299,-0.124284182272,0.113713964295,-0.0738580489825,-0.0169597853382,-1.42651689053,0.386618763208,0.969455122948,0.154878377914,-1.16529297829,0.155456319451
2017/07/09/10:23:51.772458,541644,1499567034,579775785,,0.512917258577,-0.0349798867885,-0.0213174395495,0.749691477652,0.625274474768,-0.216338197216,-0.0138673705026,-0.0717589310996,-0.0240561099601,-0.11537391943,0.0900381429905,-0.0638723045252,0.00846789265424,-1.0817489624,0.909888029099,-0.0793890953064,-0.146520793438,-0.849082827568,0.143663883209
2017/07/09/10:23:51.782650,541645,1499567034,589767924,,0.512547243679,-0.0354741037201,-0.0224675797236,0.750265954905,0.624852858454,-0.215564325218,-0.0138536596257,-0.0701462628478,-0.0243341443014,-0.111393010897,0.0758434054241,-0.0300893535169,0.0923061124264,-1.93165326118,0.262631475925,0.64917242527,0.132823571563,-1.2561852932,0.178329527378
2017/07/09/10:23:51.792318,541646,1499567034,599795833,,0.510958505766,-0.035517286025,-0.0232274967313,0.749030992036,0.626067545256,-0.216306337773,-0.0142677954168,-0.0703835916692,-0.0426026165407,-0.102890351818,0.0447482953804,-0.0156384823913,0.116464573365,-2.37403130531,0.531163871288,0.587809801102,0.236993432045,-1.24506914616,0.171684339643
2017/07/09/10:23:51.802547,541647,1499567034,609767698,,0.51090958704,-0.0368346467003,-0.0238083448492,0.749507882265,0.625480783781,-0.216399208784,-0.013531665858,-0.0779137205831,-0.0296909065208,-0.10749815769,0.0460179064917,0.0153212472036,0.11350264061,-1.66307616234,0.234167262912,0.873011469841,0.238181352615,-1.20124268532,0.103636026382
2017/07/09/10:23:51.812304,541648,1499567034,619775344,,0.509461660435,-0.0368972691083,-0.0250660850813,0.748739930459,0.626363682622,-0.216448656479,-0.0143886321961,-0.0742419980126,-0.0389966047648,-0.093635762276,0.0250056983604,0.0112289019691,0.0960497648741,-1.26577198505,-0.255905270576,0.200424253941,0.348488032818,-0.904568195343,0.0174316521734
2017/07/09/10:23:51.822253,541649,1499567034,629770232,,0.510352336529,-0.0373226986074,-0.0254931180827,0.748430506947,0.626966368143,-0.215840708427,-0.0133318443865,-0.0717385672278,-0.0459720200442,-0.0853672770539,0.00386779976156,0.0241482562822,0.111213248507,-1.10170435905,0.222503393888,0.632371485233,0.312740623951,-1.03336131573,0.104442939162
2017/07/09/10:23:51.832082,541650,1499567034,639772855,,0.50889952894,-0.0377470334387,-0.0263495667272,0.747669683617,0.627585258125,-0.216662608483,-0.0135684217725,-0.0649066712718,-0.0194193898293,-0.0899659746053,0.0330890637474,0.0336765190093,0.163839497944,-1.58658623695,0.308898150921,0.510445833206,0.173582553864,-1.08070635796,0.140487581491
2017/07/09/10:23:51.842645,541651,1499567034,649770985,,0.507854890839,-0.0373193885785,-0.0272950143121,0.747059585945,0.628264313189,-0.216758950534,-0.0141945477063,-0.063031105475,-0.0376469756474,-0.080143774778,-0.00626552315733,0.0323068978309,0.163275902636,-1.92779481411,0.149721622467,0.611021757126,0.306682676077,-1.1593016386,0.140647366643
2017/07/09/10:23:51.852217,541652,1499567034,659769652,,0.507531694656,-0.0388274201935,-0.0277594882589,0.746879885227,0.628389805624,-0.217074627271,-0.0132399179413,-0.064205697412,-0.0329834034689,-0.0795424734715,-0.0125003277138,0.0335286550674,0.116049913481,-1.10927867889,-0.404507994652,0.457192927599,0.372670590878,-0.83211350441,0.00832989439368
2017/07/09/10:23:51.862295,541653,1499567034,669780770,,0.506605842102,-0.0385867885229,-0.0286782362663,0.746440446046,0.62873556895,-0.217562437352,-0.0135952453786,-0.0523413445563,-0.0312149249613,-0.0716182091873,-0.0287399170858,0.0417810195747,0.187123744361,-1.08071374893,-0.707336902618,0.0885181352496,0.38006311655,-0.721161544323,-0.0459678918123
2017/07/09/10:23:51.872478,541654,1499567034,679776919,,0.505977551886,-0.0389356965469,-0.0293976633235,0.745823657301,0.629420736866,-0.217689328795,-0.0137100088543,-0.0759293165082,-0.03294336252,-0.0798898894663,-0.0225193816329,0.0817867389312,0.176931301286,-0.282201588154,-0.292798012495,-0.0990009307861,0.219727277756,-0.494705885649,-0.0623453482985
2017/07/09/10:23:51.882623,541655,1499567034,689775401,,0.505168409738,-0.0388540947265,-0.0298246297415,0.744779866625,0.630389593546,-0.218454899862,-0.0137610808373,-0.0632055563046,-0.0437049168504,-0.063474602853,-0.0432447505179,0.0721368559311,0.193516998549,-0.729241371155,-0.4352684021,0.166293546557,0.293710947037,-0.630396902561,-0.0407862327993
2017/07/09/10:23:51.892366,541656,1499567034,699791565,,0.50456782805,-0.039626190134,-0.0304152218513,0.743939061801,0.631129601301,-0.21919042719,-0.0136255391541,-0.067580028946,-0.0486765915525,-0.0535893414758,-0.0472727960864,0.0959902079676,0.221366656633,-0.822190523148,-0.121300771832,0.247692987323,0.144556254148,-0.827914178371,0.0412401519716
2017/07/09/10:23:51.902215,541657,1499567034,709776392,,0.504580757257,-0.0393110136746,-0.0311234740637,0.743242516068,0.632002681646,-0.219074140865,-0.0130266459779,-0.0543687067946,-0.0125227514369,-0.0583938081186,-0.0413295104405,0.117707012361,0.271315168635,-1.02702724934,-0.0240776464343,0.499558240175,0.212936088443,-0.954166650772,0.0976378172636
2017/07/09/10:23:51.912368,541658,1499567034,719775663,,0.503662122214,-0.0406766375528,-0.0311864163783,0.742921269959,0.632065397889,-0.219999419768,-0.0127112051575,-0.0374335447567,-0.0399145492051,-0.0459140872685,-0.0741616687209,0.0453935861971,0.242205872236,-1.37805771828,-0.566846430302,0.69245749712,0.372760593891,-1.04754853249,0.0602946020663
2017/07/09/10:23:51.922650,541659,1499567034,729769833,,0.504155035464,-0.0407544182166,-0.0317142984096,0.741942036505,0.633246296978,-0.219952695038,-0.011914435649,-0.0411952899293,-0.0590089894712,-0.0443992995325,-0.0870914564493,0.0365917603734,0.191569157003,-0.387084007263,0.0460500009358,0.285640448332,0.268455564976,-0.68128156662,-0.0126454122365
2017/07/09/10:23:51.932398,541660,1499567034,739772448,,0.5039177475,-0.0419145029474,-0.0316805913252,0.741298951429,0.633796313075,-0.220565376297,-0.0113583855591,-0.0631472216965,-0.0281405394181,-0.0488005018967,-0.0496549498865,0.108812477117,0.234796592947,-0.219207927585,-0.736457526684,0.12846724689,0.333080559969,-0.518543243408,-0.0531450472772
2017/07/09/10:23:51.942396,541661,1499567034,749770456,,0.502705495415,-0.0408380187058,-0.0323666626016,0.740587431202,0.634448013657,-0.221036185477,-0.0122057127087,-0.0516536944042,-0.0365284188011,-0.0363130804051,-0.0706317625081,0.0934901717969,0.237309707805,-0.33373516798,0.113163068891,0.0281005911529,0.217665195465,-0.562493979931,0.0135939046741
2017/07/09/10:23:51.952332,541662,1499567034,759778673,,0.502329263901,-0.0412949037474,-0.0329568473705,0.739045159384,0.635992681102,-0.221770287523,-0.0119792131735,-0.0484739575372,-0.028128917969,-0.0327764359748,-0.0713353100439,0.0871449021035,0.210563700106,-0.683481454849,-0.156934440136,0.170721650124,0.282226592302,-0.727926969528,0.0825286209583
2017/07/09/10:23:51.962576,541663,1499567034,769768095,,0.502621744386,-0.0419214878309,-0.0327889673657,0.738820998708,0.636201553324,-0.221964487195,-0.0110852081833,-0.042331550988,-0.0263057231676,-0.0278399607492,-0.0646350452654,0.0849649766698,0.215476932756,-0.496885448694,-0.305739492178,0.0839518904686,0.301196247339,-0.66129809618,0.045606803149
2017/07/09/10:23:51.972639,541664,1499567034,779791996,,0.501564644897,-0.0418397422331,-0.0331816081594,0.738038425656,0.636827727147,-0.222746984019,-0.0115546225466,-0.0480776346701,-0.00772494451452,-0.0257822904326,-0.0430290262548,0.104639406847,0.218101455503,-1.30236256123,-0.633787930012,0.374406963587,0.406302690506,-0.863844513893,0.0688212886453
2017/07/09/10:23:51.982346,541665,1499567034,789787584,,0.501282543012,-0.0416367761831,-0.0333963522033,0.737489075879,0.637352334492,-0.223074891395,-0.0113779394117,-0.0628476582212,-0.0229105540199,-0.0247093746751,-0.0577157473486,0.111869504036,0.163408201508,-0.758370041847,-0.315763562918,0.509310603142,0.509649991989,-0.761926949024,0.0673796087503
2017/07/09/10:23:51.992404,541666,1499567034,799775497,,0.499527470946,-0.0420649590838,-0.0335514240092,0.737144576689,0.637347760721,-0.224184609092,-0.0121229537585,-0.053965076412,-0.0266071383735,-0.0242582836143,-0.0615238818822,0.0889851833449,0.127618901567,-1.01934826374,-0.459394872189,0.214785471559,0.425687342882,-0.726046919823,0.0391025915742
2017/07/09/10:23:52.002450,541667,1499567034,809769847,,0.500258673274,-0.0418437164079,-0.0337271872495,0.736066946567,0.638651517733,-0.224042586887,-0.0116020829861,-0.0616067034221,-0.019857338565,-0.0172123803002,-0.0523824274496,0.115564561041,0.140409791422,-0.876623690128,-0.0556079745293,0.241612583399,0.383141458035,-0.818204760551,0.102605454624
2017/07/09/10:23:52.012290,541668,1499567034,819771771,,0.499762655552,-0.0424892721511,-0.0338512408649,0.736051713494,0.638564494467,-0.224346871389,-0.0114779251404,-0.0617350424991,-0.000211273624817,-0.0136743263731,-0.0195230003352,0.116238680057,0.103402904352,-0.783204495907,-0.789909303188,0.656541466713,0.549001932144,-0.899071335793,0.0612776167691
2017/07/09/10:23:52.022285,541669,1499567034,829789535,,0.498385236307,-0.0427160211631,-0.0340038300095,0.735483367887,0.638762512641,-0.225612926186,-0.0120613242954,-0.0222308680542,-0.00826578731933,-0.00627670768572,-0.0277989524955,0.055582785041,0.156533577552,-1.6078337431,-0.935529232025,0.662322700024,0.763856589794,-1.1105120182,0.098064340651
2017/07/09/10:23:52.032369,541670,1499567034,839773521,,0.498686514497,-0.0420422379399,-0.034167109291,0.735178875182,0.639296102877,-0.22510163853,-0.0119065807054,-0.0392032059421,-0.00376629588839,-0.0110556192072,-0.0230639196192,0.0766011362228,0.0962594641026,-1.02084600925,-0.869112193584,0.583952128887,0.697833120823,-0.914481401443,0.0251377262175
2017/07/09/10:23:52.042351,541671,1499567034,849770815,,0.498669644886,-0.0426584353353,-0.0340534057067,0.735539830287,0.63880150031,-0.225346275223,-0.0115263830121,-0.0348313128584,0.000706192135353,-0.011859380642,-0.0100286946363,0.0600553353963,0.0960842295174,-0.59907656908,-1.03773343563,0.708551824093,0.713323056698,-0.770655095577,-0.0196220129728
2017/07/09/10:23:52.052403,541672,1499567034,859776119,,0.498085479506,-0.0419836348499,-0.0342732831326,0.734932455029,0.639453665768,-0.225435226961,-0.0123391379603,-0.0377858579656,0.0152758511626,-0.0157520093628,0.0119542070257,0.0669976846007,0.0722347335316,-0.793979048729,-0.824034452438,0.712805509567,0.734939575195,-0.72492313385,0.00569354183972
2017/07/09/10:23:52.062522,541673,1499567034,869771850,,0.497493432426,-0.0418341160324,-0.0342187917762,0.735239151775,0.639096257658,-0.225436570682,-0.0125584929041,-0.0460320089825,0.0283176656067,-0.0269999320272,0.0420906656053,0.0532987824048,0.000335171407166,-0.760022342205,-0.935769796371,1.24445569515,0.703170597553,-0.706735014915,-0.0296454243362
2017/07/09/10:23:52.072520,541674,1499567034,879772309,,0.497293383045,-0.0412914107465,-0.0347532939953,0.735091516106,0.639223862002,-0.225549912233,-0.0126710018869,-0.0313548884948,0.0303039957843,-0.00523392003464,0.0322435560328,0.0347994152724,0.0276269206603,-1.2902687788,-0.83062171936,0.897807359695,0.759851098061,-0.862840950489,0.0337934270501
2017/07/09/10:23:52.082201,541675,1499567034,889771222,,0.496844029199,-0.0409656597423,-0.0348954264247,0.734693106661,0.63964602248,-0.225610917088,-0.0133685841235,-0.0500368185619,-0.00271271027283,-0.00572769498527,0.00412271760989,0.0727870254134,-0.0124336797241,-1.01977598667,-0.216805294156,0.46375092864,0.455610722303,-0.757007062435,0.0150298913941
2017/07/09/10:23:52.092546,541676,1499567034,899795613,,0.496855464014,-0.0408169885354,-0.0346458031216,0.734728700895,0.639639346608,-0.225513055154,-0.0133829856962,-0.0348512470756,0.000445909965777,-0.00140904383665,0.000645415736749,0.0718943340874,0.0333564752492,-0.576256990433,-0.334201753139,0.663296043873,0.507092416286,-0.720654606819,0.0306860078126
2017/07/09/10:23:52.102428,541677,1499567034,909767461,,0.496352586384,-0.041292929917,-0.0348162885872,0.734379284618,0.639756578747,-0.226314517549,-0.0134285300653,-0.0289008562864,0.00253234959264,-0.00189117266151,0.00967655891591,0.0461837076821,-0.00955639641245,-1.1710793972,-0.606694757938,0.456606000662,0.561954677105,-0.834742486477,0.0386794582009
2017/07/09/10:23:52.112443,541678,1499567034,919775046,,0.495810920216,-0.0412548577853,-0.0349332398739,0.734426062235,0.639673058599,-0.226374508165,-0.013831820754,-0.0358206605895,0.0159064694532,-0.00811706771994,0.0206605234861,0.0615120675915,-0.00650371516143,-0.772948920727,-0.469921261072,0.316115528345,0.549776613712,-0.716561257839,-0.00197594822384
2017/07/09/10:23:52.122457,541679,1499567034,929768202,,0.496150428288,-0.0415986046501,-0.0344588503319,0.734425627493,0.639657820631,-0.226463667404,-0.0130796610702,-0.0278495979347,0.020457695645,-0.0059151591806,0.02380336993,0.0516522920327,0.0044121205979,-0.59907746315,-1.13574576378,0.533290982246,0.643645644188,-0.711042702198,-0.0215158388019
2017/07/09/10:23:52.132280,541680,1499567034,939772962,,0.496074385002,-0.0403261105876,-0.0347518338575,0.734079228722,0.640110816771,-0.226261562204,-0.0138395693425,-0.0265060501917,0.00373080985333,-0.00507320909183,0.00792783668328,0.0496562062758,0.0410388161968,-0.356390208006,-0.418931365013,0.472437113523,0.663526296616,-0.638208270073,-0.0313681960106
2017/07/09/10:23:52.142475,541681,1499567034,949770738,,0.495000036529,-0.0404936212772,-0.0351238312,0.733860416159,0.640186755621,-0.226722723309,-0.0143740828658,-0.0285287594493,0.000683317749852,-0.0014042030015,0.0083529543431,0.0528445886671,0.00996465251114,-0.676466286182,-0.7127212286,0.429446786642,0.683130502701,-0.655188679695,-0.00944877974689
2017/07/09/10:23:52.152336,541682,1499567034,959783646,,0.494513637732,-0.0407741087068,-0.0350210971364,0.734332084418,0.639573999356,-0.226895150262,-0.0148350911628,-0.00526289768736,0.0133413826504,-0.00967476066953,0.0326024990669,0.00195339820291,0.0124117226332,-0.804720044136,-1.03300881386,0.486703276634,0.732427954674,-0.717933177948,-0.0291737392545
2017/07/09/10:23:52.162580,541683,1499567034,969769114,,0.495310213839,-0.04051221648,-0.0351303865183,0.73393562264,0.640138786274,-0.226630919157,-0.0141160408716,-0.00485900185974,0.0209643443112,-0.00716388775635,0.0233015295832,-0.000868727695343,-0.00541828381867,-0.424413412809,-0.603965938091,0.460606426001,0.554133296013,-0.617363154888,-0.0353966280818
2017/07/09/10:23:52.172458,541684,1499567034,979771614,,0.494817149361,-0.0408456613606,-0.0350419229878,0.734048686245,0.639975661866,-0.226715576756,-0.0142732511332,-0.0196245667698,-0.00758825923736,-0.00679274615075,-0.0113323511319,0.018170927447,-0.0255523993195,-0.302639812231,-0.684456527233,0.679619073868,0.544252932072,-0.600872218609,-0.0399059280753
2017/07/09/10:23:52.182314,541685,1499567034,989772762,,0.494534688214,-0.0410320155016,-0.035271732017,0.73439118655,0.639558202634,-0.226777335187,-0.0143850897475,-0.00257629458888,0.0151467857508,-0.00663688651762,0.00979356490988,0.00345423362956,0.0181648681283,-0.278270512819,-0.798129558563,0.767562508583,0.589594781399,-0.640069007874,-0.0438987575471
2017/07/09/10:23:52.192246,541686,1499567034,999775423,,0.494708246554,-0.0402546148436,-0.0352101887299,0.733688377685,0.640323360344,-0.226883499485,-0.0145339708452,-0.00261226536562,0.0103380280892,-0.0131206583617,0.0205641178447,-0.00359866459643,0.0174517860266,-0.651539564133,-0.290907740593,0.849288165569,0.437490493059,-0.685433864594,0.0124158663675
2017/07/09/10:23:52.202420,541687,1499567035,9768509,,0.494749282641,-0.0397669877879,-0.0353739537251,0.733790169609,0.640340600946,-0.226480718122,-0.014912614904,-0.0144611878279,0.00810027582533,-0.00125969539263,0.00959745152997,0.0278255250982,0.0119353023448,-0.728501558304,-0.351736992598,0.811616837978,0.45600810647,-0.682694077492,0.0160671621561
2017/07/09/10:23:52.212321,541688,1499567035,19768769,,0.49514077115,-0.0399341761694,-0.0353634082895,0.733940734794,0.640273738279,-0.226205011966,-0.0145543959732,0.000505982180417,0.00975140738011,-0.000710946719813,0.010883758272,0.00304964966836,0.00888165648928,-0.471716910601,-0.738439679146,1.11103177071,0.606442451477,-0.646458864212,-0.0429373383522
2017/07/09/10:23:52.222465,541689,1499567035,29768799,,0.494040105141,-0.0407324339915,-0.0351075260589,0.733630795301,0.640258496152,-0.227237580437,-0.0147646987211,-0.00764193514845,-0.0069441757757,0.00187451514205,0.000117592465732,0.00587962625244,0.000542255234553,-1.00222194195,-0.909069955349,0.798260509968,0.54928612709,-0.696652650833,-0.0315472558141
2017/07/09/10:23:52.232134,541690,1499567035,39777963,,0.494433213036,-0.0403220666028,-0.0351943526969,0.733739453161,0.640275480804,-0.226849296933,-0.0145986313653,-0.0178072337905,-0.0044411966481,0.00156170305683,-0.0236685616305,0.0285160469842,-0.0102397234385,-0.339398175478,-0.850357651711,1.08036220074,0.623177409172,-0.686709046364,-0.0528659410775
2017/07/09/10:23:52.242141,541691,1499567035,49770896,,0.494241992902,-0.0403421297459,-0.0352867580891,0.734295286743,0.639620076297,-0.22687698265,-0.0149473947246,-0.0225448605972,-0.00785875184517,-0.00512069360267,-0.00587069050374,0.0360157724584,-0.0269716590516,-0.809594511986,-0.531864702702,0.759970724583,0.459425598383,-0.716778993607,0.0148040894419
2017/07/09/10:23:52.252157,541692,1499567035,59768270,,0.493739995817,-0.040290429761,-0.0356487819067,0.733858207262,0.639996480166,-0.227220568782,-0.0150814499268,-0.00432874579359,0.0165333628962,-0.0104024427396,0.0300785142029,0.0087073090098,0.0203283587331,-1.08694720268,-0.61509001255,0.616518557072,0.570894539356,-0.712692379951,-0.010656664148
2017/07/09/10:23:52.262428,541693,1499567035,69768453,,0.494024357109,-0.0401313366979,-0.0355057665539,0.733747250689,0.640235244134,-0.226910119286,-0.0150200546404,-0.0112503598065,0.00418429942181,-0.00499685781096,-0.000223633171873,0.0256172673734,0.016881910111,-0.198727920651,-0.540527045727,0.771155714989,0.499540269375,-0.507532000542,-0.0611393861473
2017/07/09/10:23:52.272466,541694,1499567035,79784774,,0.494377001755,-0.0395413206566,-0.035837691561,0.73375527638,0.640384888427,-0.226461179494,-0.0150240886736,0.00317301744144,0.0138048593926,-0.00348604682913,0.0198629943073,-0.00584724409047,0.0265952875612,-0.521549165249,-0.221526682377,0.811775922775,0.545637309551,-0.641648173332,-0.00679286755621
2017/07/09/10:23:52.282552,541695,1499567035,89772081,,0.493693278556,-0.040034973573,-0.0356270350123,0.733366170039,0.64053404536,-0.227283829811,-0.0152400158888,-0.00267744022217,0.0123715930415,0.000300455520334,0.0186777578443,-0.00412610021039,0.00669683641539,-0.783083856106,-0.667398750782,0.883000075817,0.60450977087,-0.674105525017,-0.0151579771191
2017/07/09/10:23:52.292448,541696,1499567035,99775804,,0.493497121037,-0.0404227989772,-0.0355305603208,0.733629779637,0.640194604472,-0.227402812121,-0.0150391447053,-0.0125163727238,-0.00369589247575,0.00609311476157,-0.00706205742773,0.0295814318607,0.0228201966623,-0.641574680805,-0.778700888157,0.696218907833,0.541536808014,-0.56914049387,-0.0731691122055
2017/07/09/10:23:52.302155,541697,1499567035,109767086,,0.493682679215,-0.0395209443105,-0.035795312731,0.733262720879,0.640732152081,-0.227040595373,-0.015513204398,-0.0112805915775,0.0124024227365,-0.00193246188801,-0.000717940851246,0.0269883628344,0.0169488018771,-0.510875284672,-0.507583022118,0.335147023201,0.500352919102,-0.554756700993,-0.0524360984564
2017/07/09/10:23:52.312231,541698,1499567035,119769907,,0.493945142867,-0.0400993195198,-0.0352969041481,0.733615129282,0.640289836198,-0.227190877494,-0.014902111701,-0.0304505200437,0.00686396877518,-0.00526795378309,0.0183773965252,0.0604172248065,0.00775058108226,-0.406231611967,-1.01214623451,0.737240672112,0.578198552132,-0.591832399368,-0.0815943852067
2017/07/09/10:23:52.322483,541699,1499567035,129769334,,0.492870631832,-0.0394699737214,-0.0357927896245,0.733732936182,0.640047097484,-0.227409237233,-0.0161471416771,-0.0147470317978,0.00512966306497,0.000261635238062,-0.0088317998801,0.0401452739434,0.0153345265831,-0.244478464127,-0.899658977985,0.288466095924,0.558183789253,-0.485362499952,-0.0998737737536
2017/07/09/10:23:52.332528,541700,1499567035,139788216,,0.493992295871,-0.0389738740294,-0.0354023927606,0.732930106689,0.641112415966,-0.22705109625,-0.0153664730879,-0.000126893826991,0.0188828085463,-0.00555178206526,0.0143493000875,0.018895466063,0.0305328184815,0.274254322052,-0.51518625021,0.207425549626,0.329478234053,-0.326612144709,-0.10222864151
2017/07/09/10:23:52.342537,541701,1499567035,149768514,,0.493111352407,-0.0394441185055,-0.0356167571757,0.733202738776,0.640676790732,-0.227373254916,-0.0157606033399,-0.000769651934272,0.0173437153272,-0.000886224750944,0.0238987076041,0.00647984429412,0.0123630395021,-0.372447580099,-1.0196378231,0.596211254597,0.514802634716,-0.592867612839,-0.0733739584684
2017/07/09/10:23:52.352178,541702,1499567035,159770644,,0.493369546884,-0.0394427848672,-0.0356219550286,0.733020402813,0.640833445545,-0.227538230135,-0.0154899308556,-0.00814380729441,-0.00264772841257,0.00143150202222,0.000364758914032,0.0139208425022,0.0191251837386,0.228543892503,-0.442789614201,0.251791477203,0.373999327421,-0.393285393715,-0.074655637145
2017/07/09/10:23:52.362447,541703,1499567035,169774726,,0.493818068583,-0.0397744870822,-0.0354761305446,0.732755794001,0.641137128593,-0.227561021376,-0.0151033191042,0.00288988313455,-0.00713855868694,-0.00489979570752,-0.0178854552208,-0.00255836002032,0.0253114279565,0.14313262701,-0.703617453575,0.0861633718014,0.40823200345,-0.353765547276,-0.0835626721382
