time,.header.seq,.header.stamp.secs,.header.stamp.nsecs,.header.frame_id,.pose.position.x,.pose.position.y,.pose.position.z,.pose.orientation.x,.pose.orientation.y,.pose.orientation.z,.pose.orientation.w,.twist.linear.x,.twist.linear.y,.twist.linear.z,.twist.angular.x,.twist.angular.y,.twist.angular.z,.wrench.force.x,.wrench.force.y,.wrench.force.z,.wrench.torque.x,.wrench.torque.y,.wrench.torque.z
2017/07/09/10:16:04.833208,494950,1499566567,639468969,,0.780460333034,0.400247966601,0.165457820118,0.622136825747,0.780397840328,0.0550599089315,0.0298895849587,0.00671539202434,-0.00342975008235,0.00595846763747,0.00205897404641,-0.0128340621461,-0.0176402933771,7.36135911942,1.91797435284,-1.16349947453,-0.684939086437,2.90561127663,0.174673557281
2017/07/09/10:16:04.843134,494951,1499566567,649461679,,0.780760182381,0.400264630938,0.165557893739,0.622222118584,0.780309986741,0.055335374044,0.0298990989288,-0.00619575388396,-0.0044619159865,-0.0012221899914,-0.0097988281265,0.014548665324,0.00433246328337,7.24041318893,1.97266173363,-1.25464308262,-0.734733700752,2.83348608017,0.150238648057
2017/07/09/10:16:04.853567,494952,1499566567,659474008,,0.780235436665,0.400324287451,0.165231526509,0.622137800686,0.780423540984,0.0547873857676,0.0296984174125,-0.0001343297265,-0.00495307211928,-0.00204414612462,-0.00167975977721,0.00246907112687,-0.0141525680598,7.06712627411,1.87994146347,-1.19680595398,-0.698799490929,2.76953840256,0.151044279337
2017/07/09/10:16:04.863435,494953,1499566567,669460217,,0.781208049775,0.4004037036,0.165769324076,0.622414218618,0.780120374919,0.0557272591828,0.0301199880974,-0.00620091266627,0.000587409447902,-0.0053227564142,0.010375553734,0.020109079009,-0.00877337483031,7.02851676941,2.16327309608,-1.27026820183,-0.851901054382,2.7342581749,0.114249542356
2017/07/09/10:16:04.873441,494954,1499566567,679467409,,0.78035642708,0.400195339153,0.165534692983,0.622143374627,0.78041211744,0.0548027650952,0.0298530618124,-0.0051865030396,0.0208223297418,0.00623882835849,0.0232595429902,0.00398765195259,0.0199984640204,7.15458679199,2.14510130882,-1.43356370926,-0.882827162743,2.71903324127,0.0984193980694
2017/07/09/10:16:04.883486,494955,1499566567,689471721,,0.780507465605,0.40021954502,0.165592087905,0.622165874908,0.780375096804,0.0550497716539,0.0298974083843,0.0022231657151,-0.00661875232884,0.00671190382138,-0.00479860352263,-0.0048523432913,-0.00321201658986,7.16236114502,2.10405755043,-1.42583501339,-0.899434089661,2.71986174583,0.0810743197799
2017/07/09/10:16:04.893337,494956,1499566567,699467740,,0.780566101755,0.399965106403,0.165707149475,0.622666447777,0.779958920105,0.0553658721058,0.0297522766848,0.00480967153784,-0.00952407867887,0.00283516233706,-0.00436305344015,-0.00185882209878,-0.0141241022219,7.12190675735,2.06902956963,-1.45647633076,-0.812675476074,2.7109003067,0.0921899676323
2017/07/09/10:16:04.903369,494957,1499566567,709471190,,0.780650641698,0.400371448327,0.165746429196,0.622234330258,0.780304368629,0.0552993801883,0.0298581496014,-0.00360980971576,-0.00893977133243,0.00312485002539,-0.00450451630846,0.0116063049647,-0.017647950295,7.13731336594,2.07903456688,-1.4341070652,-0.757640242577,2.70836496353,0.139226526022
2017/07/09/10:16:04.913488,494958,1499566567,719475155,,0.78060306507,0.400076209823,0.16583899637,0.622499798459,0.780093656539,0.055261188993,0.0299013199909,-0.010069567859,-0.00693333722509,0.000180825795232,-0.0184222896465,0.019056423508,0.00441861451867,7.10848665237,2.13311100006,-1.4104373455,-0.814157307148,2.69199872017,0.120521627367
2017/07/09/10:16:04.923141,494959,1499566567,729460332,,0.780511241591,0.399823980042,0.165407245699,0.622493128458,0.780134594586,0.054843294061,0.0297410902379,-0.0113952157002,0.00925297851329,-0.00697042930491,0.00895230999443,0.0251753565191,0.00028427144687,7.1375784874,2.07851147652,-1.44572019577,-0.717346489429,2.70510029793,0.17658983171
2017/07/09/10:16:04.933326,494960,1499566567,739463564,,0.78021408399,0.40073906464,0.165536883816,0.62238519858,0.780216855061,0.0550192517984,0.029516192148,0.000593345796294,-0.0062278526618,-0.00572464950803,-0.0164314678868,0.0104373946333,0.00679649733526,7.21143341064,2.13045120239,-1.42535257339,-0.78466796875,2.74658679962,0.118117779493
2017/07/09/10:16:04.943101,494961,1499566567,749460466,,0.779903438558,0.399670432532,0.165199720377,0.622640062616,0.78007754315,0.0542199373507,0.0293014929983,-0.00600630755465,-0.00461168651501,0.00236432526973,0.00100974604516,0.0183754543677,-0.00567865935711,7.1673822403,2.00535011292,-1.38563215733,-0.737374901772,2.76841306686,0.144140020013
2017/07/09/10:16:04.953436,494962,1499566567,759467757,,0.780087580894,0.399581067433,0.165216453678,0.622587455287,0.780105648322,0.0542797707868,0.0295591687835,-0.015817316834,-0.0236412110938,-0.00876682195121,-0.0255291014074,0.0449314367207,-0.0292085065425,7.19054460526,2.37014126778,-1.34293186665,-0.863237798214,2.78292250633,0.145430013537
2017/07/09/10:16:04.963325,494963,1499566567,769469060,,0.780566469867,0.398960315104,0.165387657095,0.622557118946,0.780101027452,0.0544670203401,0.0299727261474,-0.00651069563596,-0.0150300575198,-0.00753991420896,-0.0279705816813,0.0211704174339,0.0117023929373,7.0541434288,2.31663179398,-1.42295217514,-0.851388990879,2.72094011307,0.104216873646
2017/07/09/10:16:04.973184,494964,1499566567,779465637,,0.780284789078,0.399458873779,0.165371378492,0.622655888795,0.780035057954,0.054518457982,0.0295413312389,0.0141125802341,-0.0261423950842,0.0148155978016,-0.0122412698997,-0.0215837387165,-0.0368536593948,6.87919664383,2.30664920807,-1.49782705307,-0.794576764107,2.64036917686,0.150033563375
2017/07/09/10:16:04.983249,494965,1499566567,789465315,,0.780599400232,0.398895700407,0.165957543211,0.622932298759,0.779790994812,0.0546327932675,0.0299435046826,0.00646820097567,-0.0177543635875,0.00796215906975,-0.0116705894958,-0.00970394695884,-0.0246524660253,6.52223443985,2.19549822807,-1.51808714867,-0.736080467701,2.49542355537,0.149804800749
2017/07/09/10:16:04.993405,494966,1499566567,799468985,,0.780273112493,0.398951271026,0.165822966991,0.622750242883,0.77996382161,0.0543158604459,0.0298053564455,0.00311974724213,-0.0227204574254,0.0022261566357,-0.0135192641293,0.00104344909635,-0.0359366171676,6.85358333588,2.39952254295,-1.65878927708,-0.788195133209,2.60311937332,0.136302664876
2017/07/09/10:16:05.003167,494967,1499566567,809462419,,0.780371675249,0.398865628954,0.16559544948,0.622708806986,0.779996584076,0.0542643964178,0.0299072869668,0.00452306172151,-0.0186540595011,0.0125397204229,-0.000459296722776,-0.010870770505,-0.0265878851325,6.7500629425,2.26975297928,-1.63829505444,-0.643793106079,2.58117246628,0.211969465017
2017/07/09/10:16:05.013215,494968,1499566567,819467053,,0.77991470239,0.398942020289,0.165181790761,0.622750094289,0.780005863792,0.0539439944349,0.0293805714176,-0.000215674049528,-0.0412294212734,-0.00973315003018,-0.0102910297722,0.0115709304213,-0.0327319381041,6.6341252327,2.269343853,-1.6039339304,-0.663509249687,2.56740665436,0.174237325788
2017/07/09/10:16:05.023316,494969,1499566567,829464144,,0.780801662671,0.398154804571,0.165596010449,0.623114770907,0.779645504837,0.0544803936142,0.0302118482692,0.00419825412301,-0.0364899292923,-0.00805600917745,-0.0218318813524,0.0102116151766,-0.032918042746,6.45649147034,2.28772830963,-1.58428907394,-0.634235560894,2.52099990845,0.202556803823
2017/07/09/10:16:05.033156,494970,1499566567,839467909,,0.780824251113,0.397392971464,0.165715947108,0.623644771645,0.779236001568,0.0543945931774,0.0299946810806,0.0224439802813,-0.060966761095,0.00946328034939,-0.012448887311,-0.0220793675387,-0.0885726416868,6.27664661407,2.18462061882,-1.66229760647,-0.612265229225,2.43180370331,0.1942627877
2017/07/09/10:16:05.043243,494971,1499566567,849467274,,0.780913807133,0.396819523606,0.166053980262,0.624197430279,0.778780549435,0.0544678062424,0.0301940712494,0.0193943564192,-0.0514182538961,0.0100641897144,-0.000635271319512,-0.0252578524362,-0.0717582508091,6.07835578918,2.0751273632,-1.74515032768,-0.537164986134,2.34124016762,0.210643664002
2017/07/09/10:16:05.053314,494972,1499566567,859474687,,0.780598330498,0.396086840666,0.16539109728,0.623916808049,0.779065928086,0.0536189715586,0.0301513219969,0.0120431006052,-0.0436007264099,0.00188141268258,0.00758057061149,-0.00863490156316,-0.0769787357853,5.99587059021,2.22284698486,-1.7754830122,-0.618611097336,2.30176973343,0.18713337183
2017/07/09/10:16:05.063232,494973,1499566567,869462812,,0.780887696232,0.395702588005,0.165755954439,0.624335453005,0.778702425678,0.0540711300378,0.0300680438537,0.000642409273515,-0.0470148749124,0.00140205766157,0.0036339953765,0.0167426837682,-0.0724156670146,6.04352998734,2.22300839424,-1.9261367321,-0.658804118633,2.29104113579,0.169342815876
2017/07/09/10:16:05.073262,494974,1499566567,879465461,,0.781011070092,0.395079335627,0.165820650733,0.624881401416,0.778275089072,0.054022387046,0.0298781122578,0.0098664810372,-0.0799561926964,0.000950326862503,-0.0195441361295,0.0130182204968,-0.0954800837457,5.96321058273,2.24075293541,-1.85150706768,-0.630374968052,2.25090479851,0.189780712128
2017/07/09/10:16:05.082998,494975,1499566567,889461549,,0.781579626486,0.394528760097,0.165875982885,0.62511386237,0.778043799707,0.0543893008801,0.0303695367063,0.0191474707565,-0.0755095162512,0.00591844936574,0.00104276175983,-0.00978573050351,-0.107884499887,5.70159244537,2.07329535484,-2.02102327347,-0.572561204433,2.15370893478,0.17750865221
2017/07/09/10:16:05.093472,494976,1499566567,899465602,,0.781397751861,0.393096820417,0.165762446968,0.626079433939,0.777301636209,0.0539391140956,0.030286642533,0.0129071590166,-0.0696246933938,0.00195865896483,0.0198150983777,0.00649221981514,-0.120442134292,5.80123376846,2.06929755211,-2.02805638313,-0.583716034889,2.1661028862,0.178724572062
2017/07/09/10:16:05.103423,494977,1499566567,909462520,,0.781606001696,0.393156997401,0.165692551491,0.62604872886,0.777307844918,0.0543213968017,0.0300780513234,0.00438380172558,-0.0711639741865,-0.0120733009612,0.0019425453164,0.0201285359393,-0.101054817841,6.71528577805,3.76125049591,-1.96656453609,-1.4720761776,2.47274947166,-0.0527089945972
2017/07/09/10:16:05.113189,494978,1499566567,919475911,,0.782142901512,0.392087199675,0.166146916409,0.626534891382,0.776897213086,0.0541841150954,0.0308031143236,0.0180954665978,-0.0899124836918,-0.0041412857184,-0.0237334875884,-0.00612194230407,-0.118829089016,7.35555791855,5.41764688492,-1.95320701599,-2.29477643967,2.68804597855,-0.193801641464
2017/07/09/10:16:05.123082,494979,1499566567,929461181,,0.781911665536,0.390976308267,0.165657690513,0.626770317435,0.776758367279,0.0535566298316,0.0306120147284,0.0246077368701,-0.0929498819088,0.0115805225759,-0.0542066338818,-0.025969328275,-0.128139543934,6.66947889328,5.56894207001,-1.81422245502,-2.38753962517,2.40972590446,-0.205157577991
2017/07/09/10:16:05.133301,494980,1499566567,939461158,,0.782410133129,0.389739434725,0.165972832767,0.627358413149,0.776228791527,0.0539624594365,0.0312783891324,0.00808487440155,-0.106208831127,-0.00301555244471,-0.0497837555545,0.0156849988969,-0.130683222087,3.5591917038,3.11005187035,-1.16263902187,-1.26806056499,1.2816337347,-0.0438928417861
2017/07/09/10:16:05.143046,494981,1499566567,949460306,,0.782683557649,0.388390170886,0.166391802582,0.628119571227,0.775618399014,0.0535558569947,0.0318382401273,0.0331939719848,-0.148633387306,0.0174735978413,-0.0646380261452,-0.0424968260629,-0.176084577397,1.93243479729,1.51751124859,-0.41294169426,-0.516302406788,0.772844016552,0.0575282201171
2017/07/09/10:16:05.153231,494982,1499566567,959461166,,0.782469085125,0.387175698147,0.165469189361,0.628650463006,0.775249054556,0.0528640627863,0.0315101513568,0.0294463616665,-0.140105447438,0.0165337588158,-0.0858747212012,-0.0509816071822,-0.153701337425,2.28400945663,1.40922760963,-0.252202928066,-0.564130723476,0.937448143959,-0.0167797766626
2017/07/09/10:16:05.163188,494983,1499566567,969459187,,0.782995358853,0.385799654373,0.166266608517,0.629331207262,0.774661730277,0.0529821915146,0.032160886074,0.0327834495365,-0.129977419056,0.0104620879794,-0.0577501351958,-0.0433210280261,-0.152727622188,4.01463365555,2.00704050064,-0.724024116993,-0.816247463226,1.56136465073,0.0152754597366
2017/07/09/10:16:05.175613,494984,1499566567,979462897,,0.782997286398,0.385090548048,0.166362072789,0.629789551861,0.774289225745,0.0530281264274,0.0320832210056,0.0226568419674,-0.143279624267,0.00805901652405,-0.0344593550249,-0.00547162542064,-0.186387346718,5.1111779213,2.0958366394,-1.30082094669,-0.860146522522,1.91097450256,-0.0187735520303
2017/07/09/10:16:05.183425,494985,1499566567,989462413,,0.783800957555,0.382985770869,0.166868387678,0.631132676869,0.773166636978,0.0531410142363,0.0325718936726,0.0269689798913,-0.138001336913,0.0177778032002,-0.0116430212823,-0.0166103554212,-0.209121985017,4.7480096817,1.84158027172,-1.53353655338,-0.70805811882,1.74921536446,0.0599230714142
2017/07/09/10:16:05.193400,494986,1499566567,999464535,,0.784226326972,0.381898619575,0.167173148685,0.632032184968,0.772398147171,0.0534859230805,0.0327974914277,0.0341115409306,-0.152412862271,0.0169665143156,-0.0435500147091,-0.0257595862852,-0.230220917063,3.94219493866,1.71621704102,-1.60546481609,-0.708824574947,1.43885219097,0.0234006494284
2017/07/09/10:16:05.203107,494987,1499566568,9463018,,0.784655834887,0.379592918421,0.167201411107,0.632668796536,0.771887671184,0.0530457273518,0.0332530866829,0.0504946838574,-0.149645426983,0.0279960852058,-0.0353836753541,-0.070342314637,-0.212727658204,3.92386841774,1.82148480415,-1.70111083984,-0.749232172966,1.45715308189,-0.00767051801085
2017/07/09/10:16:05.213276,494988,1499566568,19469133,,0.784948182064,0.378668964988,0.167522029149,0.633283081161,0.771358374183,0.0530813981073,0.0337811022439,0.0494876748977,-0.156080922234,0.0213846751657,-0.0248049172107,-0.0700931547987,-0.212412595087,4.24762821198,1.97392249107,-1.80557787418,-0.786253750324,1.63572394848,0.0236216820776
2017/07/09/10:16:05.223054,494989,1499566568,29461593,,0.785322618214,0.376943322301,0.167412746517,0.634179360002,0.77060487228,0.0533029067484,0.0338152376574,0.0532687403323,-0.156908381321,0.0199918464023,-0.013847102402,-0.0764880054432,-0.206014709095,3.76419043541,0.805377006531,-1.9654712677,-0.11552285403,1.52183890343,0.17682030797
2017/07/09/10:16:05.233326,494990,1499566568,39459727,,0.785908052246,0.375015776875,0.167817707438,0.635370503148,0.769592819254,0.0535241557258,0.0341523210783,0.0446843546352,-0.145379240922,0.0212784198004,-0.00168637608834,-0.0722636219673,-0.210763332485,4.4155292511,0.212393641472,-2.10061073303,0.152217954397,1.79403793812,0.266103893518
2017/07/09/10:16:05.243316,494991,1499566568,49460502,,0.785867056146,0.373606840624,0.167460668959,0.635684118551,0.769360071524,0.0533036124712,0.0339043753108,0.0400734717715,-0.166812697406,0.0219455715162,0.0115119337684,-0.0486449771433,-0.24611560958,4.54524517059,0.113692894578,-2.13143134117,0.163250625134,1.84215545654,0.275979995728
2017/07/09/10:16:05.253257,494992,1499566568,59466320,,0.786731448341,0.372570293449,0.168394006263,0.637073853815,0.768117250435,0.054296434312,0.0344193490634,0.0298558622831,-0.180993679247,0.015416810026,0.0160470726935,-0.0180534727933,-0.269249879525,5.13241910934,0.540979325771,-2.26581835747,-0.115261547267,2.05066514015,0.201162338257
2017/07/09/10:16:05.263091,494993,1499566568,69461370,,0.787178763249,0.370373378308,0.168309172535,0.63813634481,0.767233530033,0.0542782936079,0.0344758273134,0.0279682624197,-0.159889478567,0.0161005784712,0.036394952662,-0.0148752928462,-0.243763868531,5.18872499466,1.07281768322,-2.33908486366,-0.480531513691,2.02407622337,0.119318328798
2017/07/09/10:16:05.273411,494994,1499566568,79468105,,0.787056113693,0.369141210806,0.16864950267,0.6385772988,0.766880991951,0.0540894559894,0.0344515368735,0.0314881924856,-0.178258891264,0.0245795832965,0.0293444262986,-0.0179363484273,-0.26520193796,5.53480625153,1.61301779747,-2.40691709518,-0.768325328827,2.10047459602,0.0527507215738
2017/07/09/10:16:05.283647,494995,1499566568,89459988,,0.787375159984,0.367150286077,0.169127623173,0.639884276911,0.765776894692,0.0541191363406,0.0347128045661,0.027928151786,-0.171706151065,0.0193057177149,0.0200521319068,-0.0112438247746,-0.233693902489,4.85773420334,1.45675492287,-2.37349438667,-0.753291606903,1.8352650404,0.0496517792344
2017/07/09/10:16:05.293077,494996,1499566568,99466552,,0.788169494885,0.365529304978,0.169023189581,0.64037851841,0.765321530156,0.0542999683745,0.0353528227003,0.0333880833998,-0.174621930428,0.0282178101328,-0.0097249747937,-0.0435030269516,-0.223052694471,4.38246011734,1.60614383221,-2.06211352348,-0.812847495079,1.69149291515,0.00469549745321
2017/07/09/10:16:05.303212,494997,1499566568,109466622,,0.788468550669,0.363973037623,0.169312153986,0.641173845677,0.764636085206,0.0545544367461,0.035377538791,0.0348308647565,-0.160997135384,0.0151242930938,-0.00439399127034,-0.0409380020271,-0.222367404571,4.12221813202,1.4797604084,-1.97669315338,-0.743656933308,1.60259628296,0.0306159630418
2017/07/09/10:16:05.313191,494998,1499566568,119461394,,0.788348626523,0.362517363123,0.169180794222,0.642068317879,0.763913489524,0.0543126474281,0.0351367617965,0.0370969315018,-0.180813574382,0.0248461751656,-0.00473527706062,-0.0450978258234,-0.255555417113,4.25872087479,1.09520733356,-1.76529061794,-0.546923935413,1.68506753445,0.0767781063914
2017/07/09/10:16:05.323253,494999,1499566568,129468978,,0.788705203055,0.360708798979,0.169431123702,0.642743680993,0.763330535554,0.05427132567,0.0355200963438,0.029184489113,-0.205669472985,0.0141235616704,-0.0115868289538,-0.016523351104,-0.27744061564,4.27038097382,1.01827681065,-1.96978878975,-0.482846021652,1.68464767933,0.0917329490185
2017/07/09/10:16:05.333188,495000,1499566568,139464069,,0.789356489787,0.358214170892,0.169836983136,0.644125060094,0.762134588126,0.0542787307048,0.0361606959843,0.0295865315108,-0.208495544323,0.0187261261205,-0.0139332457381,-0.0266281678255,-0.274182195493,4.6186747551,1.0684223175,-2.10520362854,-0.520104110241,1.79952204227,0.083162561059
2017/07/09/10:16:05.343608,495001,1499566568,149461696,,0.789298313023,0.356172823946,0.169371992624,0.645508217149,0.760999835232,0.0541049188945,0.0356517898844,0.0412654348758,-0.191712417843,0.0236858469267,0.0105131548418,-0.0475944491261,-0.287266979661,4.47813463211,1.17124116421,-2.23542714119,-0.549032390118,1.7370442152,0.0742458403111
2017/07/09/10:16:05.353472,495002,1499566568,159465328,,0.789926920257,0.354443320097,0.170194986901,0.646291048952,0.760285397509,0.0544977451635,0.0361108037964,0.0429121234158,-0.198567880671,0.0153266904173,0.00144109363136,-0.0412294931489,-0.284731817399,4.57575845718,1.09929871559,-2.48662281036,-0.54831302166,1.77541804314,0.0804358497262
2017/07/09/10:16:05.363224,495003,1499566568,169465313,,0.789722510407,0.352635347201,0.169645829039,0.647236763988,0.75952781129,0.0539607410091,0.0359209360829,0.0351252446325,-0.211665317758,0.0140768602593,-0.000137683005606,-0.01840092017,-0.293043158208,4.18114280701,1.07043206692,-2.50734519958,-0.51995074749,1.60364234447,0.0688754692674
2017/07/09/10:16:05.373277,495004,1499566568,179466323,,0.790874230159,0.35088427641,0.170437045175,0.648507223179,0.758342419039,0.0549722865912,0.0365130754406,0.0375089157117,-0.195192745026,0.011634651898,0.009518260105,-0.0317772354639,-0.296210296033,4.02623176575,1.06719470024,-2.61543297768,-0.493465512991,1.55236589909,0.106256902218
2017/07/09/10:16:05.383285,495005,1499566568,189474534,,0.790753520706,0.348904231771,0.170172002676,0.649366615152,0.75763520594,0.0547150182065,0.0363064819049,0.0284627028236,-0.186197573737,-0.00130654549789,0.00498446229634,-0.0133760754337,-0.248563334494,4.5420665741,1.13171029091,-2.48241281509,-0.549093306065,1.7927685976,0.079730629921
2017/07/09/10:16:05.393439,495006,1499566568,199459207,,0.791244442599,0.346996951784,0.170503657031,0.650190013597,0.756903830038,0.0547383874438,0.0367865088225,0.0235305164128,-0.213671756628,0.00154566787724,0.00100255135156,-0.000994127771622,-0.28975856438,4.61060142517,0.927849948406,-2.46102309227,-0.444289475679,1.78375327587,0.120498247445
2017/07/09/10:16:05.403351,495007,1499566568,209473329,,0.790871126692,0.344715112545,0.169826034191,0.651658910063,0.755719168809,0.0540294525238,0.0361942134906,0.0266451465222,-0.198511899488,0.00585284522941,0.00792955379965,-0.0108381623877,-0.276957669865,4.9345870018,0.903693318367,-2.32265901566,-0.452989667654,1.90395867825,0.0985491424799
2017/07/09/10:16:05.413306,495008,1499566568,219466627,,0.791271688359,0.343334563998,0.170666922354,0.65222635265,0.755191859857,0.054456731533,0.0363387411122,0.0272719907186,-0.216557899272,0.00715135846496,-0.00873272407147,-0.00436737944749,-0.289671481638,6.19821310043,0.896321952343,-2.20544886589,-0.422105252743,2.36647224426,0.137398824096
2017/07/09/10:16:05.423198,495009,1499566568,229462989,,0.791627542577,0.341111075409,0.170048375319,0.653291134184,0.754271705552,0.0543187029678,0.0365289844848,0.0152659350899,-0.215599527519,0.0027496642039,-0.00197141477187,0.0298562571023,-0.276487386406,6.2510342598,1.05781531334,-2.11262345314,-0.452251702547,2.32772111893,0.146771728992
2017/07/09/10:16:05.433280,495010,1499566568,239465944,,0.792092221565,0.339086079086,0.170418560666,0.654550945367,0.753155282501,0.0545905193532,0.0366067692796,0.0260537684173,-0.229081660776,-0.00140893345196,-0.00431077713926,0.0120815020874,-0.32019405954,5.8604092598,0.850536823273,-2.08257055283,-0.384306609631,2.16068506241,0.104942917824
2017/07/09/10:16:05.443506,495011,1499566568,249465954,,0.792182240522,0.336966605318,0.169932641312,0.6554611791,0.752388640468,0.0541701810694,0.0367092341237,0.0247533051861,-0.222780269223,-0.00457043817707,0.0128724830682,0.0141065159642,-0.32009606824,5.56713581085,0.880796551704,-2.09388685226,-0.410583406687,2.05713558197,0.129743933678
2017/07/09/10:16:05.453266,495012,1499566568,259473568,,0.792673990557,0.333764077859,0.169947631251,0.657033788457,0.751018686234,0.0539303968972,0.0370006222046,0.0416339682064,-0.221879156709,0.00734457389481,0.00969729793694,-0.0321413203448,-0.323872126123,5.06677722931,0.883095383644,-2.13813400269,-0.403198182583,1.86133861542,0.0992993116379
2017/07/09/10:16:05.463114,495013,1499566568,269462025,,0.793452483163,0.332429026201,0.170773973748,0.657928746547,0.750158557532,0.0548078823526,0.0372558594176,0.0391360980698,-0.246422040321,-0.00147622871278,-0.0117203195039,-0.0206996445759,-0.324836099265,4.89856004715,0.798035681248,-1.91338968277,-0.417937338352,1.86858201027,0.0965542942286
2017/07/09/10:16:05.473249,495014,1499566568,279465383,,0.793621310232,0.32942332941,0.170365279513,0.659608973462,0.748699875188,0.0545575773823,0.0372554663386,0.055111781112,-0.241411942459,0.0146799220738,-0.00168795120859,-0.063655517877,-0.332517918314,4.62105560303,0.927398562431,-1.60098314285,-0.487743675709,1.81070494652,0.0959613472223
2017/07/09/10:16:05.483418,495015,1499566568,289460814,,0.793554260707,0.327727460809,0.170105029069,0.660346122335,0.748081889925,0.0542511151985,0.0370580785039,0.0489928373821,-0.22917594555,0.0172144298576,0.0181955440534,-0.0489697565315,-0.335103842911,4.3195400238,0.288586080074,-1.633420825,-0.396350860596,1.66299152374,0.0592466890812
2017/07/09/10:16:05.493415,495016,1499566568,299467313,,0.794446334399,0.32545596572,0.170857072257,0.661336745283,0.747138019707,0.0546125889964,0.0378939833056,0.0370923866968,-0.227163928453,0.0114239171228,0.0150525310322,-0.0194912709753,-0.330788630966,3.89290881157,0.0913219749928,-1.50386619568,-0.227892503142,1.44846260548,0.127690047026
2017/07/09/10:16:05.503131,495017,1499566568,309464512,,0.795240900035,0.323030909151,0.170930090669,0.662774733254,0.74581403442,0.0549602303451,0.0383464744419,0.0409056114715,-0.234736951278,0.00808086619352,0.00180603391549,-0.0290617841651,-0.329237177849,3.64637088776,0.384412884712,-1.17388033867,-0.443674504757,1.36147916317,0.0196703169495
2017/07/09/10:16:05.513399,495018,1499566568,319468564,,0.794918553414,0.320702007136,0.170731009244,0.664041604226,0.744756098731,0.0544429220179,0.0377235934566,0.0521692263037,-0.245898748082,0.0110264760219,0.00572771752618,-0.0426899217633,-0.361039073012,3.37865710258,0.495357722044,-1.23432540894,-0.479280054569,1.24542331696,0.0178461112082
2017/07/09/10:16:05.523238,495019,1499566568,329462750,,0.795771028271,0.318805468779,0.170685711909,0.665047016002,0.743798612262,0.0549104296693,0.0382221874993,0.0432527109377,-0.244894445859,0.00750273886617,-0.000745008004837,-0.0246708094062,-0.347964886672,2.64685249329,0.540219902992,-0.838481247425,-0.495163023472,0.981163263321,-0.00181453675032
2017/07/09/10:16:05.533198,495020,1499566568,339471563,,0.796683723054,0.315349633617,0.171294690915,0.666675740802,0.742283113829,0.0549821869242,0.0391943193764,0.0572478468479,-0.249283140792,0.00573394136892,0.00716447828077,-0.0619325163422,-0.327548393416,2.37890744209,0.272662401199,-0.537458300591,-0.390870690346,0.895368635654,0.00518960505724
2017/07/09/10:16:05.543137,495021,1499566568,349473285,,0.796689535769,0.312913124205,0.170870034863,0.668260090909,0.74090160291,0.054794488459,0.0386112643848,0.0603953782931,-0.274057340608,0.0107859479944,-0.011987497344,-0.0639798447573,-0.358725518936,1.13172900677,0.225544422865,-0.368783593178,-0.346855640411,0.468128800392,0.0123182982206
2017/07/09/10:16:05.553319,495022,1499566568,359473729,,0.797353187726,0.310580250806,0.171071436512,0.669212863976,0.739989348753,0.0550698260048,0.0392074060023,0.0650879247809,-0.267360978791,0.0256270912972,-0.0048275993983,-0.0812124349708,-0.373219738464,1.12620425224,-0.0737714916468,0.114085540175,-0.298905402422,0.511178791523,-0.0134102851152
2017/07/09/10:16:05.563302,495023,1499566568,369477783,,0.797669687055,0.307800873848,0.170649204779,0.670704940998,0.738651124417,0.0549759023749,0.0390774701833,0.0572266338947,-0.256409754594,0.011714687288,0.00962934485378,-0.0707154034205,-0.370419595928,0.533877491951,-0.126732259989,0.305931895971,-0.24418669939,0.320370227098,0.0234997048974
2017/07/09/10:16:05.573462,495024,1499566568,379474280,,0.798708687087,0.305393051037,0.171635786267,0.671676692993,0.737665583155,0.055584459806,0.0401282362774,0.0501167577936,-0.276910203437,0.0101439832725,0.00295255103588,-0.0513792244899,-0.401148541163,0.447500377893,-0.0666082277894,0.480876624584,-0.207414716482,0.281439274549,-0.0109316781163
2017/07/09/10:16:05.583059,495025,1499566568,389461872,,0.799414524886,0.302421916555,0.171960484694,0.673256820103,0.736191868388,0.0556320396419,0.0406431208134,0.056325487629,-0.295122884227,0.0186296176412,-0.0162966078364,-0.0645567891136,-0.380374962059,0.118784762919,-0.116320386529,0.913571476936,-0.189438998699,0.153134718537,-0.017989128828
2017/07/09/10:16:05.593244,495026,1499566568,399463021,,0.79969655694,0.299158556911,0.172316868058,0.674838084569,0.734729123198,0.0556472035979,0.0408664149607,0.0526330573621,-0.286846472311,0.0348874433845,0.0070310412174,-0.0635457576837,-0.413459993527,-0.334353685379,-0.442258834839,0.948568463326,-0.16281889379,-0.0210377536714,0.00164943188429
2017/07/09/10:16:05.603339,495027,1499566568,409460537,,0.799815040341,0.296851490844,0.172346554802,0.676172120116,0.733518662415,0.055473247624,0.0407965030958,0.03654675993,-0.301747056214,0.017828862267,-0.0134497380234,-0.0255818420751,-0.423366958109,-0.779965400696,-0.1799710989,0.97871786356,-0.141250178218,-0.196506589651,-0.0023052804172
2017/07/09/10:16:05.613358,495028,1499566568,419468022,,0.800743080811,0.294204092308,0.172766445731,0.677657900423,0.732051753135,0.0563375399077,0.0413047494139,0.0495833465312,-0.285729190432,0.0246819596007,0.0265640771795,-0.0662005636142,-0.416308784116,-1.25875329971,-0.199317097664,1.11081945896,-0.125555947423,-0.372752726078,0.0418730005622
2017/07/09/10:16:05.623168,495029,1499566568,429460603,,0.800795695019,0.290927446945,0.172852844507,0.679166382628,0.730674681926,0.0558909413843,0.0415179066415,0.0665848044331,-0.278964386036,0.0354701452178,0.0171176012633,-0.115788520607,-0.398472858844,-1.88488018513,-0.725706100464,1.0968682766,-0.0363795980811,-0.552827835083,0.00485967844725
2017/07/09/10:16:05.633402,495030,1499566568,439468707,,0.801433858834,0.288242492214,0.172891956473,0.680707080961,0.729196770918,0.0563898728048,0.041594728724,0.0386272924555,-0.306201824727,0.0144657038135,0.00130808212496,-0.0487809783299,-0.422173884345,-2.02145576477,-0.549924552441,1.0550814867,-0.150781035423,-0.625862419605,-0.0159270837903
2017/07/09/10:16:05.643032,495031,1499566568,449460831,,0.801902902546,0.28616314829,0.173723458836,0.681732657331,0.728181809051,0.0567576647619,0.0420761736068,0.0363922060666,-0.30202062077,0.018240863893,0.00896728852625,-0.048086737263,-0.408034116811,-1.72970509529,0.0855570286512,1.26773619652,-0.359519660473,-0.526742815971,-0.0636541843414
2017/07/09/10:16:05.653332,495032,1499566568,459459611,,0.802146385106,0.283712104618,0.173336717904,0.683107118213,0.72689763434,0.0566066603094,0.042192182298,0.0400493933948,-0.285403798534,0.0177071051259,0.00749994613529,-0.0496707081253,-0.398463867079,-0.917688846588,1.59350728989,1.02688729763,-1.12341547012,-0.202938690782,-0.256078630686
2017/07/09/10:16:05.663405,495033,1499566568,469459748,,0.802021624469,0.279824905516,0.172967547043,0.684716896505,0.725428068733,0.0559602617205,0.0422532583758,0.0374334010203,-0.285206277731,0.0146355846371,-0.0103973450569,-0.050004484072,-0.387821084244,-1.13664782047,1.66202688217,0.998685181141,-1.21551954746,-0.301411151886,-0.244284540415
2017/07/09/10:16:05.673175,495034,1499566568,479467540,,0.802831484129,0.27678321591,0.173941583271,0.685954151849,0.724168565555,0.0563795342195,0.0432219659976,0.0372802725869,-0.32815013596,0.0212876404169,-0.0386671692513,-0.0499067796646,-0.430307317219,-1.85943138599,1.60776364803,1.25711023808,-1.03779864311,-0.606953322887,-0.202687799931
2017/07/09/10:16:05.683414,495035,1499566568,489469086,,0.80294904949,0.273963168178,0.173707455315,0.687522884158,0.722699690937,0.0561488213423,0.0431827551303,0.0421300432253,-0.346434236703,0.0308397373078,-0.0547057969311,-0.0751945333444,-0.455018946688,-2.86068964005,1.09157443047,1.32664608955,-0.556574463844,-0.935458123684,-0.0375895798206
2017/07/09/10:16:05.693374,495036,1499566568,499460076,,0.803581220758,0.270135099947,0.174051443349,0.689499450022,0.720758208348,0.056166037353,0.0440850288296,0.0288872788558,-0.335680692361,0.0211787765854,-0.0462708381103,-0.0448494792925,-0.45229942462,-3.63227105141,-0.0250720605254,1.20115709305,-0.0644122511148,-1.23243331909,0.0573345348239
2017/07/09/10:16:05.703116,495037,1499566568,509462498,,0.804069378145,0.266969885581,0.174623507078,0.690764429826,0.719490195828,0.0564365755,0.0446460921171,0.0341746020062,-0.329691192856,0.0188159994832,-0.0442949735763,-0.0650374224527,-0.429381090039,-3.36458826065,-0.353591412306,1.19555783272,0.129220336676,-1.11400401592,0.108610227704
2017/07/09/10:16:05.713477,495038,1499566568,519483631,,0.804113968235,0.263712815789,0.174633395854,0.691963112829,0.718336847748,0.0562150740429,0.0449342753553,0.0357068351007,-0.357380540709,0.016576070939,-0.042821460969,-0.0624655836814,-0.455194299994,-3.17136383057,-0.397718191147,1.22062849998,0.211889609694,-1.05550885201,0.109875664115
2017/07/09/10:16:05.723445,495039,1499566568,529463898,,0.804760728288,0.260437010304,0.174885773094,0.693628200663,0.716670688596,0.0564845840209,0.0455251043,0.0395378239604,-0.332896452514,0.0268630343109,-0.0132397956863,-0.0776329789375,-0.435717029369,-3.29492163658,0.0874369069934,1.21503722668,-0.0814739689231,-1.12157380581,0.0437540858984
2017/07/09/10:16:05.733273,495040,1499566568,539468421,,0.805196235362,0.257943839338,0.175494671561,0.695091020562,0.715191197674,0.056998314129,0.0458390236567,0.0328367455433,-0.29869664923,0.0342123169088,0.0275668293916,-0.0784604806464,-0.426535344617,-3.29393458366,0.242672473192,1.34104967117,-0.268106251955,-1.11107063293,0.0126359090209
2017/07/09/10:16:05.743253,495041,1499566568,549460431,,0.805211489725,0.255408098219,0.175160862081,0.696230490147,0.714098905338,0.0568576524051,0.0457500311296,0.0326345708688,-0.28365145912,0.0264022273264,0.0411772232816,-0.0702761721633,-0.415866813055,-4.09064340591,0.0212029218674,1.41984808445,-0.144792512059,-1.34148132801,0.0117430947721
2017/07/09/10:16:05.753227,495042,1499566568,559463816,,0.805365603181,0.250818779046,0.17577252698,0.698527544827,0.711818639912,0.0568234023463,0.046309760708,0.0157819227717,-0.327627749346,0.0155065588204,-0.00823531547838,-0.0340951965833,-0.440511311085,-3.77523326874,-0.334076881409,1.49953520298,-0.0688835084438,-1.27087640762,0.0197009257972
2017/07/09/10:16:05.763701,495043,1499566568,569465771,,0.805614598807,0.248963166651,0.175744587858,0.699352296937,0.710983515936,0.0569371104438,0.0465507281411,0.00429282266657,-0.31989777104,0.0143091112611,-0.00358873767851,-0.00972683058508,-0.425549398113,-4.10132026672,-0.0710512623191,1.52879345417,0.00972438976169,-1.43251371384,0.0564166009426
2017/07/09/10:16:05.773467,495044,1499566568,579468487,,0.805952454968,0.246210240675,0.176166327648,0.700788634622,0.709532632475,0.0571398009459,0.0468377645269,0.0139179757306,-0.302850050832,0.0145958335688,0.00965689325796,-0.0261188249281,-0.427547119284,-4.64117717743,-0.437252998352,1.69433474541,0.104471668601,-1.63371932507,0.117876321077
2017/07/09/10:16:05.783540,495045,1499566568,589459716,,0.805753584119,0.24331680065,0.176290117885,0.702401222245,0.707955800671,0.0571204514393,0.0465656666796,0.0319152400647,-0.313946577874,0.0307619816434,0.00951154399734,-0.0666273060495,-0.434474058393,-4.9952712059,0.228726193309,1.18613624573,-0.215510547161,-1.83889198303,-0.0192055664957
2017/07/09/10:16:05.793017,495046,1499566568,599468377,,0.805797140054,0.240049061003,0.176207489359,0.703746578165,0.706617014247,0.0569418791365,0.0468056759225,0.00501383957254,-0.298466916194,0.00997331264506,0.00829086374486,-0.00507256036314,-0.390762073122,-4.68053245544,-0.268630623817,0.986920177937,-0.213394314051,-1.80379211903,-0.0297212898731
2017/07/09/10:16:05.803192,495047,1499566568,609465293,,0.806089368571,0.237364610214,0.176588928647,0.705362049245,0.704980254948,0.0571311446795,0.0469388104346,-0.00481368387104,-0.31595330232,-0.000807277853341,-0.00185900180101,0.0206326379596,-0.41764092768,-4.50167942047,-0.00528632104397,1.06111836433,-0.119620725513,-1.79951190948,0.0374218039215
2017/07/09/10:16:05.813300,495048,1499566568,619467027,,0.806221268395,0.234773754363,0.176449486402,0.706394252143,0.703939607394,0.0572105088632,0.0469376965408,0.00923718617103,-0.334863395276,0.0121923977899,-0.00159450371648,-0.0232125143446,-0.463884879078,-4.94962978363,0.154830127954,0.881544291973,-0.254705697298,-1.97085356712,-0.034996137023
2017/07/09/10:16:05.823269,495049,1499566568,629492455,,0.805825745141,0.230796038143,0.176057879258,0.70833218144,0.702019849726,0.0567966399557,0.0469871579901,0.016903006626,-0.31361774716,0.0128411912094,0.00245520756769,-0.0467777655783,-0.433460273085,-5.2477145195,-0.57278752327,1.01751303673,-0.00586825236678,-2.00349140167,0.0442995689809
2017/07/09/10:16:05.833332,495050,1499566568,639466080,,0.80650579765,0.227457255626,0.176469340459,0.709839971466,0.700414187655,0.0571775053537,0.0477274923145,0.0182764904453,-0.324351748189,0.00992345498019,0.00734795114485,-0.0511073959124,-0.460623107687,-5.17131185532,-0.526683568954,1.21508646011,-0.00372749567032,-1.9788839817,0.0306530185044
2017/07/09/10:16:05.843170,495051,1499566568,649462409,,0.806827729764,0.224850798382,0.176602105582,0.711244093093,0.698942325954,0.0575230695031,0.0479850133358,0.0213511767435,-0.319715823745,0.00565976139469,0.00762615998972,-0.0607219382689,-0.440258635313,-5.61826705933,-0.81433403492,1.22429835796,0.150922104716,-2.14957976341,0.0779890939593
2017/07/09/10:16:05.853004,495052,1499566568,659459262,,0.806869317955,0.220972720801,0.176869579217,0.712826063208,0.69731256596,0.0573120381897,0.0484718397011,0.0150312087625,-0.346886259844,0.00607616674751,0.00528076396157,-0.0450529741352,-0.451854031273,-5.49762296677,-0.755820631981,1.02418410778,0.0627735704184,-2.09668588638,0.0564227178693
2017/07/09/10:16:05.863024,495053,1499566568,669462463,,0.806757961637,0.218429526812,0.17653437973,0.714071347699,0.696055127294,0.0571802584995,0.0483713572413,0.00687871220313,-0.320228242145,0.00495828871351,-0.00192253742736,-0.0262211950677,-0.428646916093,-5.57880830765,-0.139870017767,0.864175975323,-0.111682206392,-2.13836669922,0.00303152948618
2017/07/09/10:16:05.873451,495054,1499566568,679468595,,0.807167268267,0.216094119681,0.176573529206,0.715229899419,0.694817274099,0.0575649199791,0.0485945118228,0.0147657097895,-0.27996259034,0.0114609558376,0.0173078993596,-0.0395752557847,-0.401125402134,-5.5697555542,-0.188640832901,0.80187702179,-0.0870795249939,-2.14527320862,0.0195103511214
2017/07/09/10:16:05.883183,495055,1499566568,689460146,,0.807215041199,0.212938086121,0.176495502147,0.716619476303,0.693386135152,0.0574364568659,0.0487159849038,0.0272418549645,-0.302398059085,0.0185960828342,0.0253043924098,-0.0729779099061,-0.441022652196,-5.69533967972,-0.28127348423,0.844082653522,0.0148178450763,-2.1905579567,0.0461318492889
2017/07/09/10:16:05.893770,495056,1499566568,699467735,,0.80760750997,0.210615002603,0.1773774891,0.71787271479,0.692024531656,0.0577052989891,0.0493042737984,0.0159302985942,-0.312014371411,0.000362915762295,-0.00650164465654,-0.0362923786946,-0.421608584323,-5.44160699844,-0.192903459072,1.31573307514,0.0640851482749,-2.11698937416,0.0572117194533
2017/07/09/10:16:05.903558,495057,1499566568,709463662,,0.807686176225,0.207041372518,0.176228179177,0.719651463404,0.690191746342,0.0576419724189,0.0491378420121,0.0207907938214,-0.300350425725,0.00152995645543,-0.0063069666625,-0.0477547569272,-0.406075713689,-6.08990621567,-0.642309248447,0.905803799629,0.170151725411,-2.35809993744,0.0712930783629
2017/07/09/10:16:05.913206,495058,1499566568,719467683,,0.807742045138,0.204441067781,0.177028917903,0.720761006541,0.68901474693,0.0574983900225,0.0495599143241,0.013357604548,-0.316522875699,-0.012147752219,-0.0121889551352,-0.0241017852236,-0.405252479548,-6.25007152557,-0.261303842068,1.1344615221,0.146651595831,-2.43658447266,0.0661365538836
2017/07/09/10:16:05.923377,495059,1499566568,729461868,,0.808301077108,0.202301469541,0.177146184218,0.721648723711,0.688032209912,0.0577819815527,0.0499603872969,0.019902261035,-0.29663634409,0.0182891224937,-0.0150929125462,-0.0511760770584,-0.381737319027,-7.05977058411,-0.194346040487,1.23046851158,0.117493316531,-2.80822229385,0.063959300518
2017/07/09/10:16:05.933395,495060,1499566568,739474294,,0.808324711608,0.199205899098,0.176702538377,0.723002077666,0.686610328623,0.0577130660469,0.050034531344,0.0188716531363,-0.298075249838,0.00218337171946,0.0219353196334,-0.0341301629461,-0.422809891864,-7.08114528656,-0.05337356776,0.855370402336,-0.0192854776978,-2.83538842201,0.0132960230112
2017/07/09/10:16:05.943318,495061,1499566568,749469371,,0.808768902004,0.196940871313,0.177190593289,0.724377520622,0.685099044301,0.0583281533569,0.0501431315535,0.023538536815,-0.274229376642,-0.00238243522121,0.0344121685672,-0.0353506938718,-0.386024699237,-6.93501901627,-0.00986153632402,0.975266933441,0.021459184587,-2.78741264343,0.036416888237
2017/07/09/10:16:05.953440,495062,1499566568,759466131,,0.808827597195,0.193719803457,0.17693770564,0.725898068312,0.683505790087,0.0580155497629,0.0502595794399,0.0343272558224,-0.27741641544,0.00387763693065,0.0240630733367,-0.0608493015361,-0.394263784208,-7.28012275696,-0.385346442461,1.2060559988,0.146463990211,-2.97371482849,0.0769794732332
2017/07/09/10:16:05.963194,495063,1499566568,769464021,,0.809125526383,0.190714504638,0.176556184835,0.727118155493,0.682186421491,0.0580063884471,0.050558215797,0.0385783180344,-0.284547086112,0.01038346981,0.0246895571794,-0.0691117936387,-0.418099649096,-7.5181851387,-0.488715916872,0.77255988121,0.20701110363,-3.12279963493,0.0887929797173
2017/07/09/10:16:05.973275,495064,1499566568,779474585,,0.809681192534,0.187873306564,0.176602828803,0.7285339637,0.680632677228,0.0581345009314,0.0509686396457,0.0381035879562,-0.276222873775,-0.000350847648795,0.0129172937129,-0.0573716442099,-0.376206195361,-6.89061546326,-0.461301028728,0.391671359539,0.29999089241,-2.9540040493,0.126475274563
2017/07/09/10:16:05.983429,495065,1499566568,789464456,,0.810028041455,0.184880840589,0.176875403152,0.729616047558,0.679428295146,0.0581311844901,0.0515594830311,0.0426910492638,-0.287222326075,-0.00650294067563,0.0015903678073,-0.0596736302209,-0.390226318402,-7.14001989365,-0.658163607121,0.53156208992,0.253154009581,-3.00069069862,0.115505345166
2017/07/09/10:16:05.993463,495066,1499566568,799474326,,0.810235982242,0.182478107958,0.176679305538,0.730828021173,0.678116387698,0.0583063516059,0.0514678304011,0.0464319013005,-0.297578965965,-0.013677368358,-0.00938569471044,-0.0668160206052,-0.396927214646,-7.79668140411,-0.512147068977,0.547021090984,0.316218525171,-3.26414585114,0.129601925611
2017/07/09/10:16:06.003021,495067,1499566568,809463691,,0.810595219951,0.180314693767,0.17604341174,0.732287023165,0.676543274714,0.0584304645428,0.0512912658959,0.055760000615,-0.283672693125,-0.000781168450149,-0.00070738245535,-0.0846427303227,-0.402528417185,-8.11806964874,-0.376759558916,0.49843788147,0.353042781353,-3.41781520844,0.146245390177
2017/07/09/10:16:06.013380,495068,1499566568,819473456,,0.811611807489,0.17802130291,0.176635237987,0.733207407915,0.675425685037,0.0590993216355,0.0520990513588,0.0587040623382,-0.267645387099,0.000593503447504,0.021897363537,-0.0804535033783,-0.393325576571,-8.1604385376,-0.121581099927,0.454327523708,0.264353454113,-3.50253605843,0.145408213139
2017/07/09/10:16:06.023356,495069,1499566568,829461975,,0.811982086663,0.175221743003,0.175821903132,0.734424372448,0.674121307249,0.0589733978715,0.0519946402219,0.0571583444105,-0.258491317565,-0.0189023164346,0.0194519475582,-0.0588717062894,-0.361654733307,-7.5604724884,-0.110420823097,0.256843745708,0.237230420113,-3.34799909592,0.116269007325
2017/07/09/10:16:06.033200,495070,1499566568,839468929,,0.813035439062,0.172014431291,0.176515925443,0.735756858644,0.672554162807,0.0594353854997,0.052916708137,0.0516908091466,-0.27926978642,-0.024005143371,0.0134962719513,-0.0400988257879,-0.375721285763,-6.87281036377,-0.170013293624,0.182943329215,0.180702582002,-3.20545983315,0.121820509434
2017/07/09/10:16:06.043109,495071,1499566568,849461849,,0.812975389993,0.170132890337,0.17545185305,0.737023840363,0.671256247188,0.0590836244769,0.0521539515807,0.0553171173193,-0.273811167026,-0.0133143898915,0.00958206740397,-0.0476107388606,-0.365989015413,-7.57248449326,-0.283040672541,-0.291930198669,0.201711803675,-3.52328300476,0.120997980237
2017/07/09/10:16:06.053295,495072,1499566568,859465980,,0.814055360059,0.167607547717,0.175541873683,0.737790796507,0.670292471666,0.0597230222391,0.0529707809259,0.0713983389793,-0.255662919664,-0.0135576067304,0.0159175057788,-0.0787697515081,-0.339870573921,-7.5046453476,-0.281525731087,-0.30348059535,0.17353618145,-3.49518656731,0.114518657327
2017/07/09/10:16:06.063022,495073,1499566568,869462736,,0.814730600513,0.16400260782,0.175699976249,0.739505733737,0.668351533972,0.0597458403923,0.0535530705294,0.0783734722942,-0.273805067652,-0.00518843990963,-0.00657999919459,-0.0975921678877,-0.357057868829,-7.7711057663,-0.387502998114,-0.165100798011,0.0987006947398,-3.6104631424,0.118905439973
2017/07/09/10:16:06.073137,495074,1499566568,879469461,,0.815422238857,0.162740499785,0.175121650336,0.739955764216,0.667864183007,0.0598766170123,0.0532699802445,0.061517298127,-0.268736699807,-0.0332367001678,0.00947132696342,-0.0379813884506,-0.377931332001,-7.0066318512,0.118269890547,0.124322466552,0.0647038444877,-3.21007037163,0.121206089854
2017/07/09/10:16:06.083168,495075,1499566568,889461961,,0.81648041615,0.159956053442,0.175771290278,0.74108769604,0.666497866662,0.0601325849099,0.0543478862964,0.0645792046069,-0.245055447507,-0.0310937060123,-0.00912063234543,-0.0324735790864,-0.32093680821,-6.87608861923,-0.464864522219,-0.06658064574,0.309816867113,-3.19707560539,0.208649784327
2017/07/09/10:16:06.093222,495076,1499566568,899463825,,0.816782451849,0.157222953557,0.175399693099,0.742368662015,0.665107157635,0.0598106302235,0.0542579674665,0.0596205165936,-0.276893731941,-0.0293092945654,-0.043754466401,-0.0138095656299,-0.337541292837,-7.03105068207,-0.443376988173,-0.222477436066,0.203889384866,-3.22416639328,0.137398391962
2017/07/09/10:16:06.103172,495077,1499566568,909465448,,0.816207879954,0.154965886898,0.173535657814,0.743084871929,0.664507634452,0.058144253257,0.0536071140603,0.0390798351879,-0.252256761408,-0.0448265860596,-0.0446714128726,0.0557846855288,-0.288019268839,-6.94514846802,-0.343904316425,-1.05287051201,0.27948319912,-3.18853473663,0.179139122367
2017/07/09/10:16:06.113356,495078,1499566568,919464804,,0.817168965701,0.152808717461,0.173852541839,0.744023154935,0.66340915024,0.0583293940236,0.053995611777,0.0395697558775,-0.253726749119,-0.048665302951,-0.0626076056259,0.0617661062632,-0.274608266008,-6.82250070572,-0.435692489147,-0.631013214588,0.181130692363,-3.1843752861,0.122003614902
2017/07/09/10:16:06.123370,495079,1499566568,929459258,,0.817276579707,0.149845088598,0.173370785982,0.745059508273,0.662313182825,0.057402485575,0.0541528543812,0.0345471237713,-0.264743860612,-0.0422446333756,-0.0740651169914,0.0785203939748,-0.289481443166,-6.80327177048,0.0944574773312,-0.442960649729,0.0831179767847,-3.20445942879,0.112171024084
2017/07/09/10:16:06.133399,495080,1499566568,939476331,,0.8178895585,0.14774896103,0.172566414312,0.745930202839,0.66138821658,0.0569924354435,0.0539038195749,0.0386454482698,-0.275874277024,-0.0459182117163,-0.0656030997079,0.0798810663804,-0.306014742351,-6.97718477249,0.249789059162,-0.456073313951,-0.00897482782602,-3.28670787811,0.093193307519
2017/07/09/10:16:06.143400,495081,1499566568,949462903,,0.818051269623,0.144890941891,0.172336920845,0.746735576122,0.660524771191,0.0562537869998,0.0541157781457,0.0206045753927,-0.270288759861,-0.0623799675769,-0.0642449442063,0.127404877108,-0.310282466217,-7.1566529274,0.357087492943,-0.212035834789,0.00190072506666,-3.32359004021,0.129977598786
2017/07/09/10:16:06.153249,495082,1499566568,959467498,,0.817973668975,0.142550970275,0.171108601634,0.747719451748,0.659536788333,0.0551897086301,0.0536744107926,0.0240143585162,-0.24860176216,-0.0632334153006,-0.0598667632561,0.13337086334,-0.292963318426,-5.94535112381,0.0740306377411,-0.399440348148,-0.0678537860513,-2.82205367088,0.0786401182413
2017/07/09/10:16:06.163122,495083,1499566568,969462130,,0.818374329768,0.139660658503,0.170861512929,0.748483646999,0.6587302432,0.0541566687445,0.0539791820908,0.0192138263928,-0.261996869725,-0.066114350324,-0.0994305883924,0.152078308521,-0.279668899469,-5.23899555206,-0.0872718319297,-0.197057619691,0.025886144489,-2.5627822876,0.0902236551046
2017/07/09/10:16:06.173454,495084,1499566568,979485324,,0.818671172528,0.137448780201,0.170438117705,0.749360766704,0.657792863606,0.0533884180375,0.0540061730989,0.0179628903529,-0.270296006583,-0.0527332955345,-0.0899517428605,0.152847187049,-0.283450467648,-4.90588378906,-0.448081284761,-0.0390106067061,0.222745150328,-2.42098784447,0.174727290869
2017/07/09/10:16:06.183373,495085,1499566568,989460834,,0.818414024238,0.134767884181,0.169597767795,0.750420983403,0.656751419218,0.0521321743063,0.0531804233333,0.0128378270712,-0.268786461108,-0.0602965247466,-0.106640574886,0.176898109876,-0.271275417246,-4.12607908249,-0.178192481399,-0.567858397961,0.121491342783,-2.16007399559,0.110379330814
2017/07/09/10:16:06.193418,495086,1499566568,999468775,,0.818649658015,0.133143096616,0.168782579157,0.751105163891,0.656069555249,0.0511936979062,0.0528486210453,0.0101260649615,-0.266794843256,-0.0519443263911,-0.111964372794,0.196063199172,-0.283141634388,-3.58103442192,0.158162921667,-0.851418554783,0.12989936769,-1.9858751297,0.142866522074
2017/07/09/10:16:06.203358,495087,1499566569,9469239,,0.818713927687,0.130259566957,0.168601878908,0.752307157871,0.65477124414,0.0502383108207,0.0527699743115,0.000808386125994,-0.253181305938,-0.0689792716694,-0.0864268045416,0.221774395536,-0.277669785462,-3.39278411865,-0.503155589104,-0.647031247616,0.148623600602,-1.93622398376,0.101144261658
2017/07/09/10:16:06.213335,495088,1499566569,19467289,,0.819105624841,0.127787193727,0.167973102679,0.753039959692,0.654005368624,0.0492813887335,0.0527175648385,0.0137280169885,-0.253503789856,-0.0499041662654,-0.0872921785222,0.183874727203,-0.28580509902,-2.55891346931,-0.258378446102,-0.64743989706,0.0609506294131,-1.58370840549,0.122391037643
2017/07/09/10:16:06.223257,495089,1499566569,29463688,,0.819241077627,0.124759669894,0.168196871959,0.753892833078,0.653099452808,0.0480178095758,0.05292438889,0.0165311390156,-0.249389548697,-0.0422325600491,-0.0872586292549,0.182867914965,-0.264009927494,-2.43483042717,0.188033163548,-0.174031347036,-0.244035005569,-1.50624394417,0.0302389226854
2017/07/09/10:16:06.233279,495090,1499566569,39459921,,0.819000887349,0.122972579294,0.1670135002,0.754833562086,0.652154576117,0.0469504400938,0.0521186969554,0.0166605337541,-0.233020551365,-0.0457033030577,-0.0688704092443,0.191369076106,-0.2513298433,-2.7211830616,0.161229670048,-0.171632021666,-0.0952695682645,-1.60860610008,0.0939686000347
2017/07/09/10:16:06.243360,495091,1499566569,49494574,,0.819978626542,0.120958025078,0.167380436338,0.755557982729,0.651307866895,0.0466631592747,0.0524666257862,0.0153392964282,-0.260194133097,-0.0395128248181,-0.110928938621,0.186669376677,-0.282231806673,-2.1765806675,-0.00217609107494,-0.0594191737473,-0.0269195139408,-1.34995257854,0.121093183756
2017/07/09/10:16:06.253110,495092,1499566569,59461538,,0.8196851382,0.117921567261,0.166659799957,0.756222534152,0.650683839513,0.0446263122651,0.0524071759401,0.015643530257,-0.261766877208,-0.0419638826248,-0.109869743619,0.188803791169,-0.289926964862,-1.88523292542,-0.274973839521,-0.361650824547,0.0232252217829,-1.20245540142,0.107020638883
2017/07/09/10:16:06.263460,495093,1499566569,69466755,,0.820016748335,0.115475559807,0.166094208976,0.757336113509,0.64944535209,0.0439143407105,0.052290309856,0.0231208626165,-0.273843723776,-0.035122661284,-0.145908692381,0.170388920281,-0.281607358249,-1.50479900837,-0.000248350203037,-0.704916596413,0.000970771536231,-1.04199910164,0.0797043442726
2017/07/09/10:16:06.273034,495094,1499566569,79467767,,0.820277838924,0.113402611755,0.166344079856,0.757717011726,0.64906593761,0.0426522048607,0.0525274042352,0.0259953780439,-0.25099645424,-0.033395176376,-0.132719836547,0.160161209261,-0.253813557862,-1.66665756702,-0.103607676923,-0.818909525871,0.0708450376987,-1.03971147537,0.122418552637
2017/07/09/10:16:06.283139,495095,1499566569,89463495,,0.820343341792,0.110808566657,0.165529109079,0.758861405747,0.647818179133,0.0416891123557,0.0521822916684,0.0179392823764,-0.239597397228,-0.026404347835,-0.129331346503,0.175957682258,-0.23157019548,-0.878653109074,-0.616568684578,-0.610919356346,0.0315638408065,-0.625439107418,0.0353256464005
2017/07/09/10:16:06.293291,495096,1499566569,99467850,,0.820575503473,0.108259361477,0.165765351083,0.75956168621,0.64706421514,0.040449559235,0.052323794629,0.01390070064,-0.238168380581,-0.0357526702302,-0.102706221057,0.19441225327,-0.264776411425,0.0431412309408,-0.500561535358,-0.368973821402,0.0205634608865,-0.209530338645,0.0280431322753
2017/07/09/10:16:06.303306,495097,1499566569,109463052,,0.819970798999,0.106372928651,0.164670509456,0.760326640841,0.646350101596,0.0387090039033,0.0513474284668,0.00795469654756,-0.245329745644,-0.0266076034704,-0.117465934119,0.206681897026,-0.25796286125,-0.284773439169,-0.206930398941,-0.367328166962,-0.0190833881497,-0.277300596237,0.0217345561832
2017/07/09/10:16:06.313261,495098,1499566569,119466257,,0.820459111442,0.104939228044,0.164847564824,0.7609359639,0.64568347187,0.0383778020269,0.0509554443528,-0.00686605680536,-0.242655710547,-0.043819118894,-0.109964668429,0.24233120971,-0.260627250226,0.0634137690067,0.096089810133,0.0709696412086,0.0453789755702,-0.201874747872,0.054324388504
2017/07/09/10:16:06.323271,495099,1499566569,129470353,,0.82100821945,0.102186839435,0.165007502611,0.76188230935,0.644589455614,0.0373292555923,0.0514422694722,0.0158710262859,-0.226627690575,-0.0117729092812,-0.0799925133327,0.185718461438,-0.269836776354,0.932121992111,0.0637179836631,0.162259891629,0.00331613514572,0.0631831884384,0.0104968762025
2017/07/09/10:16:06.333264,495100,1499566569,139468801,,0.821423830084,0.100484821066,0.165238419122,0.762709444594,0.643665623391,0.0367616568936,0.0511610102958,0.0083937205151,-0.2278957304,-0.0270471770724,-0.0899232811331,0.212286925865,-0.272610325554,1.44549810886,0.00491396896541,0.254122614861,-0.0492201857269,0.244377866387,-0.0119531732053
2017/07/09/10:16:06.343151,495101,1499566569,149467285,,0.820980856377,0.0980444896175,0.164440227865,0.763678488928,0.642658787517,0.0353650217146,0.0503404769039,0.0163039351398,-0.241877106723,-0.0114692063194,-0.109111994443,0.186120114923,-0.278344083224,1.46932697296,0.0114617310464,-0.531109392643,-0.0942874476314,0.319076150656,-0.0241920612752
2017/07/09/10:16:06.353498,495102,1499566569,159459392,,0.821417029038,0.0961238297155,0.163818229999,0.764538745039,0.641692133567,0.0344286254566,0.0502631356113,0.00583827546109,-0.235872188484,-0.0284275602198,-0.0658641092226,0.200982020129,-0.285215957606,1.38404762745,-0.0529106780887,-0.870624125004,-0.0524567216635,0.287355333567,-6.08668196946e-05
2017/07/09/10:16:06.363241,495103,1499566569,169458561,,0.82102717159,0.0930263268454,0.163650526064,0.765677974433,0.640429766344,0.0328107762674,0.0501039600185,0.0141108048879,-0.205910545114,-0.0158457015373,-0.0636832129267,0.181903727494,-0.261932389103,0.773699343204,-0.404880970716,-0.38389056921,-0.0659022927284,0.213029533625,-0.003890927881
2017/07/09/10:16:06.373339,495104,1499566569,179491511,,0.82115537108,0.0913186189282,0.163536162441,0.766575095196,0.639428945846,0.0321338560399,0.0496050595716,0.0171321432147,-0.202623490511,-0.0109672038641,-0.0463319498264,0.164761246866,-0.265952337618,0.890053868294,-0.44039773941,0.286462277174,-0.0478440225124,0.283062696457,0.00474268291146
2017/07/09/10:16:06.382977,495105,1499566569,189461578,,0.821222947277,0.0897090967853,0.163131242675,0.76741329521,0.638505055183,0.0315989003344,0.0488839271988,0.0121377118588,-0.200581881553,-0.00980794117423,-0.0408683462283,0.174567110208,-0.276220408663,1.77384245396,0.0158511810005,0.317465871572,-0.188858911395,0.589943826199,-0.0248667858541
2017/07/09/10:16:06.393323,495106,1499566569,199459932,,0.82128812203,0.0881107706971,0.162947372173,0.767624449664,0.638318853507,0.0303664335403,0.0487814027053,0.0143415383052,-0.208859177408,-0.00783247621439,-0.048680966066,0.158851664413,-0.269096003722,2.7581653595,0.146288141608,-0.417779326439,-0.107718914747,0.97298425436,-0.0427721068263
2017/07/09/10:16:06.403141,495107,1499566569,209480799,,0.821484281672,0.0857311548703,0.162865906123,0.769071481587,0.636629650987,0.0298464322204,0.0483832013979,0.0103016805615,-0.203506888871,-0.00627075211745,-0.0545674801147,0.167453709312,-0.275317486164,2.3313536644,-0.84003508091,0.0235201753676,0.127107650042,0.793690621853,-0.00170184485614
2017/07/09/10:16:06.413366,495108,1499566569,219461338,,0.821735993444,0.0844124887387,0.163371880325,0.769543091834,0.636102020035,0.0292999939414,0.0481576605873,0.00519032374452,-0.188721606086,-0.0134910863584,-0.0561607321261,0.189170244168,-0.248252822506,2.86230874062,-0.59424072504,0.160540610552,0.15858310461,0.955861628056,0.0207276567817
2017/07/09/10:16:06.423202,495109,1499566569,229470912,,0.821824089724,0.0827407822592,0.163111949315,0.770245198788,0.63531301221,0.0283693991299,0.0479049836066,0.00417189852881,-0.195916966781,-0.00622961489031,-0.0351863387649,0.169658264412,-0.265404487304,3.09122729301,-0.539956927299,0.376482635736,0.157418847084,1.04305183887,-0.0125845605507
2017/07/09/10:16:06.433587,495110,1499566569,239460480,,0.821761990809,0.080715698753,0.163138409489,0.770988949796,0.634469214465,0.0274878242869,0.0476369048585,0.00341991350956,-0.185910882624,-0.019724400592,-0.0120878000906,0.171462812275,-0.267298566712,3.88037014008,-0.410033226013,0.256956279278,0.104730524123,1.37084054947,-0.028061427176
2017/07/09/10:16:06.443077,495111,1499566569,249462230,,0.821905021297,0.0791643417665,0.162654392862,0.771757521032,0.633597400626,0.026852030251,0.0471553933496,0.00327454865795,-0.184487543975,-0.0122784843516,-0.0221918228803,0.166813531603,-0.277719485879,4.58397960663,-0.323387056589,0.357286900282,0.0869467407465,1.62797796726,-0.067789837718
2017/07/09/10:16:06.453318,495112,1499566569,259466947,,0.822535774052,0.077396417644,0.162784103019,0.77288612239,0.63222746669,0.0270698712407,0.0469328696252,0.0156779789379,-0.175544925829,-0.00336575680565,-0.0270580309344,0.12701915777,-0.259132290858,4.15558719635,-0.856368362904,0.884036540985,0.264652431011,1.52586531639,-0.00388337112963
2017/07/09/10:16:06.463178,495113,1499566569,269459675,,0.822748609368,0.0760410117426,0.162764597549,0.773557621744,0.631439349042,0.0265999622076,0.0467482227928,0.0286147252172,-0.155877559801,-0.00598782748418,0.0142597670402,0.0956750946497,-0.256936619266,5.52592849731,-0.950817406178,0.627036035061,0.307348072529,2.09581208229,-0.0250961240381
2017/07/09/10:16:06.473286,495114,1499566569,279464388,,0.822366845935,0.0743860858722,0.162604256273,0.774581153001,0.630279450544,0.0257471082647,0.0459231755621,0.022193098695,-0.179700634524,0.00183027249414,0.0206871668598,0.0814475121299,-0.27833759051,5.11613035202,-0.715143501759,0.342024922371,0.306841939688,1.92824578285,-0.0122763495892
2017/07/09/10:16:06.483180,495115,1499566569,289460380,,0.822520641469,0.0732676862492,0.162478279756,0.775137734617,0.629651388979,0.0255493984562,0.0452531652813,0.0161507420187,-0.148441852283,-0.000594216604783,0.0519653781774,0.103137461691,-0.274180047933,4.94396543503,-0.414451658726,-0.0234674811363,0.151960223913,1.86389935017,-0.0224947128445
2017/07/09/10:16:06.493298,495116,1499566569,299466750,,0.822605793709,0.071978136229,0.162513862467,0.775878669411,0.628781097276,0.0250622811407,0.0449277656359,0.016290211397,-0.164624804219,0.00800050657939,0.0299102308513,0.0891965855227,-0.285976523576,5.79165077209,-0.423080921173,0.364226698875,0.238970592618,2.1701862812,-0.050536416471
2017/07/09/10:16:06.503060,495117,1499566569,309461999,,0.82276266238,0.0699356797972,0.162769434701,0.777014120091,0.627403170136,0.0249488006442,0.0446304450916,-0.00276766623693,-0.162759054822,0.00506613211774,0.056499758816,0.12362057978,-0.290878470615,6.20910739899,-1.06482386589,0.409670382738,0.378519117832,2.28445744514,-0.0270226672292
2017/07/09/10:16:06.513346,495118,1499566569,319480128,,0.822891748888,0.0681128834173,0.163106298268,0.777813500906,0.626433143316,0.0245440390748,0.0445563116725,-0.017034418756,-0.164505487777,-0.0107911567758,0.0673150411004,0.155012275238,-0.302875178392,7.85247898102,-1.33120989799,0.864335238934,0.418975263834,2.90199661255,-0.0728199705482
2017/07/09/10:16:06.523440,495119,1499566569,329459954,,0.82271292822,0.0668952214003,0.162869633441,0.778859825125,0.625203361625,0.0245956010907,0.0435107552849,0.00472093435303,-0.150828869416,0.000648967199384,0.07840350778,0.0921326076414,-0.285900669981,9.34300708771,-1.25662517548,0.972413897514,0.468385696411,3.47525048256,-0.06441295892
2017/07/09/10:16:06.533329,495120,1499566569,339470850,,0.82260505954,0.0661102980652,0.162420356389,0.779549801667,0.624413530533,0.0244187889205,0.0425860582353,-0.00194325330034,-0.1199822441,-0.0123727151792,0.112256592754,0.112516529975,-0.260028585787,8.96295166016,-0.970358669758,0.735989511013,0.294948846102,3.31430411339,-0.107570834458
2017/07/09/10:16:06.543434,495121,1499566569,349487064,,0.822179062434,0.0640651618716,0.161940315078,0.780775536881,0.622946498818,0.0239623921394,0.0418691339887,0.00602640629399,-0.125582539718,-0.00754461734939,0.101352063033,0.0813996262802,-0.247707176975,7.25994110107,-1.40913724899,0.186293810606,0.446596503258,2.68496131897,-0.0567170232534
2017/07/09/10:16:06.553367,495122,1499566569,359460648,,0.822335232468,0.0624289784369,0.162629003412,0.781499746993,0.622041068674,0.0239922972071,0.0418022009817,0.00241475359166,-0.138343630273,-0.00447928127632,0.083578742619,0.067523106821,-0.27239144235,7.57317256927,-2.27683734894,0.842600226402,0.739210367203,2.86237478256,-0.00252421945333
2017/07/09/10:16:06.563331,495123,1499566569,369474537,,0.822482781186,0.0614564536152,0.162206435094,0.7820312173,0.621409310848,0.0239367308225,0.0412877279181,-0.0027691403451,-0.146807928671,-0.0111581918374,0.0673771304364,0.0732947698798,-0.261302767321,7.87217092514,-2.10209941864,0.541353523731,0.751191318035,3.02803421021,-0.0200517214835
2017/07/09/10:16:06.573220,495124,1499566569,379466074,,0.822582629574,0.0602911213633,0.162305081105,0.782811324364,0.620450745737,0.0240627478091,0.0408446658684,-0.000318584203216,-0.131438549253,-0.00762572931447,0.0749736997433,0.070436696074,-0.229754908267,7.29140377045,-1.98996138573,0.796335637569,0.66687220335,2.83497714996,-0.0100650303066
2017/07/09/10:16:06.583311,495125,1499566569,389462950,,0.821830572013,0.0587030963574,0.161635264246,0.7837088592,0.619407651169,0.0233305074786,0.0398782284731,-0.0280379374266,-0.148362757158,-0.0253742608577,0.067225252984,0.125485874654,-0.251436041746,7.20649576187,-1.64944446087,0.4502158463,0.544020414352,2.76663899422,-0.0331945568323
2017/07/09/10:16:06.593244,495126,1499566569,399462851,,0.821657443604,0.0576116232834,0.161861294356,0.784401320696,0.618559328362,0.0231292462064,0.0395469765783,-0.0295327839186,-0.136906751947,-0.0249219779993,0.0735251880859,0.122374219232,-0.239521016535,7.20359039307,-1.1985014677,0.853411018848,0.374852269888,2.79529380798,-0.0550383031368
2017/07/09/10:16:06.602992,495127,1499566569,409469884,,0.82150917337,0.0559985692207,0.161515049444,0.785228835426,0.61754622381,0.0230356428402,0.0390089301735,-0.0280628212168,-0.119382556978,-0.0180089520844,0.0856392478564,0.114275718171,-0.224463151662,8.91793441772,0.00610597245395,0.703813016415,0.148515760899,3.41128730774,-0.114832736552
2017/07/09/10:16:06.613341,495128,1499566569,419464808,,0.820995060108,0.0541181855828,0.161127817316,0.786115947997,0.616456024476,0.0223627779845,0.0387761828105,-0.0398888522703,-0.13933834853,-0.0384433569237,0.0726576021364,0.137487296908,-0.244518511288,8.39772319794,-0.440229177475,0.684941649437,0.298794806004,3.20119047165,-0.10994823277
2017/07/09/10:16:06.623073,495129,1499566569,429460561,,0.82036762633,0.0533328282088,0.160546308264,0.786828716222,0.615629924486,0.0220070431699,0.0376305388886,-0.0479378185176,-0.175668966744,-0.0344381196715,0.0280254637263,0.127479939159,-0.289184286526,7.92695856094,-0.790357708931,0.904418647289,0.379272431135,3.06735563278,-0.0930842384696
2017/07/09/10:16:06.633188,495130,1499566569,439467816,,0.820292682267,0.0517093858678,0.160314862014,0.787186505281,0.61517028481,0.0216792767533,0.0378541351741,-0.0469362199515,-0.156246936478,-0.0337626551591,0.0187926307596,0.127949848202,-0.249194117303,7.70937395096,-0.724633812904,0.900037109852,0.31591540575,2.97390294075,-0.097002774477
2017/07/09/10:16:06.643349,495131,1499566569,449477637,,0.8192226211,0.0505922542772,0.159463302185,0.787989949124,0.614249412385,0.0206896445953,0.0366256477262,-0.0594839226783,-0.147983283076,-0.0561125769763,0.0396617788445,0.163961176658,-0.231465039765,7.18505525589,-0.612656652927,0.850069999695,0.213464349508,2.72750973701,-0.0994597375393
2017/07/09/10:16:06.653297,495132,1499566569,459463631,,0.818858552391,0.0497137394722,0.158735574916,0.788358093522,0.613828249949,0.0203323258024,0.0359582044877,-0.0663665900267,-0.148473798158,-0.0660520451161,0.0342496744329,0.175424158873,-0.214305562736,7.29890441895,-0.632842421532,0.722195148468,0.198094040155,2.78852939606,-0.122048810124
2017/07/09/10:16:06.663201,495133,1499566569,469466952,,0.818223309965,0.047490945791,0.15846619011,0.789235628566,0.612717951727,0.0195877815786,0.0360576350607,-0.0709377723616,-0.153530806716,-0.0617622332415,0.0217767714826,0.176951335032,-0.218283152429,7.76281833649,-0.660303592682,0.749913215637,0.248126223683,2.97762799263,-0.110808089375
2017/07/09/10:16:06.673220,495134,1499566569,479468889,,0.817369244064,0.0463533127988,0.157174636125,0.789541164065,0.612407419282,0.0187507677094,0.0350758002793,-0.073799281859,-0.175948392222,-0.0652188088308,-0.0173965128817,0.167649020973,-0.209606083917,7.31570911407,-0.667248189449,0.718548595905,0.269326806068,2.82959342003,-0.0918579772115
2017/07/09/10:16:06.683136,495135,1499566569,489460374,,0.817267019854,0.0446819193437,0.156976073147,0.790409667233,0.611283323403,0.0185738423049,0.0352174510221,-0.071185548484,-0.174190870357,-0.064554704135,-0.0235481876143,0.160807431771,-0.209645703636,6.69801044464,-0.992139160633,0.666951596737,0.499281972647,2.63366627693,-0.0658152103424
2017/07/09/10:16:06.693294,495136,1499566569,499470876,,0.816633691738,0.0427542218032,0.156108130387,0.791139034109,0.610374631977,0.0183110945141,0.0347353014326,-0.0661207513858,-0.185839423885,-0.0783392615146,-0.0129866164227,0.13085189822,-0.231763063419,5.78975152969,-1.82049489021,0.720012843609,0.92778724432,2.30653715134,0.00517584709451
2017/07/09/10:16:06.703083,495137,1499566569,509462940,,0.815320597195,0.0409556830426,0.15500931287,0.791970694628,0.609372348097,0.0172640667747,0.0339074066195,-0.064619048254,-0.178961949122,-0.088676280464,-0.00113236435116,0.116226440348,-0.239350968086,4.17808914185,-2.43835306168,0.723760664463,1.26038181782,1.68050563335,0.0814359635115
2017/07/09/10:16:06.713200,495138,1499566569,519468005,,0.814788383256,0.0394051194855,0.153871626746,0.792481451168,0.608735082578,0.0167632167993,0.0336711056378,-0.0700370558446,-0.179616018429,-0.0930474256466,0.0124703021848,0.120515221391,-0.231678594939,4.17743301392,-2.645870924,1.00295138359,1.35063290596,1.74268293381,0.0791487470269
2017/07/09/10:16:06.723355,495139,1499566569,529463242,,0.814402587006,0.0377184756737,0.15307025914,0.792976310742,0.608103929975,0.0166124768521,0.0334993516926,-0.0610854199503,-0.144244243277,-0.0915485229874,0.0172851693775,0.109049163106,-0.174785055388,4.33174848557,-2.12183666229,1.00397229195,0.972429096699,1.85628283024,0.0132474042475
2017/07/09/10:16:06.733204,495140,1499566569,539498007,,0.813679636667,0.0364754210125,0.151866422209,0.793516404104,0.607438743784,0.0159802910301,0.0330835195737,-0.0486859941978,-0.148241139337,-0.0795970027954,0.0166617419888,0.0707335970673,-0.170541930305,4.49375581741,-1.15074908733,1.07506752014,0.495389670134,1.96857273579,-0.0735685676336
2017/07/09/10:16:06.742945,495141,1499566569,549462992,,0.813023332527,0.0338280921893,0.151424985567,0.794261150674,0.606461924186,0.0155982278725,0.033314476269,-0.0631817451955,-0.15812680776,-0.0990177241134,0.0231817798373,0.0953395886585,-0.171796956676,6.34925270081,-0.741793513298,1.09873020649,0.14506238699,2.71530437469,-0.177981197834
2017/07/09/10:16:06.753026,495142,1499566569,559461804,,0.812613271909,0.0332427346038,0.150464554224,0.795019611793,0.605509186854,0.0160403273229,0.0323287704697,-0.0756951896553,-0.156772062791,-0.113346321433,0.0414755705872,0.124519311664,-0.208369828536,7.65846300125,-0.879968225956,1.08773720264,0.213320314884,3.2363114357,-0.222873046994
2017/07/09/10:16:06.763184,495143,1499566569,569460841,,0.811173258619,0.031383126808,0.148633330486,0.79537900668,0.605118643429,0.0146857518846,0.031432336841,-0.0922674756816,-0.152215830317,-0.120305380928,0.0686349039566,0.159732690822,-0.211559252927,7.41600751877,-0.971777319908,1.08214950562,0.245657011867,3.13978052139,-0.23702031374
2017/07/09/10:16:06.773353,495144,1499566569,579467856,,0.810448705401,0.0304842414335,0.147854693958,0.795460912616,0.605057109024,0.014523198513,0.0306089533404,-0.0877775880344,-0.167144373172,-0.106877417032,0.00667536847127,0.14842676473,-0.167847184103,4.39974832535,-1.6971026659,0.623612999916,0.386880636215,2.06380057335,-0.173686802387
2017/07/09/10:16:06.783243,495145,1499566569,589459971,,0.809942046533,0.0288183103297,0.147438160271,0.795538717319,0.604959660775,0.0140113860795,0.0307512461958,-0.0848971917083,-0.160079016416,-0.100519540205,0.0315229185245,0.137032211131,-0.0751365864737,5.04102087021,-1.35602283478,1.07459378242,0.385043263435,2.26851439476,-0.176597714424
2017/07/09/10:16:06.793355,495146,1499566569,599464863,,0.80911534837,0.0276344879819,0.146560900521,0.795513608319,0.605037544518,0.0139745545156,0.0298727388772,-0.083353949044,-0.160127468611,-0.109018674541,0.0614066565112,0.127943104657,-0.0268083561591,5.77537965775,-1.95114719868,0.949748516083,0.581735134125,2.57920956612,-0.139052689075
2017/07/09/10:16:06.802986,495147,1499566569,609461798,,0.808457740585,0.0261718557497,0.14506939818,0.795568060557,0.60499730937,0.0136321838448,0.0293918396858,-0.0760803849,-0.141057220719,-0.10598186228,0.0780038130731,0.116089690669,0.0254398065407,5.73028278351,-2.10009384155,1.1886343956,0.631691813469,2.56877779961,-0.146309226751
2017/07/09/10:16:06.813136,495148,1499566569,619462027,,0.807536727819,0.024939014653,0.144099784787,0.795971615474,0.604519329669,0.0136540451773,0.0282689665017,-0.0734903454766,-0.142759102477,-0.0926313554017,0.0617457461408,0.109287677733,-0.010465907525,6.10950756073,-2.05431747437,0.889956355095,0.623954415321,2.70347285271,-0.12094154954
2017/07/09/10:16:06.823496,495149,1499566569,629471746,,0.806880985326,0.0234170556755,0.143416963362,0.796605257526,0.603712022856,0.0131201773306,0.0279234325902,-0.0804124790197,-0.134602789984,-0.0921828783415,0.0770059162733,0.117876501019,-0.0976577300367,6.02871513367,-2.28009533882,0.895762503147,0.613102555275,2.66018199921,-0.160788267851
2017/07/09/10:16:06.833341,495150,1499566569,639460484,,0.806276138185,0.0222720904672,0.142646356956,0.796955805182,0.603270718415,0.0132106899021,0.0274109934353,-0.0847136537407,-0.152163906588,-0.10022278454,0.0785336724555,0.119702931777,-0.187755596247,7.0797829628,-2.33680129051,1.15105509758,0.660782456398,3.05788707733,-0.172628074884
2017/07/09/10:16:06.843653,495151,1499566569,649461160,,0.805238950738,0.0206067245624,0.141478857878,0.797633273104,0.602413757212,0.0124456756059,0.0269059829327,-0.0870068461903,-0.151382172049,-0.105127651908,0.0716674609119,0.128607667086,-0.20317937533,6.80971097946,-2.28057956696,0.730749189854,0.669556260109,2.90603542328,-0.157711833715
2017/07/09/10:16:06.853297,495152,1499566569,659460144,,0.804012276739,0.0200307900616,0.139939649881,0.79799369518,0.60201578989,0.0119235051532,0.0253156315535,-0.0795235513996,-0.147867368957,-0.0896020052884,0.0500249161445,0.112524878186,-0.224532649271,7.05955171585,-1.33538579941,0.143614768982,0.411160588264,3.02877020836,-0.169795900583
2017/07/09/10:16:06.863278,495153,1499566569,669462734,,0.803892640769,0.0174183247275,0.139995615198,0.798829101725,0.600870224404,0.0122718187723,0.0260085010216,-0.0627871601224,-0.122015356943,-0.0903677756285,0.0747442851158,0.0869356615729,-0.183256665954,8.31661510468,-1.70584094524,0.876888692379,0.0839818567038,3.59296703339,-0.299628347158
2017/07/09/10:16:06.873274,495154,1499566569,679465338,,0.803674727137,0.0164125925457,0.139614599277,0.799568876457,0.599888802951,0.0124841109939,0.0258298832417,-0.0713944683356,-0.151854605696,-0.095040500686,0.0398517409,0.0893891208993,-0.193142866409,8.68715381622,-0.747215986252,1.81649136543,-0.180158168077,3.61946725845,-0.321783900261
2017/07/09/10:16:06.883207,495155,1499566569,689461439,,0.802978629969,0.0152131559528,0.138546757799,0.799828021992,0.599564982613,0.0119502397278,0.0255765250141,-0.0649523548601,-0.163040902292,-0.0733321282256,0.014679482232,0.0632287276036,-0.21449050295,9.04007053375,-0.72793841362,1.34897279739,-0.167385742068,3.76842594147,-0.30562838912
2017/07/09/10:16:06.893285,495156,1499566569,699459823,,0.802297943104,0.013216929452,0.137241504709,0.800622763815,0.598519701265,0.0117452953751,0.0252864646747,-0.0578956108088,-0.171430195974,-0.0721817039204,0.0109838899421,0.0321362096406,-0.220998596108,8.49378395081,-1.29907083511,0.858066499233,0.091818779707,3.53778719902,-0.271664321423
2017/07/09/10:16:06.903270,495157,1499566569,709470867,,0.802048505731,0.0113271190405,0.137005713402,0.801168334445,0.59776963494,0.0118685146837,0.0256885535884,-0.0519163520052,-0.165242070152,-0.0845070809313,0.0212293462627,0.0289053663943,-0.201078871632,8.1626033783,-2.62821483612,1.01349592209,0.583695590496,3.41292595863,-0.200465410948
2017/07/09/10:16:06.913379,495158,1499566569,719467897,,0.801994243329,0.0104875662718,0.136493424514,0.801540880674,0.5972667679,0.0123469511086,0.025537763592,-0.0426345989194,-0.172348951898,-0.0755018266145,0.00818349363196,-0.00514086024003,-0.21211106713,8.16497421265,-1.90506517887,1.49771666527,0.577184736729,3.37086796761,-0.206263512373
2017/07/09/10:16:06.923211,495159,1499566569,729462001,,0.801100580039,0.00856309589941,0.135401672218,0.802409391139,0.596124337471,0.0118464078718,0.025191385564,-0.0321598909097,-0.135757538199,-0.0722209284881,0.0353125225096,-0.0107559423682,-0.198550768193,7.029317379,-2.85395240784,1.12270367146,0.775659620762,3.0915954113,-0.182275861502
2017/07/09/10:16:06.933287,495160,1499566569,739464703,,0.800799301183,0.00707378700017,0.134464660249,0.803100410967,0.595196916918,0.0119990505031,0.0250276403817,-0.0477366690973,-0.159547488733,-0.0810297111455,0.0593671340718,0.00656657278189,-0.223353738353,6.9016494751,-2.32477164268,1.11193811893,0.680943310261,2.94780826569,-0.161477684975
2017/07/09/10:16:06.943599,495161,1499566569,749463593,,0.800842888922,0.00629748243617,0.134286831118,0.803321698452,0.594877746651,0.0123837890006,0.0253250292384,-0.0465071945985,-0.146526126816,-0.0759974175086,0.0451443931112,0.0183112293826,-0.197819923288,7.67775011063,-1.61042654514,1.45575213432,0.418356359005,3.24871087074,-0.219336137176
2017/07/09/10:16:06.953581,495162,1499566569,759468780,,0.79989506174,0.00389269009665,0.132946989014,0.804496188706,0.593316772759,0.0120858433037,0.0247996353298,-0.0492956257673,-0.139970988001,-0.0924302144106,0.0365308487159,0.0295648414499,-0.20574743117,7.07593107224,-2.70910620689,1.18959724903,0.517318248749,3.10607933998,-0.195728391409
2017/07/09/10:16:06.963562,495163,1499566569,769461637,,0.799559244638,0.00378719451786,0.132399502093,0.804554269862,0.593254893272,0.0118972167546,0.0244849890426,-0.0433716701765,-0.162650820709,-0.0802371740315,0.021782848045,-0.00162840239826,-0.240274899452,7.25522565842,-1.02121639252,1.20023798943,0.229456186295,3.05388689041,-0.240706413984
2017/07/09/10:16:06.973370,495164,1499566569,779469482,,0.799880789475,0.00193841062772,0.132205064999,0.805507549695,0.591924626331,0.0130144652389,0.0247678788444,-0.0269300218489,-0.125826640602,-0.0761740078889,0.0355717647604,-0.0154977307231,-0.188110748759,7.10964107513,-2.1802444458,1.23727822304,0.551647901535,3.00160121918,-0.159474566579
2017/07/09/10:16:06.983134,495165,1499566569,789463433,,0.799066835437,0.00120508718063,0.130799651546,0.805693765936,0.591707950525,0.0124248279298,0.0241843020885,-0.0287632714201,-0.14939300199,-0.0741985467065,0.0322989388186,-0.0335225115396,-0.207458348907,7.47071647644,-2.14537024498,1.00892221928,0.685586154461,3.08445644379,-0.144379884005
2017/07/09/10:16:06.993388,495166,1499566569,799461166,,0.797982823364,-0.000645465983568,0.129516229478,0.806466828719,0.590683604712,0.0121982123385,0.0235655875605,-0.0345544816702,-0.147904785628,-0.0735744342906,0.0175875867168,-0.0186185358855,-0.198028022333,7.10010051727,-2.68084096909,0.37359187007,0.840929031372,2.96008515358,-0.128493875265
2017/07/09/10:16:07.003245,495167,1499566569,809463823,,0.798642429649,-0.00188330711038,0.129755339262,0.806768547375,0.590216638629,0.0127959533292,0.0245986591116,-0.0437084947907,-0.142899153852,-0.0838847183381,0.0239297200457,0.00652969676348,-0.204973618979,6.97041416168,-2.45364117622,0.699953854084,0.740065217018,2.85646939278,-0.132545769215
2017/07/09/10:16:07.013459,495168,1499566569,819468631,,0.798386255523,-0.00267503106242,0.128745126759,0.807417705606,0.589341123496,0.0132582029513,0.0240397355425,-0.0221331186962,-0.131112748107,-0.074221052643,0.0140062041426,-0.0324895635842,-0.191675852858,7.33128499985,-2.12894010544,0.721060752869,0.650743305683,3.03413891792,-0.172827154398
2017/07/09/10:16:07.023149,495169,1499566569,829466075,,0.798156810284,-0.00449778429461,0.128209950175,0.807911368107,0.58864542191,0.0132909350283,0.0244773281374,-0.0281801844372,-0.146477932609,-0.0763086913369,0.0318307039912,-0.0387229609584,-0.194970201533,7.06008720398,-1.79262077808,0.99406260252,0.531126618385,2.92910718918,-0.166096955538
2017/07/09/10:16:07.033309,495170,1499566569,839464339,,0.797194144462,-0.00593940110913,0.127006680046,0.808574935471,0.587768925168,0.0129580505562,0.0237981776715,-0.0214717786318,-0.120862137809,-0.0824686415476,0.0512291639631,-0.0308700322557,-0.176649784348,7.09784507751,-2.15765571594,1.08109855652,0.576879024506,3.0000576973,-0.167352229357
2017/07/09/10:16:07.043127,495171,1499566569,849460859,,0.796624367161,-0.00711706888832,0.125780353118,0.809072060578,0.587102383027,0.0127462562646,0.0234675432896,-0.0248190405877,-0.13579406258,-0.0760670230849,0.0359203467249,-0.0337729659928,-0.189100963257,7.57201576233,-2.10543012619,0.465819001198,0.596760571003,3.2091755867,-0.176932632923
2017/07/09/10:16:07.053299,495172,1499566569,859472959,,0.796572805133,-0.00847423531465,0.125319003198,0.809762289374,0.586130737551,0.0130670000951,0.0237707112678,-0.0525118395642,-0.144479615582,-0.0847392481181,0.0350796196059,0.0192827256257,-0.205985284756,7.52398490906,-2.2479827404,0.878580272198,0.677826225758,3.16638541222,-0.158699959517
2017/07/09/10:16:07.063046,495173,1499566569,869468289,,0.796389997892,-0.0104333622604,0.125320989785,0.810124370809,0.585606662144,0.0134248232533,0.0241477782557,-0.0468639822818,-0.160723220782,-0.0846312360587,0.00657469435356,0.00258603591775,-0.172470646823,7.21600580215,-2.5928440094,1.14409315586,0.691873848438,3.05583167076,-0.163410604
2017/07/09/10:16:07.073339,495174,1499566569,879467886,,0.796103177171,-0.0108148318412,0.124031954916,0.810113289521,0.585638916975,0.0134961920304,0.0236932451671,-0.036223528692,-0.119864487786,-0.0793244869168,0.0417605256315,-0.00858938213781,-0.105629562305,7.46651363373,-2.07144141197,0.807554423809,0.546912431717,3.12103223801,-0.189159199595
2017/07/09/10:16:07.083246,495175,1499566569,889465202,,0.795327864936,-0.0125485322336,0.122921168901,0.811093678186,0.584297763628,0.0138294568303,0.0230632770884,-0.0303460057193,-0.126333385311,-0.0763278021962,0.0402061834984,-0.0238520178362,-0.130359299353,7.5199842453,-2.27671122551,0.319649457932,0.678353428841,3.191218853,-0.188652485609
2017/07/09/10:16:07.093344,495176,1499566569,899465393,,0.795394221745,-0.0135290317493,0.122478760484,0.81112336723,0.584239471045,0.0137210789563,0.0235553730092,-0.0312489241672,-0.118324886657,-0.0786313860091,0.046683277537,-0.0200482018694,-0.13934641523,7.9156498909,-2.48928594589,0.796377301216,0.855535745621,3.28972172737,-0.161284893751
2017/07/09/10:16:07.103236,495177,1499566569,909467037,,0.795145108902,-0.0153215509763,0.121582743014,0.811772954256,0.58331996467,0.0142271166777,0.0236659820555,-0.0250007004608,-0.114514177169,-0.0813084824541,0.0259702295276,-0.0263409813361,-0.143859814157,7.41678571701,-3.47395730019,0.957966387272,0.938535809517,3.21102046967,-0.194909334183
2017/07/09/10:16:07.113336,495178,1499566569,919464632,,0.794615052187,-0.0166650775057,0.121060085009,0.812187333877,0.582748915501,0.0138879223436,0.0237183849336,-0.0427772809548,-0.146412923809,-0.0781877961573,0.0239116242104,-0.0182134844738,-0.165289587149,6.63022565842,-2.76562976837,1.06598234177,0.833035588264,2.87777280807,-0.1911431849
2017/07/09/10:16:07.122983,495179,1499566569,929461336,,0.794379481959,-0.0169809256156,0.119863559374,0.812581901927,0.582209493659,0.0142182348819,0.0232508053842,-0.0405324555695,-0.133368769601,-0.0864987963049,0.0429908315554,-0.0146580188221,-0.193356018087,6.31106615067,-1.92433691025,1.10318362713,0.537648975849,2.67427945137,-0.194579824805
2017/07/09/10:16:07.133531,495180,1499566569,939476765,,0.793891994806,-0.0177216884875,0.119137632684,0.812799728569,0.581917984887,0.0140584644893,0.0230308419294,-0.0299471061851,-0.112017082919,-0.0746041982828,0.0466633488146,-0.0250203950532,-0.171248887221,5.15909194946,-1.20335292816,1.26964581013,0.279108464718,2.27006959915,-0.222069829702
2017/07/09/10:16:07.143473,495181,1499566569,949466191,,0.793291224702,-0.0200975301486,0.118648689644,0.813520272835,0.58089464499,0.0139167636795,0.0235053354975,-0.0349130831071,-0.119049881329,-0.0770766166723,0.026134209337,-0.0198558047203,-0.173276359253,4.80688858032,-2.15999221802,1.48380684853,0.381629824638,2.27176427841,-0.234487533569
2017/07/09/10:16:07.153375,495182,1499566569,959471917,,0.793599891613,-0.0210089878732,0.118203147724,0.814189643581,0.57993009517,0.0146742061499,0.0236849461826,-0.0436232839516,-0.1424236595,-0.0727403243304,0.00858677275686,-0.0222823266391,-0.179315442753,5.26990604401,-1.81149995327,1.3258254528,0.373807013035,2.31664776802,-0.22415587306
2017/07/09/10:16:07.163515,495183,1499566569,969468203,,0.793326026677,-0.0211395307275,0.118040383052,0.81420786507,0.579912894445,0.0153955963951,0.0230122342969,-0.0462433903506,-0.115477186503,-0.0793034554068,0.0739114554926,-0.00580327636387,-0.183892497937,5.95514535904,-1.56043899059,1.04700875282,0.36164188385,2.45686912537,-0.21547229588
2017/07/09/10:16:07.173368,495184,1499566569,979473987,,0.792448378355,-0.0229470460819,0.116583235713,0.814882559758,0.57898010071,0.0151962159217,0.0227493253896,-0.0407409719256,-0.0991687128781,-0.0729822362453,0.100176999145,-0.0198377992215,-0.150782724353,6.50236797333,-2.31483840942,1.06471788883,0.574640572071,2.76299333572,-0.180394753814
2017/07/09/10:16:07.183450,495185,1499566569,989468086,,0.792014226069,-0.0239528667157,0.11561964098,0.81569166964,0.577842096683,0.0156099220027,0.022404055811,-0.0375327676579,-0.100190155861,-0.0693514074772,0.0540740464754,-0.0204804863942,-0.146183007521,6.11964654922,-2.30909943581,0.895777583122,0.499971985817,2.61226677895,-0.211827665567
2017/07/09/10:16:07.193221,495186,1499566569,999466829,,0.791205370831,-0.0248806623962,0.114619896926,0.81565632522,0.577920723339,0.0149560582043,0.0221068538601,-0.0402473317327,-0.0899969886649,-0.0816165222404,0.0289910328185,0.0102794279327,-0.123730488934,4.79231309891,-1.9485026598,0.714556455612,0.26736047864,2.17343306541,-0.223768785596
2017/07/09/10:16:07.203103,495187,1499566570,9464486,,0.791385119085,-0.0249550477927,0.114704670209,0.816042122082,0.577356246173,0.0157475183712,0.0220688843947,-0.0474597684415,-0.109341409048,-0.0790198590079,0.0428650323791,0.00160350273717,-0.146369698849,3.88312911987,-1.17662549019,1.59018445015,0.297320604324,1.72116971016,-0.139610931277
2017/07/09/10:16:07.213276,495188,1499566570,19477912,,0.790943356263,-0.0270896055387,0.113992801289,0.816429910064,0.576790201453,0.0154980963606,0.0226952521536,-0.0538886960177,-0.0953891217711,-0.0806485244227,0.0746183420813,0.0172369270036,-0.150007483662,3.7796831131,-1.7155790329,1.75172162056,0.396154910326,1.67326748371,-0.125374674797
2017/07/09/10:16:07.223171,495189,1499566570,29459729,,0.789885566182,-0.0273692027092,0.112311663982,0.816697276017,0.576469905761,0.0153127879196,0.0212961410878,-0.0391092630862,-0.0927883403716,-0.072108008905,0.0221632826093,0.000803925216968,-0.106810846331,4.40562582016,-1.52096247673,1.02248990536,0.325341790915,2.00043320656,-0.146059080958
2017/07/09/10:16:07.233208,495190,1499566570,39465507,,0.790023493275,-0.0284000468429,0.112158032598,0.81721334313,0.575708253055,0.0159912890795,0.0216018019614,-0.0411569386113,-0.107770185766,-0.0734363083051,0.0314058064429,-0.00975310892912,-0.115764626826,5.00303936005,-1.51613986492,0.857712209225,0.33301204443,2.20832371712,-0.147878468037
2017/07/09/10:16:07.243039,495191,1499566570,49460623,,0.789398796534,-0.0289325644876,0.110610492531,0.817289437345,0.575628338374,0.0156971613359,0.0210615951862,-0.0384233794859,-0.0758459004582,-0.0878770515404,0.0379397979713,0.012123341042,-0.0862080065144,5.34888124466,-1.84167230129,0.198841482401,0.329635828733,2.43375778198,-0.191830396652
2017/07/09/10:16:07.253104,495192,1499566570,59468849,,0.789044246801,-0.0297551342225,0.11042381105,0.817864910544,0.574806335387,0.0159938687802,0.0209490110055,-0.0410032652175,-0.0959196456973,-0.0782511187935,0.0302208906865,-0.00070433834336,-0.135759714978,5.42368745804,-1.78062939644,0.690884292126,0.429697334766,2.33420205116,-0.12654414773
2017/07/09/10:16:07.263270,495193,1499566570,69459901,,0.78853266739,-0.0309197412273,0.109722573346,0.817949100104,0.574686773614,0.0159117728812,0.0210046984303,-0.0425848836167,-0.0897543591937,-0.0739826502764,0.055763148768,-0.00523942902572,-0.125377690428,4.07018661499,-1.93850719929,0.976994454861,0.383738040924,1.82848060131,-0.149664103985
2017/07/09/10:16:07.273341,495194,1499566570,79471108,,0.787709239286,-0.0313476998871,0.108634088757,0.818283124651,0.574243773717,0.0155626897125,0.0203621940677,-0.0472497454215,-0.0928838558254,-0.0749821936615,0.0361798371058,0.00576947728356,-0.115892178831,3.47093200684,-1.18505263329,0.997410953045,0.152169018984,1.53815972805,-0.173201352358
2017/07/09/10:16:07.283192,495195,1499566570,89467825,,0.787258182551,-0.0324228740477,0.107973008373,0.818719984881,0.573619063467,0.0154924009437,0.020463183959,-0.0521693344405,-0.0803919184219,-0.0769769689308,0.0322463519019,0.0299228102165,-0.105406483642,3.66021442413,-1.55828881264,1.12272274494,0.25676292181,1.57904016972,-0.120276376605
2017/07/09/10:16:07.293324,495196,1499566570,99467846,,0.787295402865,-0.0326214987594,0.107439952351,0.818799440532,0.573499395037,0.0158646605328,0.0203527055392,-0.0576829011357,-0.0681621987874,-0.0881764289693,0.0439022032548,0.0495619285258,-0.0935228351112,4.00538778305,-1.05475902557,0.985560834408,0.151875972748,1.74150121212,-0.17525523901
2017/07/09/10:16:07.303264,495197,1499566570,109467716,,0.786496360762,-0.0328934925455,0.106259044508,0.818945227298,0.573321143371,0.0158066537523,0.0195379360977,-0.0761554014373,-0.0878814963467,-0.0903126311635,0.0568021088335,0.0696495615981,-0.127399759117,4.2388343811,-1.45302689075,1.33556389809,0.342818647623,1.84946620464,-0.0994714424014
2017/07/09/10:16:07.313337,495198,1499566570,119466162,,0.785849321309,-0.034171744852,0.105955132141,0.819456149636,0.572600377392,0.0155779598982,0.0194358894906,-0.0534345876279,-0.0692181075089,-0.0791357466409,0.0621850367746,0.0337997710798,-0.0977114935785,4.27395343781,-1.8221411705,0.981556594372,0.482527166605,1.96038722992,-0.1203282848
2017/07/09/10:16:07.323303,495199,1499566570,129462307,,0.78539632099,-0.0348284401431,0.105327204741,0.819630324379,0.572356089117,0.0156673340617,0.0192138817718,-0.0782701529971,-0.0478741547846,-0.0974317030218,0.0782809324031,0.108089848593,-0.0849569468421,4.45878124237,-1.87794625759,1.33267688751,0.547675848007,2.02106380463,-0.107327781618
2017/07/09/10:16:07.333290,495200,1499566570,139468749,,0.784865888698,-0.0352562556833,0.104556818824,0.819756189924,0.572188691968,0.0155104900569,0.0189555944932,-0.0586154469823,-0.0667287987772,-0.0742097621824,0.0555946921246,0.043445588642,-0.0834499612337,4.48657178879,-1.68351519108,0.908848583698,0.472200244665,2.05142211914,-0.127230599523
2017/07/09/10:16:07.343620,495201,1499566570,149461857,,0.7844852746,-0.0364876441327,0.103822642501,0.82048085482,0.571145865122,0.0159231100549,0.0187088800725,-0.0546254489731,-0.0602793042649,-0.0771086019755,0.0671620486307,0.0382730664107,-0.102119816566,3.26328206062,-1.58364796638,0.998818159103,0.336940169334,1.51511442661,-0.154128655791
2017/07/09/10:16:07.353381,495202,1499566570,159462633,,0.78354884926,-0.0362474200811,0.102631134162,0.820763858102,0.570782279749,0.0157848655332,0.0174675807926,-0.0397783974852,-0.0546245656941,-0.0794656162755,0.0647784508438,0.019599453224,-0.0941309735755,2.86523866653,-1.13734614849,0.623980402946,0.226571887732,1.45518696308,-0.144783094525
2017/07/09/10:16:07.362888,495203,1499566570,169460349,,0.783659365624,-0.0370346784392,0.102168437784,0.820890141075,0.570582058058,0.0161045369824,0.0177801911361,-0.0561867557397,-0.0643804958831,-0.0859760843564,0.0805548679616,0.0393981503162,-0.12098315735,2.95692181587,-1.14938688278,0.753998160362,0.176626324654,1.3976213932,-0.171701684594
2017/07/09/10:16:07.373251,495204,1499566570,179464575,,0.782874658516,-0.0371760200678,0.101252098588,0.821122088605,0.570275504217,0.0158714051641,0.0171015611105,-0.0657946137178,-0.0529231343952,-0.0884063159803,0.104865740885,0.0563762954829,-0.102677526993,3.71797394753,-1.56905722618,0.72294652462,0.347904115915,1.66436207294,-0.13973492384
2017/07/09/10:16:07.383132,495205,1499566570,189459242,,0.782164757156,-0.037586942851,0.100219928499,0.821208428335,0.57017821602,0.0155409211608,0.0164923915204,-0.0638380647043,-0.047707260381,-0.0853868946143,0.0819258641895,0.0774512104765,-0.074379149705,4.45879650116,-1.2764787674,0.37980222702,0.313914597034,1.88043928146,-0.170790284872
2017/07/09/10:16:07.393118,495206,1499566570,199461617,,0.780967536015,-0.0384752573522,0.0994770477399,0.821604045234,0.569639648231,0.015160254314,0.015736286312,-0.0653585731855,-0.0220547056753,-0.0820487506598,0.0977627325398,0.0901237136027,-0.0579038990535,3.59772372246,-1.56525146961,0.54194778204,0.310631990433,1.61208486557,-0.160519957542
2017/07/09/10:16:07.403165,495207,1499566570,209462644,,0.780438421835,-0.0386354184355,0.0985376750452,0.821827729068,0.569327734313,0.0153189529052,0.0151803938848,-0.0742779047841,-0.0430696639675,-0.0940966609871,0.0853997992589,0.0969183585125,-0.0803344661927,3.32806324959,-1.49437296391,1.01780176163,0.233448386192,1.52773880959,-0.178759276867
2017/07/09/10:16:07.413244,495208,1499566570,219461082,,0.780044516963,-0.0386976647809,0.0979912346771,0.821915662581,0.569214802579,0.0153378692606,0.0146253853334,-0.0594572329304,-0.0246080510839,-0.091490408058,0.09675089105,0.070492065973,-0.0672662687361,2.88041090965,-1.15051651001,1.24688613415,0.259332299232,1.37227070332,-0.14960822463
2017/07/09/10:16:07.423571,495209,1499566570,229463410,,0.779649999496,-0.0389850354527,0.0968423276303,0.822094096507,0.568965952312,0.0154162901593,0.0141908278872,-0.0462638130304,0.00417484968586,-0.0866164744634,0.121471665761,0.0624370434819,-0.0286321503673,3.08404564857,-1.70927333832,0.698290526867,0.393426030874,1.53909540176,-0.139392018318
2017/07/09/10:16:07.433047,495210,1499566570,239474693,,0.779101752819,-0.0389925561618,0.0962005831167,0.822196329249,0.568835212026,0.0154702762732,0.0134301258581,-0.0549655662108,-0.0260529936543,-0.0824191984845,0.0831218839922,0.0656533739264,-0.0368634661398,3.03951215744,-1.04983019829,0.931276857853,0.309545278549,1.43408584595,-0.161066353321
2017/07/09/10:16:07.443105,495211,1499566570,249461074,,0.778872496909,-0.038266061328,0.0957309854272,0.822013481661,0.569105087839,0.0156917085068,0.0129230509701,-0.0500088292782,-0.00524514353935,-0.0885095084936,0.100170228753,0.065618117502,-0.0284711600002,2.79909420013,-0.809817790985,1.22908043861,0.274450778961,1.29556870461,-0.14117026329
2017/07/09/10:16:07.453364,495212,1499566570,259465065,,0.778720632179,-0.0387071939961,0.0949898096183,0.82210667898,0.568965639255,0.0159498346412,0.0128184436808,-0.0441629911886,0.000661952113529,-0.0728116069123,0.0981304821677,0.0464349166165,-0.0238647578267,3.213555336,-1.2975987196,1.15603482723,0.322022914886,1.48448765278,-0.140953198075
2017/07/09/10:16:07.462979,495213,1499566570,269463187,,0.777391885408,-0.0394029291282,0.0935139087076,0.822561680019,0.568350755,0.0151906727724,0.0117875068115,-0.0265073179062,0.0131362044564,-0.0704745228352,0.0831384074759,0.0250416223017,0.00977354369452,2.79161190987,-2.09408640862,0.567695975304,0.491668611765,1.44800126553,-0.138043984771
2017/07/09/10:16:07.473347,495214,1499566570,279460014,,0.777856927152,-0.0385368473857,0.0934283712964,0.822516081013,0.568393724395,0.0163412006565,0.0113505816439,-0.0483266961813,-0.00753377047328,-0.0879909315039,0.108008799763,0.0549467431913,-0.0508234205089,2.93097829819,-1.09639358521,0.723738312721,0.3329821527,1.38132596016,-0.140245005488
2017/07/09/10:16:07.483205,495215,1499566570,289462306,,0.777066974477,-0.0386117432108,0.0924813271689,0.822482770886,0.568464404478,0.0159729494734,0.0107320697692,-0.0504921931815,0.00311817583552,-0.082743984832,0.115266568546,0.0570951799144,-0.0239411473495,1.70435202122,-0.565745830536,1.02508628368,0.0713444948196,0.923842132092,-0.165904313326
2017/07/09/10:16:07.493353,495216,1499566570,299468517,,0.777223698418,-0.0386272142602,0.0921195657666,0.822221622758,0.568830059006,0.016133350308,0.0111212431216,-0.0407739492462,-0.0149136561338,-0.0686682320998,0.0671681437623,0.0247969086783,-0.0259429050341,2.08839297295,-0.0930524915457,1.65500295162,-0.0485278218985,1.01795184612,-0.148295760155
2017/07/09/10:16:07.503133,495217,1499566570,309461414,,0.777147569909,-0.0382493225922,0.0908520848793,0.822018239854,0.569127412045,0.0163991169436,0.0105390307526,-0.0161156080176,0.0134340241714,-0.0660011232735,0.0539303282145,-0.00117652279938,0.0326328802656,1.11661732197,0.338890492916,1.077901721,-0.105483934283,0.620492756367,-0.167521476746
2017/07/09/10:16:07.513122,495218,1499566570,319486316,,0.777236260476,-0.0387002302641,0.090601004007,0.822476520072,0.568440966628,0.0170596950625,0.0107799904647,-0.00734123700469,0.0169851685143,-0.0792488177191,0.0582561551433,-0.0188196569177,0.0401885502793,1.17852389812,-0.271779716015,1.31745100021,-0.0117716342211,0.691534459591,-0.150569066405
2017/07/09/10:16:07.523067,495219,1499566570,329462141,,0.776210766917,-0.0386490820355,0.0892038862453,0.822536792584,0.568384650441,0.0165277144414,0.0099472933495,-0.018392577516,0.0056682152521,-0.0720538603233,0.0451782305275,-0.00415562978763,-0.0116010398511,0.777171313763,-0.770538210869,1.27221214771,0.207990735769,0.553362667561,-0.129314482212
2017/07/09/10:16:07.533739,495220,1499566570,339495010,,0.776460628863,-0.0380554053145,0.0890723527813,0.822255605691,0.568770180605,0.0173683406799,0.00972323542311,-0.0187206201657,-0.0070137157824,-0.079849516858,0.0514757082642,-0.0258863366404,-0.0147815701368,1.77522218227,-0.710308134556,1.57341623306,0.257172495127,0.884970068932,-0.115402325988
2017/07/09/10:16:07.543321,495221,1499566570,349460068,,0.776172934006,-0.0381748009268,0.0882752610122,0.822332323999,0.568665119762,0.0172111659324,0.00965951550251,-0.00809275116896,0.00105737510574,-0.0699202878752,0.0617001602347,-0.0511358801537,-0.011993879916,1.92913973331,-1.00723838806,0.78573769331,0.260830819607,1.00857138634,-0.13640242815
2017/07/09/10:16:07.552996,495222,1499566570,359459126,,0.776022957794,-0.0379510794312,0.0874816337229,0.822310366364,0.568689615597,0.0176373506618,0.00931162412708,-0.0225134332866,-0.00888571231124,-0.0781072887856,0.0583890046425,-0.0192327760007,-0.0177099083283,1.75028514862,-0.710203886032,1.32412135601,0.182971328497,0.897539317608,-0.130229622126
2017/07/09/10:16:07.563317,495223,1499566570,369460901,,0.775960946619,-0.0375229463763,0.086683617689,0.822168602565,0.56890045254,0.0174839315394,0.00923992389443,-0.00819314508494,0.0139035175666,-0.0606098562341,0.0415821042417,-0.0336668629169,0.0267591189729,0.948955535889,0.44629329443,1.02165794373,-0.187738031149,0.60851585865,-0.13031244278
2017/07/09/10:16:07.573283,495224,1499566570,379459875,,0.776077240074,-0.0379807031358,0.0864289785255,0.82214648369,0.568912973645,0.0178511167881,0.00972241758942,0.000760848386139,0.0301793988804,-0.0633279976013,0.0552115450754,-0.0407122900769,0.0305393414508,0.260486871004,0.273576974869,1.11920166016,-0.181656628847,0.32417267561,-0.166326016188
2017/07/09/10:16:07.583286,495225,1499566570,389460778,,0.7760371535,-0.037783112529,0.0856493715246,0.82227829892,0.568702735023,0.0186885092942,0.00929182023704,-0.00949320019404,0.0220531757318,-0.0622007020231,0.0511836564058,-0.0244499024487,0.0221926701841,-0.324228316545,-0.238860666752,0.618082106113,-0.03506218642,0.168913915753,-0.127590984106
2017/07/09/10:16:07.593147,495226,1499566570,399462193,,0.776668168491,-0.0375921423899,0.0854581979352,0.822297965232,0.568637464091,0.0196320021238,0.00959558752123,-0.0141441494686,0.0159504423501,-0.0669742496169,0.0258563769189,-0.0192000381142,0.0329320919839,0.623423337936,-0.2021253407,1.27648234367,-0.0372785441577,0.434218376875,-0.143363788724
2017/07/09/10:16:07.603020,495227,1499566570,409460124,,0.77606355579,-0.0375702808702,0.0845940780017,0.821965584832,0.569138041722,0.019027280802,0.00961402105754,-0.0114779824015,0.00602356274902,-0.0579994984011,0.0182701229995,-0.0338884360296,0.0332111305043,0.434766203165,-0.642007946968,1.31877398491,0.159070283175,0.373932301998,-0.130688607693
2017/07/09/10:16:07.613351,495228,1499566570,419467765,,0.775698106698,-0.03755282693,0.0838357615781,0.821953175187,0.569167731098,0.0187510918669,0.00945876476615,-0.00675163429245,-0.00403465313592,-0.0587708308897,0.0034144777597,-0.0457687319979,0.00698728975745,-0.347926855087,-0.130234956741,0.96144926548,0.0636895000935,0.0487008690834,-0.0889804214239
2017/07/09/10:16:07.623284,495229,1499566570,429461769,,0.775482166156,-0.0370941385292,0.0829036133789,0.82174034471,0.569478019906,0.0187377724996,0.00929981728868,0.00311547799254,0.0317334995386,-0.0655997654152,0.0397957140118,-0.048435085327,0.0388825358353,-0.205028310418,0.0217521488667,0.774057269096,-0.077801309526,0.192677870393,-0.140345364809
2017/07/09/10:16:07.633226,495230,1499566570,439468525,,0.77520006208,-0.0364461371206,0.0824011332383,0.82149112725,0.569844710632,0.0186807787943,0.00896449204043,-0.00237149806017,0.0298630692161,-0.0596716203125,0.0290045629791,-0.0386636684619,0.0539376587023,-1.19299697876,0.611706137657,0.779900074005,-0.277265459299,-0.227725178003,-0.132083982229
2017/07/09/10:16:07.643082,495231,1499566570,449465169,,0.776044816671,-0.0358588164352,0.0825083593321,0.821134793772,0.570315503071,0.0196729641498,0.00953162603483,-0.0132818489386,0.0130720273605,-0.0643996287018,-0.000631089523227,-0.0125564696313,0.0276162984595,-0.93847566843,0.826688945293,0.894814670086,-0.313354879618,-0.201551407576,-0.163611486554
2017/07/09/10:16:07.653311,495232,1499566570,459465537,,0.775637126587,-0.0361556663687,0.0816236715425,0.821235021805,0.570185272709,0.0192374046193,0.00957684762465,-0.0168907673094,0.0112121650765,-0.071018438862,0.000647125601864,-0.00665434926332,0.0368634776093,-0.807093143463,0.561837255955,0.578607082367,-0.263619363308,-0.304138988256,-0.148024529219
2017/07/09/10:16:07.663162,495233,1499566570,469465494,,0.775599542239,-0.0363206049445,0.0812693115842,0.821028615458,0.570467044035,0.0194804783082,0.00999375973201,-0.0106061236593,0.0122937717311,-0.0598674403822,-0.00674578991778,-0.0194438371779,0.0424196886308,-0.604352653027,0.453165233135,0.30220296979,-0.193493813276,-0.253773868084,-0.132964238524
2017/07/09/10:16:07.673338,495234,1499566570,479468093,,0.775733814034,-0.0352931518618,0.0802286601501,0.820987823922,0.570518964027,0.0199603336132,0.00941752304005,0.000996098798655,0.0245906944955,-0.0506854036558,0.00351162323988,-0.0412935198257,0.0646725184978,-0.330109804869,0.424447894096,0.123327381909,-0.156529515982,-0.202030390501,-0.120575860143
2017/07/09/10:16:07.683063,495235,1499566570,489465066,,0.775581519466,-0.0357696813039,0.0796140008799,0.820798961428,0.570786369662,0.0198664924515,0.00986446171537,-0.00590880475072,0.0205675301974,-0.0608874470541,0.0147089013277,-0.0311852686616,0.0527876432118,-0.737844705582,0.347305715084,-0.00397944450378,-0.119562238455,-0.340988487005,-0.0974493324757
2017/07/09/10:16:07.693259,495236,1499566570,499479424,,0.775321871583,-0.035691758033,0.0787783750813,0.820966352326,0.570552946232,0.0197214929846,0.00972864887378,-0.00620098563175,0.00172813520363,-0.0665412281373,-0.00671919090363,-0.0319750900139,0.0207197881391,-0.336794435978,0.478685885668,-0.294250458479,-0.172834634781,-0.176945969462,-0.121503613889
2017/07/09/10:16:07.703363,495237,1499566570,509460383,,0.775021819479,-0.0354514778563,0.078235826866,0.82064662522,0.571020504394,0.0194994675725,0.00971961119777,0.00330773868561,0.0296819239389,-0.0661594016927,0.00653787914411,-0.0342689360531,0.0559245437344,-0.95547246933,0.138838589191,0.325229167938,-0.0865218564868,-0.254405230284,-0.0972064360976
2017/07/09/10:16:07.713275,495238,1499566570,519467703,,0.775031538889,-0.0357927244187,0.0776762349892,0.820695705248,0.570938316034,0.0196615347601,0.0100708848677,0.00854968320646,0.0194737233256,-0.0605038833709,-0.00945008786048,-0.0470001139811,0.0329541845901,-0.824723064899,0.187550053,0.431183844805,-0.127893716097,-0.0859461352229,-0.153263866901
2017/07/09/10:16:07.723058,495239,1499566570,529459061,,0.77538945063,-0.0349857443044,0.0772495416648,0.820462605095,0.571253363588,0.0202766495771,0.00997826195955,0.0057950688297,0.0110150072635,-0.0553177069282,-0.0178755053099,-0.047668403873,0.0162597888915,-0.95874363184,0.390913277864,0.521887004375,-0.075846247375,-0.176449909806,-0.122004441917
2017/07/09/10:16:07.733405,495240,1499566570,539471537,,0.775791718479,-0.0349859453859,0.077004918123,0.820503969503,0.571171882377,0.0206742160063,0.0104160262992,0.00890817799499,0.0105951953403,-0.0481743059975,-0.00283591280158,-0.0589086761331,0.0285157562327,-0.501157164574,0.472178041935,0.544098496437,-0.0907138213515,-0.0454830937088,-0.104938492179
2017/07/09/10:16:07.743276,495241,1499566570,549471179,,0.775284119179,-0.0347983209613,0.0762107436535,0.820486572626,0.571201340538,0.0208117729418,0.00988346170531,-0.0118459541971,-0.00493437616759,-0.0580829285178,-0.00885623713976,-0.0136794536055,0.0234278819326,-0.579959869385,0.576312243938,0.558711886406,-0.0804969519377,-0.063308916986,-0.113382451236
2017/07/09/10:16:07.753331,495242,1499566570,559465792,,0.775146566565,-0.0345626403253,0.0758417155186,0.820289638968,0.571504440387,0.0201567888116,0.0100641285615,-0.0150658037429,0.0274003656835,-0.0618898443724,-0.00448666821375,0.0253507038774,0.0575679491395,-1.08783745766,0.464776128531,0.662094771862,-0.0977434962988,-0.214697897434,-0.0985963270068
2017/07/09/10:16:07.763078,495243,1499566570,569464280,,0.775676656121,-0.0338436232926,0.0754630961864,0.81971486587,0.572303196163,0.0207463039609,0.0103044264491,-0.00450047282349,0.0477098730633,-0.0532771518252,0.0302439169092,0.00316181182061,0.0539080644158,-0.571681797504,0.391340136528,1.04310107231,-0.0538678318262,-0.0658119544387,-0.10828756541
2017/07/09/10:16:07.773488,495244,1499566570,579471084,,0.77505522334,-0.0342868898537,0.0747094487166,0.819873471123,0.572095159589,0.020317822479,0.0100898867119,0.00429554553263,0.0234006790781,-0.0397198512422,-0.00156985210293,-0.0266145316627,0.0421633502447,-1.0259488821,0.21866582334,0.499486744404,0.0398009195924,-0.259457230568,-0.0682040378451
2017/07/09/10:16:07.783437,495245,1499566570,589459790,,0.774899220809,-0.0342184742023,0.0745284605806,0.820092279278,0.571782178683,0.0203195029731,0.0100454670496,-0.0188338514146,0.0183943512275,-0.0557547709331,0.020914345921,0.022643015559,0.0339371999828,-0.781514167786,0.0371306687593,0.677502989769,0.0828921496868,-0.159137785435,-0.100427031517
2017/07/09/10:16:07.793476,495246,1499566570,599463012,,0.774912054316,-0.0337079611618,0.0736622201007,0.819940113443,0.571998854965,0.0204947393935,0.00977169088883,-0.016129378521,0.0221019176298,-0.0549444778232,0.0183450202605,0.0236698916049,0.0386608427687,-0.723942756653,0.0984832271934,0.302184224129,0.0555150583386,-0.19179558754,-0.0958019942045
2017/07/09/10:16:07.803493,495247,1499566570,609467682,,0.775497917847,-0.0336289597715,0.0741139184437,0.819828454447,0.572128802384,0.0210353025546,0.0103660411342,-0.00573790324184,0.0357792468562,-0.0558550321347,0.022160791131,0.00329369717502,0.0540094525963,-0.46811747551,0.00388586521149,0.882518291473,0.149859338999,-0.160435825586,-0.0440896600485
2017/07/09/10:16:07.813235,495248,1499566570,619460788,,0.775396145033,-0.0333092471367,0.0731550658973,0.81948147556,0.572632600726,0.0209224950524,0.0102110234308,0.00418708439993,0.0160450777537,-0.0370326995207,-0.0146282237394,-0.026851506724,0.0448469005047,-0.979183197021,0.0449338853359,0.667278587818,0.0614864453673,-0.326164931059,-0.10032787919
2017/07/09/10:16:07.823330,495249,1499566570,629464966,,0.774985188857,-0.0328875631762,0.0727022205936,0.819423011468,0.572729733475,0.020769141545,0.00975824931212,0.000604987748811,0.0106322854657,-0.0318927178568,-0.0069816482274,-0.0232329885153,0.0330578868324,-0.679328918457,0.217303037643,0.394076436758,0.15834441781,-0.188246697187,-0.0440912097692
2017/07/09/10:16:07.833240,495250,1499566570,639467380,,0.775549765582,-0.032459543133,0.0728978972462,0.819370715178,0.572773486334,0.0215263704662,0.00993880458718,-0.00268563200505,0.0178071378392,-0.0465965179161,0.0131213233612,-0.00752260100231,0.0311681009011,-0.718002140522,0.255603313446,0.333016484976,0.0272055640817,-0.155330687761,-0.0775049999356
2017/07/09/10:16:07.843126,495251,1499566570,649464877,,0.775203296452,-0.0331323236992,0.0721475700327,0.819332957892,0.572842555932,0.0209142532721,0.0103684249342,-0.00914175199367,0.0169895980146,-0.0476086850593,0.0405870571417,-0.00276422007781,0.0162796380136,-0.0602294951677,-0.329769521952,0.745435714722,0.142587959766,0.0429246090353,-0.0830874666572
2017/07/09/10:16:07.853157,495252,1499566570,659464160,,0.774788970627,-0.033046721037,0.0713561448496,0.819326656942,0.572862030462,0.0207898702287,0.0100351668637,0.0031838904987,0.0211844156269,-0.0364564332523,0.00207387018516,-0.0179312846691,0.0157925281987,-0.379827678204,-0.467510461807,0.429456233978,0.182282239199,0.0398608744144,-0.0834035798907
2017/07/09/10:16:07.863470,495253,1499566570,669506213,,0.77518153946,-0.0323792508139,0.0712797800747,0.819364157488,0.572793376559,0.0212192540141,0.00999342046754,-0.0142610785227,0.00534255865629,-0.0346283716372,-0.00405723747008,0.00925261474216,0.0188269398476,0.0814608037472,-0.0941572934389,0.933272480965,0.0739286020398,0.148319333792,-0.11270172894
2017/07/09/10:16:07.873256,495254,1499566570,679468471,,0.774894472134,-0.0323328149907,0.0712238886547,0.819287652622,0.572911147522,0.0210768904817,0.00981447883268,-0.00882749172743,0.0146446515049,-0.0309560711201,0.00784933112922,0.00839954069331,0.0285678886548,0.593812465668,-0.141648948193,0.761973321438,0.216269522905,0.343535512686,-0.0635498687625
2017/07/09/10:16:07.883211,495255,1499566570,689463066,,0.775447974179,-0.0316173610133,0.071369663165,0.81879739442,0.573584645707,0.021726554314,0.00997185729167,-0.011760246789,0.0236844478362,-0.0325958352417,0.0206821248015,0.022336051281,0.0188953730754,0.203659728169,0.106009043753,1.06070959568,0.173032552004,0.0729575902224,-0.0609039962292
2017/07/09/10:16:07.893456,495256,1499566570,699498073,,0.77469194404,-0.0321157741737,0.070388365296,0.81909894641,0.573191667165,0.0207912356533,0.00979557056019,-0.00170630272917,0.00171450099054,-0.012583176502,0.00599893607917,-0.0170123749905,0.0204035871669,-0.198650419712,0.0578885525465,0.718164563179,0.189773187041,-0.0430994033813,-0.0527005046606
2017/07/09/10:16:07.903126,495257,1499566570,709462490,,0.774893311516,-0.031927335664,0.0706128935256,0.818928926038,0.573419866179,0.0211601748082,0.00986499730565,-0.00443761058497,0.0112467181461,-0.0130623313645,0.00582094943814,0.000946583148552,0.0143283523355,0.617833733559,0.718288302422,0.719537079334,-0.105808079243,0.257566928864,-0.122115328908
2017/07/09/10:16:07.913277,495258,1499566570,719464623,,0.774822795567,-0.0321720306857,0.0703582628084,0.819151290676,0.573100725125,0.0212131507526,0.00983484012745,-0.0157983032622,0.0139106304941,-0.0292364920934,0.0179889264195,0.0316886916106,0.00742961938622,0.450004994869,-0.0475899130106,0.72348433733,0.112854488194,0.181943744421,-0.0677081868052
2017/07/09/10:16:07.922938,495259,1499566570,729462337,,0.774183408055,-0.0312443080656,0.0696758774501,0.818816502686,0.573607190869,0.0208329444117,0.00896180449806,-0.00858742529025,0.00250878404257,-0.0142834978494,0.00484795324561,0.0072961452392,0.00455962215578,0.131677210331,0.271218240261,0.275414973497,0.100959263742,0.129361838102,-0.0821569636464
2017/07/09/10:16:07.933378,495260,1499566570,739459662,,0.774458634608,-0.0315516427063,0.0698991449594,0.81880305236,0.573621544026,0.0207575707137,0.00943445454266,-0.0220707290539,0.00338409968007,-0.0190696012635,-0.00280139769606,0.0408290371924,0.0105865788814,0.757468938828,-0.0323878526688,0.956819653511,0.150263518095,0.322432875633,-0.0736633092165
2017/07/09/10:16:07.943494,495261,1499566570,749464251,,0.774358143605,-0.0315228179799,0.0699947712491,0.818990453974,0.573338860882,0.0213062926087,0.00912298184678,-0.00294404699906,0.0119889278242,-0.0103147795093,0.00225439345519,0.0022046969802,0.021756219097,0.253154575825,-0.509551107883,1.10586416721,0.200672030449,0.254283607006,-0.0961217582226
2017/07/09/10:16:07.953216,495262,1499566570,759468763,,0.77383615585,-0.0319053620362,0.0700910292781,0.818698121416,0.573790611291,0.0202957516564,0.00926298267957,-0.0145108551119,0.00512488576953,-0.0119075822907,0.00267721565722,0.023708255731,0.0177527260946,0.0389668531716,0.0434544533491,0.814356148243,0.0159539282322,0.119958825409,-0.130875840783
2017/07/09/10:16:07.963663,495263,1499566570,769462045,,0.774285897488,-0.0310088077506,0.0702330009077,0.818787920041,0.573640066986,0.0209754303652,0.00913492549797,-0.0153398743272,-0.00177359893081,-0.00814559614619,0.000556814491603,0.0294801574347,0.00039719535031,0.467329919338,0.221683263779,0.771104037762,0.168009161949,0.220043495297,-0.0564682371914
2017/07/09/10:16:07.973214,495264,1499566570,779469150,,0.774132288287,-0.0317586755055,0.0698916108457,0.818923294,0.57344709779,0.0208604342353,0.00937586602982,-0.00764590379314,0.0279275953802,-0.021281249151,0.0266624125579,0.0305940686327,0.0163262988913,0.592707037926,-0.401370733976,0.554385781288,0.207491159439,0.365359127522,-0.0853149741888
2017/07/09/10:16:07.983154,495265,1499566570,789464969,,0.773762158117,-0.0314831481821,0.0697863096875,0.818803092284,0.573637427054,0.0205136817867,0.00898817054719,-0.0115851140994,0.0103257920906,-0.00193240324467,0.0357365893269,0.0199431050524,-0.0161040094909,0.913879692554,-0.143931135535,0.696259200573,0.143383026123,0.476560533047,-0.101085320115
2017/07/09/10:16:07.993433,495266,1499566570,799467724,,0.773887444629,-0.0316506836999,0.0696241793281,0.818929944135,0.573449748875,0.020670124567,0.00904864983719,0.00112858016135,0.0226735999224,-0.00271931429224,0.0314664471074,0.000572992102752,0.0291493568651,0.740871906281,-0.781685233116,0.791542828083,0.278797209263,0.378026515245,-0.0646788328886
2017/07/09/10:16:08.003522,495267,1499566570,809467606,,0.774050352367,-0.0315292703238,0.0698418994297,0.818659427462,0.573834494086,0.0206525422918,0.00917538671295,0.00577659647743,0.00586386137288,0.00356700475351,0.00253340134096,-0.00576859747196,0.0325083195611,0.397884428501,-0.832833945751,0.654842495918,0.312093794346,0.262215852737,-0.0672443285584
2017/07/09/10:16:08.013287,495268,1499566570,819466889,,0.773710432752,-0.0309742357589,0.0693134201636,0.818772852844,0.573683381038,0.0206614870583,0.00845557321548,0.00529746260878,0.011008289471,0.00217503539874,-0.00362659975473,-0.00193329143672,0.0278375690711,0.0968162566423,-0.028537094593,0.309840232134,0.0605072453618,0.186572775245,-0.0973580032587
2017/07/09/10:16:08.023158,495269,1499566570,829467411,,0.774111828629,-0.0311461911613,0.069669768261,0.818752551374,0.573698750124,0.0208144129588,0.00898687589066,0.00404967472192,0.0115620286714,-0.00328062378013,0.0103098559307,8.39973043013e-05,0.0122785674688,0.897406578064,-0.557522535324,0.599820554256,0.0844315141439,0.50526881218,-0.144275024533
2017/07/09/10:16:08.033314,495270,1499566570,839467986,,0.77406497401,-0.0306976086766,0.0698380377177,0.818571923669,0.573956326004,0.0209410693697,0.00869558710459,-0.000337130253076,0.00115678870448,-0.0020915575406,0.0050318714939,-0.00350151140185,-0.0135727861544,0.736292481422,-0.411087363958,0.836916148663,0.151868104935,0.401154577732,-0.0811942592263
2017/07/09/10:16:08.043186,495271,1499566570,849461957,,0.773534478486,-0.030769292275,0.068998796753,0.818780855715,0.573681647561,0.0204337977352,0.00835089675289,-0.00200432132227,0.002806557609,0.000529469419141,0.00585342982528,0.00374165446705,-0.0201013456455,0.283426523209,-0.159462034702,0.387976944447,0.14565333724,0.258235424757,-0.0647891834378
2017/07/09/10:16:08.053285,495272,1499566570,859468350,,0.773795598094,-0.0308663693458,0.0697022844623,0.818763250255,0.573689411067,0.0208370847615,0.00854491433653,0.0053321946169,-0.00923106659787,0.00579051218519,-0.00408375900006,-0.0178396411394,-0.00993373961707,0.108884617686,-0.62871658802,0.641954958439,0.124090455472,0.217416375875,-0.105022884905
2017/07/09/10:16:08.063315,495273,1499566570,869467779,,0.773604938552,-0.0317221517842,0.0694012894777,0.818950807366,0.573430891454,0.0204792293897,0.00878572735276,-0.0116459343669,-0.0124791221373,-0.00592688081202,0.000942814448287,0.0180597648689,-0.0174532200177,-0.154761835933,-0.553434491158,0.564051568508,0.155183047056,0.0326922088861,-0.0596470534801
2017/07/09/10:16:08.073065,495274,1499566570,879460883,,0.774025692907,-0.0308381626672,0.0698349447444,0.818543755614,0.573999884468,0.0207986407649,0.00881301987184,0.00301257687884,-0.00569186679755,0.00211056576973,-0.00699228478793,-0.00418752837779,0.0095371130503,0.356737822294,-0.177530318499,0.58046913147,0.0433260202408,0.272219479084,-0.111404448748
2017/07/09/10:16:08.083100,495275,1499566570,889464213,,0.774049539756,-0.0308640882918,0.0697175051712,0.818743338167,0.57370741124,0.0211179810153,0.00855472810724,0.0117830359567,0.0148868608539,0.0135794576283,0.0146635908653,-0.0220228468537,0.0193338982364,-0.0150128006935,-0.308725237846,0.424080461264,0.07183008641,0.0812489166856,-0.0771483778954
2017/07/09/10:16:08.093411,495276,1499566570,899464171,,0.773134373055,-0.0308090962138,0.0691993078423,0.818767742773,0.573715490118,0.0201359889701,0.00802880695361,0.00366544488247,0.00667772286847,0.00304443173703,0.000496150482018,-0.00295346323554,-0.00142789468893,0.150981366634,-0.182629793882,0.161836177111,0.0417766869068,0.275201410055,-0.121728800237
2017/07/09/10:16:08.103184,495277,1499566570,909461259,,0.773771714798,-0.0310698193458,0.069829919674,0.818765777677,0.573689770097,0.0206776451867,0.00866510128519,0.00578399233637,0.00642729116392,0.00106812619523,0.00790060082183,-0.0137366910208,-0.00104767834224,0.729399979115,-0.372637718916,0.442338019609,0.125086188316,0.427483618259,-0.0621578320861
2017/07/09/10:16:08.113211,495278,1499566570,919469766,,0.773970824223,-0.0311451515692,0.0697112378917,0.818797076889,0.573637580998,0.0208347540856,0.00878553170786,0.00039099441288,0.000718828633038,-0.00338398991314,-0.00828438441937,0.00191707075593,0.0207784627488,1.147793293,-0.646544516087,0.816382229328,0.173118233681,0.564355969429,-0.0791653245687
2017/07/09/10:16:08.123120,495279,1499566570,929468046,,0.773509988349,-0.0312750446607,0.0691401371259,0.818947810068,0.573433905088,0.0206767780343,0.00839712629132,-0.00525706388256,-0.00824642587912,-0.00497018194605,-0.0189832847677,0.0127560264951,0.00710531110989,-0.063722088933,-0.897786855698,0.432189553976,0.128961056471,0.183828979731,-0.0943609923124
2017/07/09/10:16:08.133294,495280,1499566570,939467477,,0.774405430156,-0.0307001196713,0.0699839054097,0.818846764374,0.57354779579,0.0213128418244,0.00886933998181,-0.00992514620862,-0.00070459900867,-0.0106250770694,0.00583140137605,0.0195266509131,-0.00563265552904,0.655668079853,-0.520203709602,0.787844836712,0.136262327433,0.334239602089,-0.0676406994462
2017/07/09/10:16:08.143032,495281,1499566570,949461882,,0.774038508505,-0.0305767095179,0.0696679088594,0.818633313624,0.573868648067,0.0210163453309,0.00851973117109,0.00250621698987,-0.00402303765327,0.00579227649193,0.0111596463447,-0.00931719982944,-0.0233349736814,0.21313329041,-0.0821199268103,0.756729543209,0.0137933120131,0.177516505122,-0.0940478742123
2017/07/09/10:16:08.153299,495282,1499566570,959468072,,0.773913928203,-0.0314130540452,0.0695400639339,0.818897773672,0.573497262135,0.02072729113,0.00881510077736,-0.00613075024561,0.0111250410214,-0.00448944814478,0.0160437996145,0.0159982101394,0.00330761814473,0.124523386359,-0.913464546204,0.555660903454,0.151443585753,0.186905607581,-0.0701825618744
2017/07/09/10:16:08.163503,495283,1499566570,969461766,,0.77336519889,-0.0311959553281,0.0690869493882,0.818907202968,0.573502714897,0.0204134253964,0.00830186698145,-0.00450385764068,0.00249871358965,-0.00139106757225,0.014246202432,0.0113591093038,-0.00602669932529,0.174780040979,-0.726469755173,0.518136620522,0.20209236443,0.212609305978,-0.0818514749408
2017/07/09/10:16:08.173275,495284,1499566570,979468117,,0.773457552965,-0.0300481524861,0.0692082821361,0.818644448402,0.573878011029,0.0205833093988,0.00785002745748,0.00145168981405,0.0108586897313,0.00075990888671,0.019606987016,-0.00535810531177,0.0208194553445,0.403284430504,-0.302787423134,0.784889340401,0.120004490018,0.286642819643,-0.0865452587605
2017/07/09/10:16:08.183304,495285,1499566570,989467190,,0.774053919527,-0.0306396888931,0.0697986092886,0.818774038054,0.573668432959,0.0210009470813,0.00851844213995,-0.0085866228768,6.27988761753e-05,-0.000755899148125,-0.0053208083071,0.0188463671605,0.00502595479071,1.18047273159,-0.440106987953,0.445463269949,0.17890059948,0.507242500782,-0.0605481341481
2017/07/09/10:16:08.193160,495286,1499566570,999468826,,0.773638652746,-0.0311053548576,0.0693174324597,0.818801010685,0.57363974021,0.0208011849692,0.00834649965609,0.0044723635805,0.0156159286896,-0.00425311816667,0.0215537253276,-0.00542779611822,-0.000915244220792,1.56711304188,-0.985550045967,0.527102351189,0.264413654804,0.729814767838,-0.10005376488
2017/07/09/10:16:08.203056,495287,1499566571,9463188,,0.773830807405,-0.0302892274994,0.0693565198997,0.818735401575,0.573735595187,0.0208280605561,0.00812409480915,0.00304567512576,0.0280131597014,-0.00611762785234,0.0212444098767,0.0102045404968,0.0232925310958,0.731945514679,-0.750953495502,0.747813761234,0.24741345644,0.37681928277,-0.0553039237857
2017/07/09/10:16:08.213423,495288,1499566571,19467246,,0.773798863964,-0.0312475608773,0.0695015490383,0.818982196069,0.573370607233,0.02104912399,0.00844059613488,0.00162764599202,-0.011328247752,-0.00748313392619,-0.0272552431652,-0.00233524841703,0.00525733524931,1.4116537571,-1.20115411282,1.12492191792,0.27943187952,0.712339699268,-0.0885698869824
