time,.header.seq,.header.stamp.secs,.header.stamp.nsecs,.header.frame_id,.ch0,.ch1,.ch2,.ch3,.ch4,.ch5,.ch6,.ch7
2017/07/09/10:23:08.134130,219552,1499566988,133735895,0,79,285,150,58,53,48,41,183
2017/07/09/10:23:08.148905,219553,1499566988,148679018,0,98,288,171,63,53,49,39,204
2017/07/09/10:23:08.171564,219554,1499566988,171315908,0,134,389,180,65,60,51,55,208
2017/07/09/10:23:08.194197,219555,1499566988,193828105,0,175,436,276,89,59,48,66,227
2017/07/09/10:23:08.210844,219556,1499566988,210537910,0,267,436,308,103,61,49,66,236
2017/07/09/10:23:08.231507,219557,1499566988,231247901,0,349,425,297,100,68,54,75,276
2017/07/09/10:23:08.254052,219558,1499566988,253777980,0,348,419,289,99,77,55,77,257
2017/07/09/10:23:08.270676,219559,1499566988,270541906,0,472,430,350,108,74,59,81,247
2017/07/09/10:23:08.291770,219560,1499566988,291528940,0,552,424,296,96,74,54,79,231
2017/07/09/10:23:08.322635,219561,1499566988,322376966,0,525,448,269,84,73,55,78,228
2017/07/09/10:23:08.329669,219562,1499566988,329201936,0,485,457,269,80,67,48,66,160
2017/07/09/10:23:08.353239,219563,1499566988,353064060,0,536,449,268,89,63,49,67,163
2017/07/09/10:23:08.373742,219564,1499566988,373610019,0,434,406,181,78,66,40,54,154
2017/07/09/10:23:08.388764,219565,1499566988,388602972,0,404,365,170,73,59,38,50,164
2017/07/09/10:23:08.428121,219566,1499566988,427952051,0,511,498,260,85,55,34,50,213
2017/07/09/10:23:08.434435,219567,1499566988,433933019,0,514,487,264,88,59,36,53,229
2017/07/09/10:23:08.448905,219568,1499566988,448723077,0,519,488,263,83,60,34,49,231
2017/07/09/10:23:08.471689,219569,1499566988,471385955,0,534,455,272,95,66,39,47,225
2017/07/09/10:23:08.494059,219570,1499566988,493725061,0,486,514,286,101,66,36,45,238
2017/07/09/10:23:08.509007,219571,1499566988,508763074,0,400,391,221,91,66,37,50,218
2017/07/09/10:23:08.539278,219572,1499566988,539036035,0,418,412,220,91,61,35,47,198
2017/07/09/10:23:08.555645,219573,1499566988,555409908,0,358,450,234,94,58,35,47,210
2017/07/09/10:23:08.570349,219574,1499566988,570241928,0,362,456,213,79,48,30,45,209
2017/07/09/10:23:08.591290,219575,1499566988,591149091,0,387,476,208,77,49,36,47,219
2017/07/09/10:23:08.614091,219576,1499566988,613754987,0,352,463,200,75,51,35,42,193
2017/07/09/10:23:08.644876,219577,1499566988,644674062,0,365,468,212,92,71,40,57,198
2017/07/09/10:23:08.651536,219578,1499566988,651303052,0,404,447,206,89,71,41,58,177
2017/07/09/10:23:08.674303,219579,1499566988,673979043,0,400,456,216,89,72,43,63,208
2017/07/09/10:23:08.696624,219580,1499566988,696249008,0,418,385,220,86,72,40,58,183
2017/07/09/10:23:08.712766,219581,1499566988,712635040,0,420,384,230,93,78,42,59,187
2017/07/09/10:23:08.734058,219582,1499566988,733836889,0,431,355,212,78,69,41,55,207
2017/07/09/10:23:08.756485,219583,1499566988,756308078,0,416,359,207,76,65,40,56,218
2017/07/09/10:23:08.771585,219584,1499566988,771385908,0,412,348,211,80,66,41,54,195
2017/07/09/10:23:08.802144,219585,1499566988,801846027,0,374,329,197,83,70,44,58,198
2017/07/09/10:23:08.816466,219586,1499566988,816163063,0,439,294,172,78,67,45,61,204
2017/07/09/10:23:08.831805,219587,1499566988,831456899,0,403,314,170,74,57,39,51,187
2017/07/09/10:23:08.861562,219588,1499566988,861372947,0,408,324,173,86,63,38,51,183
2017/07/09/10:23:08.876770,219589,1499566988,876472949,0,416,325,161,85,63,39,49,176
2017/07/09/10:23:08.891958,219590,1499566988,891614913,0,419,379,157,83,57,36,49,188
2017/07/09/10:23:08.915271,219591,1499566988,915082931,0,383,457,181,87,57,35,49,203
2017/07/09/10:23:08.936699,219592,1499566988,936366081,0,409,471,181,87,69,37,52,215
2017/07/09/10:23:08.951862,219593,1499566988,951596975,0,395,468,172,75,68,38,51,217
2017/07/09/10:23:08.973993,219594,1499566988,973732948,0,398,523,200,73,65,36,51,229
2017/07/09/10:23:08.996843,219595,1499566988,996572017,0,398,578,213,69,69,37,51,221
2017/07/09/10:23:09.011472,219596,1499566989,11245012,0,384,563,206,60,66,36,47,227
2017/07/09/10:23:09.033829,219597,1499566989,33710002,0,380,534,224,67,58,37,54,228
2017/07/09/10:23:09.056680,219598,1499566989,56448936,0,378,519,225,75,63,39,56,221
2017/07/09/10:23:09.071512,219599,1499566989,71286916,0,378,493,200,76,75,42,61,210
2017/07/09/10:23:09.093817,219600,1499566989,93652963,0,372,514,202,82,72,44,69,203
2017/07/09/10:23:09.118262,219601,1499566989,118082046,0,376,471,181,84,78,49,75,168
2017/07/09/10:23:09.131717,219602,1499566989,131433963,0,349,492,164,84,80,51,79,160
2017/07/09/10:23:09.155570,219603,1499566989,155484914,0,366,488,164,84,88,49,80,186
2017/07/09/10:23:09.176342,219604,1499566989,176103115,0,343,459,164,83,81,45,76,202
2017/07/09/10:23:09.192855,219605,1499566989,192555904,0,370,385,168,85,82,45,75,216
2017/07/09/10:23:09.213916,219606,1499566989,213727951,0,368,397,168,90,78,44,73,230
2017/07/09/10:23:09.236265,219607,1499566989,236151933,0,361,396,158,83,84,47,68,248
2017/07/09/10:23:09.251432,219608,1499566989,251163005,0,326,412,154,77,72,50,73,253
2017/07/09/10:23:09.274042,219609,1499566989,273773908,0,362,399,155,80,73,66,80,237
2017/07/09/10:23:09.296791,219610,1499566989,296355962,0,473,335,114,80,95,67,79,259
2017/07/09/10:23:09.319217,219611,1499566989,318952083,0,473,307,112,72,94,65,83,249
2017/07/09/10:23:09.334106,219612,1499566989,333931922,0,527,325,126,70,84,61,79,240
2017/07/09/10:23:09.356600,219613,1499566989,356385946,0,628,404,161,87,91,60,71,230
2017/07/09/10:23:09.371530,219614,1499566989,371299982,0,625,429,169,85,88,63,63,252
2017/07/09/10:23:09.393962,219615,1499566989,393695116,0,562,410,162,78,118,79,70,258
2017/07/09/10:23:09.417944,219616,1499566989,417838096,0,599,430,165,80,122,84,64,267
2017/07/09/10:23:09.433209,219617,1499566989,432895898,0,578,401,159,87,128,88,66,291
2017/07/09/10:23:09.454078,219618,1499566989,453944921,0,524,301,121,73,126,88,68,285
2017/07/09/10:23:09.476477,219619,1499566989,476187944,0,593,308,114,78,127,80,79,320
2017/07/09/10:23:09.492695,219620,1499566989,492554903,0,601,321,117,76,83,73,86,303
2017/07/09/10:23:09.516339,219621,1499566989,516007900,0,567,336,121,71,76,70,92,317
2017/07/09/10:23:09.536780,219622,1499566989,536585092,0,575,349,124,70,109,83,91,286
2017/07/09/10:23:09.559132,219623,1499566989,558888912,0,534,350,123,67,110,84,96,292
2017/07/09/10:23:09.574283,219624,1499566989,573894023,0,447,312,120,60,108,80,95,267
2017/07/09/10:23:09.596409,219625,1499566989,596205949,0,455,341,123,71,112,95,89,273
2017/07/09/10:23:09.619004,219626,1499566989,618838071,0,488,313,126,78,119,95,88,268
2017/07/09/10:23:09.633873,219627,1499566989,633754014,0,488,280,122,79,87,85,93,267
2017/07/09/10:23:09.656460,219628,1499566989,656173944,0,511,294,144,85,81,85,91,274
2017/07/09/10:23:09.687642,219629,1499566989,687371015,0,551,376,218,115,85,86,86,243
2017/07/09/10:23:09.694480,219630,1499566989,694116115,0,501,349,228,117,90,128,94,244
2017/07/09/10:23:09.716288,219631,1499566989,716172933,0,541,343,228,112,81,131,97,253
2017/07/09/10:23:09.739410,219632,1499566989,739176034,0,532,343,234,109,74,130,94,258
2017/07/09/10:23:09.754693,219633,1499566989,754076004,0,519,389,253,110,76,130,92,249
2017/07/09/10:23:09.776326,219634,1499566989,776179075,0,490,355,220,81,76,132,96,260
2017/07/09/10:23:09.799222,219635,1499566989,798979997,0,514,352,220,69,56,72,89,266
2017/07/09/10:23:09.813991,219636,1499566989,813749074,0,537,357,222,77,62,127,100,261
2017/07/09/10:23:09.836704,219637,1499566989,836349964,0,515,396,221,89,64,134,106,252
2017/07/09/10:23:09.859223,219638,1499566989,858989953,0,576,363,192,92,65,144,115,297
2017/07/09/10:23:09.874348,219639,1499566989,873984098,0,571,308,152,89,63,154,124,301
2017/07/09/10:23:09.896786,219640,1499566989,896512031,0,599,314,134,101,71,155,122,309
2017/07/09/10:23:09.919134,219641,1499566989,918834924,0,493,323,148,145,77,124,108,330
2017/07/09/10:23:09.934074,219642,1499566989,933757066,0,499,283,146,144,83,145,114,357
2017/07/09/10:23:09.957087,219643,1499566989,956768035,0,507,233,131,142,90,141,105,352
2017/07/09/10:23:09.988792,219644,1499566989,988648891,0,537,249,142,162,166,194,136,429
2017/07/09/10:23:10.001678,219645,1499566990,1405000,0,514,232,159,171,178,196,140,417
2017/07/09/10:23:10.016696,219646,1499566990,16417980,0,525,255,190,154,179,188,152,433
2017/07/09/10:23:10.039051,219647,1499566990,38717985,0,529,249,186,154,180,170,143,419
2017/07/09/10:23:10.053968,219648,1499566990,53646087,0,536,274,191,152,180,176,154,405
2017/07/09/10:23:10.076584,219649,1499566990,76296091,0,523,270,189,133,113,135,129,333
2017/07/09/10:23:10.099286,219650,1499566990,98990917,0,547,377,213,113,91,132,131,345
2017/07/09/10:23:10.114444,219651,1499566990,113939046,0,546,359,169,107,93,134,119,289
2017/07/09/10:23:10.136681,219652,1499566990,136384963,0,559,348,189,172,190,178,153,312
2017/07/09/10:23:10.158960,219653,1499566990,158773899,0,566,347,204,198,197,170,151,304
2017/07/09/10:23:10.174515,219654,1499566990,174211025,0,693,420,240,200,196,144,156,374
2017/07/09/10:23:10.196365,219655,1499566990,196166992,0,651,328,212,206,204,147,153,347
2017/07/09/10:23:10.219215,219656,1499566990,219063997,0,644,315,211,201,211,145,157,358
2017/07/09/10:23:10.234154,219657,1499566990,233910083,0,666,310,188,152,138,149,134,369
2017/07/09/10:23:10.264030,219658,1499566990,263745069,0,589,312,212,146,145,155,135,393
2017/07/09/10:23:10.278948,219659,1499566990,278784990,0,430,257,198,152,144,158,121,348
2017/07/09/10:23:10.294243,219660,1499566990,293771982,0,453,275,199,147,133,156,132,360
2017/07/09/10:23:10.316929,219661,1499566990,316570997,0,485,304,201,136,116,161,125,425
2017/07/09/10:23:10.338792,219662,1499566990,338677883,0,525,326,204,126,103,143,130,424
2017/07/09/10:23:10.353809,219663,1499566990,353658914,0,542,308,162,89,67,145,130,437
2017/07/09/10:23:10.376523,219664,1499566990,376197099,0,623,322,157,77,73,144,136,422
2017/07/09/10:23:10.399521,219665,1499566990,399171113,0,615,323,148,79,98,156,121,423
2017/07/09/10:23:10.414024,219666,1499566990,413842916,0,668,429,169,80,112,167,122,359
2017/07/09/10:23:10.436867,219667,1499566990,436450004,0,694,507,193,82,115,145,117,336
2017/07/09/10:23:10.458935,219668,1499566990,458815097,0,700,515,195,85,113,146,107,326
2017/07/09/10:23:10.481433,219669,1499566990,481276035,0,652,495,166,79,111,147,107,302
2017/07/09/10:23:10.496330,219670,1499566990,496143102,0,656,488,174,83,98,142,112,295
2017/07/09/10:23:10.527916,219671,1499566990,527164936,0,616,414,159,84,79,127,113,284
2017/07/09/10:23:10.542071,219672,1499566990,541836977,0,540,325,133,89,124,159,128,376
2017/07/09/10:23:10.556467,219673,1499566990,556202888,0,534,433,174,85,131,156,131,357
2017/07/09/10:23:10.579400,219674,1499566990,579020023,0,539,438,181,96,132,154,126,389
2017/07/09/10:23:10.601481,219675,1499566990,601283073,0,550,491,190,88,124,158,122,395
2017/07/09/10:23:10.617128,219676,1499566990,616592884,0,546,480,187,90,127,157,115,397
2017/07/09/10:23:10.639445,219677,1499566990,639013051,0,520,473,214,88,82,113,86,310
2017/07/09/10:23:10.661570,219678,1499566990,661362886,0,531,376,189,96,74,112,83,309
2017/07/09/10:23:10.676414,219679,1499566990,676256895,0,498,390,205,90,81,128,92,292
2017/07/09/10:23:10.699234,219680,1499566990,698823928,0,473,366,206,94,85,125,96,308
2017/07/09/10:23:10.721826,219681,1499566990,721585988,0,516,359,199,91,78,123,96,300
2017/07/09/10:23:10.744295,219682,1499566990,744018077,0,551,353,162,91,75,131,107,297
2017/07/09/10:23:10.759273,219683,1499566990,759033918,0,615,369,152,84,72,120,130,321
2017/07/09/10:23:10.782281,219684,1499566990,781728982,0,602,480,208,79,57,96,125,297
2017/07/09/10:23:10.796624,219685,1499566990,796351909,0,613,463,199,76,60,101,123,272
2017/07/09/10:23:10.820409,219686,1499566990,820259094,0,573,464,202,78,70,123,130,318
2017/07/09/10:23:10.841735,219687,1499566990,841422080,0,579,535,225,74,73,113,122,323
2017/07/09/10:23:10.856749,219688,1499566990,856539964,0,521,527,234,79,79,122,97,297
2017/07/09/10:23:10.879361,219689,1499566990,879004955,0,504,402,165,75,82,124,88,318
2017/07/09/10:23:10.901757,219690,1499566990,901437044,0,509,383,152,74,84,117,94,323
2017/07/09/10:23:10.916670,219691,1499566990,916372060,0,495,440,215,80,79,99,102,309
2017/07/09/10:23:10.938835,219692,1499566990,938658952,0,483,354,198,80,85,103,108,315
2017/07/09/10:23:10.961509,219693,1499566990,961287021,0,460,339,191,76,79,93,108,313
2017/07/09/10:23:10.983963,219694,1499566990,983791112,0,450,336,199,83,86,113,117,304
2017/07/09/10:23:10.999237,219695,1499566990,998979091,0,472,403,214,88,81,102,112,326
2017/07/09/10:23:11.022031,219696,1499566991,21644115,0,464,338,157,82,79,92,100,317
2017/07/09/10:23:11.036504,219697,1499566991,36159992,0,469,425,155,84,70,87,90,301
2017/07/09/10:23:11.059504,219698,1499566991,59056997,0,447,427,147,83,75,85,80,279
2017/07/09/10:23:11.081698,219699,1499566991,81442117,0,505,430,136,80,66,55,73,304
2017/07/09/10:23:11.101039,219700,1499566991,100877046,0,479,382,132,71,61,48,74,341
2017/07/09/10:23:11.119536,219701,1499566991,119129896,0,548,399,121,69,66,71,80,320
2017/07/09/10:23:11.141469,219702,1499566991,141341924,0,509,298,124,77,80,72,83,321
2017/07/09/10:23:11.156652,219703,1499566991,156326055,0,511,296,129,78,76,75,83,335
2017/07/09/10:23:11.179110,219704,1499566991,178843021,0,518,303,136,73,75,73,80,322
2017/07/09/10:23:11.209742,219705,1499566991,209510087,0,500,287,116,73,77,72,75,243
2017/07/09/10:23:11.216602,219706,1499566991,216257095,0,424,230,122,71,72,82,83,260
2017/07/09/10:23:11.239035,219707,1499566991,238797903,0,411,213,115,64,56,90,84,256
2017/07/09/10:23:11.261476,219708,1499566991,261215925,0,465,245,133,58,58,93,98,277
2017/07/09/10:23:11.276419,219709,1499566991,276261091,0,492,232,131,66,58,93,94,263
2017/07/09/10:23:11.300586,219710,1499566991,300376892,0,483,207,130,63,55,96,94,261
2017/07/09/10:23:11.321332,219711,1499566991,321130037,0,474,203,126,65,55,87,87,256
2017/07/09/10:23:11.336960,219712,1499566991,336622953,0,503,215,126,61,51,76,84,262
2017/07/09/10:23:11.358805,219713,1499566991,358694076,0,477,280,111,66,51,71,70,246
2017/07/09/10:23:11.381563,219714,1499566991,381369113,0,376,268,106,61,53,72,73,235
2017/07/09/10:23:11.396556,219715,1499566991,396311044,0,376,273,105,69,64,72,79,282
2017/07/09/10:23:11.419419,219716,1499566991,419019937,0,445,295,136,77,64,54,74,290
2017/07/09/10:23:11.441744,219717,1499566991,441540002,0,418,290,139,78,66,52,74,293
2017/07/09/10:23:11.464171,219718,1499566991,463783025,0,432,187,131,74,63,63,77,359
2017/07/09/10:23:11.479116,219719,1499566991,478724002,0,493,192,128,75,66,75,79,371
2017/07/09/10:23:11.501893,219720,1499566991,501620054,0,499,228,131,68,55,72,69,340
2017/07/09/10:23:11.524109,219721,1499566991,523927927,0,462,223,98,62,54,71,65,327
2017/07/09/10:23:11.539074,219722,1499566991,538803100,0,512,218,90,55,51,76,75,334
2017/07/09/10:23:11.561635,219723,1499566991,561397075,0,478,218,90,54,51,71,74,241
2017/07/09/10:23:11.583940,219724,1499566991,583674907,0,439,253,96,58,45,60,73,237
2017/07/09/10:23:11.598909,219725,1499566991,598721027,0,442,252,97,56,48,58,72,242
2017/07/09/10:23:11.621685,219726,1499566991,621504068,0,444,238,92,53,49,57,73,247
2017/07/09/10:23:11.652318,219727,1499566991,651927947,0,468,238,89,55,52,52,67,229
2017/07/09/10:23:11.659277,219728,1499566991,659001111,0,475,245,86,61,59,40,72,253
2017/07/09/10:23:11.681272,219729,1499566991,681080102,0,502,220,86,57,59,38,72,238
2017/07/09/10:23:11.704268,219730,1499566991,704050064,0,516,187,102,59,56,38,71,246
2017/07/09/10:23:11.719127,219731,1499566991,718957901,0,513,191,106,62,56,57,70,239
2017/07/09/10:23:11.743674,219732,1499566991,743453979,0,493,194,110,62,55,62,62,230
2017/07/09/10:23:11.764013,219733,1499566991,763819932,0,457,179,110,58,56,63,54,214
2017/07/09/10:23:11.779963,219734,1499566991,778682947,0,459,235,129,64,59,65,50,214
2017/07/09/10:23:11.801382,219735,1499566991,801172018,0,442,241,121,64,60,65,51,203
2017/07/09/10:23:11.824033,219736,1499566991,823834896,0,451,235,115,59,57,48,49,217
2017/07/09/10:23:11.839143,219737,1499566991,838804960,0,392,233,112,59,56,38,48,210
2017/07/09/10:23:11.861195,219738,1499566991,861113071,0,480,249,119,60,47,37,47,197
2017/07/09/10:23:11.884341,219739,1499566991,883886098,0,423,218,94,51,40,31,44,193
2017/07/09/10:23:11.898824,219740,1499566991,898695945,0,428,212,91,51,39,31,45,204
2017/07/09/10:23:11.929898,219741,1499566991,929706096,0,466,265,98,52,39,30,47,220
2017/07/09/10:23:11.944514,219742,1499566991,944025993,0,464,272,108,49,41,30,51,225
2017/07/09/10:23:11.961203,219743,1499566991,960792064,0,399,303,129,57,53,27,49,230
2017/07/09/10:23:11.981978,219744,1499566991,981566905,0,411,277,123,56,55,30,49,226
2017/07/09/10:23:12.003893,219745,1499566992,3700971,0,436,289,121,55,60,31,47,196
2017/07/09/10:23:12.019083,219746,1499566992,18728017,0,352,244,119,54,60,49,52,191
2017/07/09/10:23:12.041667,219747,1499566992,41459083,0,380,276,121,53,59,51,57,196
2017/07/09/10:23:12.063939,219748,1499566992,63716888,0,398,242,92,44,52,53,54,186
2017/07/09/10:23:12.080798,219749,1499566992,80557107,0,408,240,91,43,54,55,54,185
2017/07/09/10:23:12.101635,219750,1499566992,101200103,0,372,224,87,42,48,54,57,206
2017/07/09/10:23:12.124082,219751,1499566992,123684883,0,386,259,107,46,49,39,49,175
2017/07/09/10:23:12.139787,219752,1499566992,138792991,0,362,214,97,49,49,37,41,165
