time,.header.seq,.header.stamp.secs,.header.stamp.nsecs,.header.frame_id,.quat,.acc
2017/07/09/10:19:05.381340,14502,1499566745,381010055,0, -12477, -10004, 2970, 1965 , 259, 2105, 171 
2017/07/09/10:19:05.403600,14503,1499566745,403249025,0, -12573, -9892, 2952, 1949 , 238, 2271, 483 
2017/07/09/10:19:05.418365,14504,1499566745,418102979,0, -12693, -9737, 2955, 1952 , 300, 1947, 472 
2017/07/09/10:19:05.440789,14505,1499566745,440555095,0, -12767, -9639, 2961, 1945 , 272, 1627, 415 
2017/07/09/10:19:05.463800,14506,1499566745,463537931,0, -12800, -9594, 2982, 1916 , 211, 1682, 456 
2017/07/09/10:19:05.478720,14507,1499566745,478434085,0, -12799, -9592, 3008, 1892 , 412, 1987, 495 
2017/07/09/10:19:05.509333,14508,1499566745,508944034,0, -12821, -9561, 3003, 1907 , 345, 1993, 531 
2017/07/09/10:19:05.523429,14509,1499566745,523149013,0, -12871, -9492, 2986, 1944 , 336, 1836, 580 
2017/07/09/10:19:05.538433,14510,1499566745,538211107,0, -12910, -9441, 2959, 1977 , 333, 1697, 567 
2017/07/09/10:19:05.560940,14511,1499566745,560723066,0, -12910, -9444, 2926, 2005 , 338, 1818, 545 
2017/07/09/10:19:05.583376,14512,1499566745,583209037,0, -12923, -9431, 2879, 2055 , 291, 2021, 539 
2017/07/09/10:19:05.598594,14513,1499566745,598331928,0, -12959, -9386, 2835, 2095 , 330, 1856, 602 
2017/07/09/10:19:05.622387,14514,1499566745,622142076,0, -12984, -9360, 2787, 2122 , 283, 1829, 567 
2017/07/09/10:19:05.643194,14515,1499566745,643120050,0, -12987, -9362, 2737, 2153 , 297, 1974, 560 
2017/07/09/10:19:05.658398,14516,1499566745,658309936,0, -13007, -9346, 2677, 2183 , 314, 2046, 607 
2017/07/09/10:19:05.681203,14517,1499566745,680885076,0, -13033, -9323, 2597, 2221 , 263, 1976, 626 
2017/07/09/10:19:05.703614,14518,1499566745,703468084,0, -13052, -9314, 2502, 2253 , 190, 1984, 686 
2017/07/09/10:19:05.718837,14519,1499566745,718533992,0, -13050, -9335, 2394, 2300 , 52, 2126, 660 
2017/07/09/10:19:05.740839,14520,1499566745,740672111,0, -13045, -9357, 2287, 2346 , 114, 2116, 656 
2017/07/09/10:19:05.771678,14521,1499566745,771505117,0, -13036, -9379, 2161, 2423 , 14, 2151, 612 
2017/07/09/10:19:05.778620,14522,1499566745,778419971,0, -13036, -9387, 2036, 2499 , 5, 2019, 636 
2017/07/09/10:19:05.801300,14523,1499566745,800998926,0, -13021, -9414, 1907, 2579 , -50, 1968, 593 
2017/07/09/10:19:05.823750,14524,1499566745,823579072,0, -12996, -9448, 1775, 2670 , -111, 1979, 665 
2017/07/09/10:19:05.838522,14525,1499566745,838155031,0, -12973, -9475, 1646, 2770 , -161, 1944, 659 
2017/07/09/10:19:05.861055,14526,1499566745,860747098,0, -12943, -9506, 1521, 2871 , -201, 1923, 646 
2017/07/09/10:19:05.883816,14527,1499566745,883594989,0, -12909, -9540, 1403, 2971 , -233, 1902, 580 
2017/07/09/10:19:05.905905,14528,1499566745,905736923,0, -12871, -9577, 1297, 3063 , -203, 1813, 633 
2017/07/09/10:19:05.921344,14529,1499566745,920967102,0, -12829, -9614, 1188, 3167 , -314, 1868, 624 
2017/07/09/10:19:05.943362,14530,1499566745,943240880,0, -12793, -9637, 1078, 3280 , -333, 1860, 658 
2017/07/09/10:19:05.958471,14531,1499566745,958128929,0, -12765, -9646, 975, 3394 , -340, 1755, 636 
2017/07/09/10:19:05.981392,14532,1499566745,981093883,0, -12726, -9667, 882, 3501 , -357, 1676, 624 
2017/07/09/10:19:06.003645,14533,1499566746,3463029,0, -12679, -9697, 789, 3611 , -427, 1773, 639 
2017/07/09/10:19:06.018361,14534,1499566746,18229007,0, -12640, -9714, 698, 3719 , -445, 1867, 587 
2017/07/09/10:19:06.041025,14535,1499566746,40728092,0, -12620, -9706, 602, 3822 , -512, 1756, 630 
2017/07/09/10:19:06.063296,14536,1499566746,63136100,0, -12599, -9703, 516, 3911 , -514, 1624, 643 
2017/07/09/10:19:06.093995,14537,1499566746,93911886,0, -12568, -9707, 432, 4010 , -598, 1757, 621 
2017/07/09/10:19:06.101185,14538,1499566746,100966930,0, -12540, -9702, 353, 4117 , -578, 1783, 607 
2017/07/09/10:19:06.123488,14539,1499566746,123306035,0, -12525, -9681, 273, 4218 , -582, 1742, 615 
2017/07/09/10:19:06.139076,14540,1499566746,138669013,0, -12517, -9656, 200, 4301 , -606, 1623, 644 
2017/07/09/10:19:06.170627,14541,1499566746,170408964,0, -12499, -9642, 132, 4386 , -656, 1711, 637 
2017/07/09/10:19:06.183932,14542,1499566746,183728933,0, -12487, -9619, 66, 4470 , -673, 1794, 637 
2017/07/09/10:19:06.205811,14543,1499566746,205712080,0, -12491, -9579, 2, 4545 , -689, 1692, 619 
2017/07/09/10:19:06.220856,14544,1499566746,220663070,0, -12494, -9540, -54, 4619 , -673, 1582, 669 
2017/07/09/10:19:06.243514,14545,1499566746,243295907,0, -12490, -9509, -105, 4693 , -686, 1682, 686 
2017/07/09/10:19:06.265919,14546,1499566746,265757083,0, -12490, -9472, -151, 4765 , -702, 1760, 651 
2017/07/09/10:19:06.280813,14547,1499566746,280689001,0, -12508, -9415, -203, 4830 , -711, 1689, 692 
2017/07/09/10:19:06.303425,14548,1499566746,303303956,0, -12526, -9356, -249, 4893 , -732, 1640, 703 
2017/07/09/10:19:06.325782,14549,1499566746,325658082,0, -12533, -9312, -294, 4957 , -760, 1652, 676 
2017/07/09/10:19:06.342195,14550,1499566746,342034101,0, -12543, -9262, -330, 5022 , -745, 1661, 710 
2017/07/09/10:19:06.363941,14551,1499566746,363770961,0, -12554, -9208, -363, 5092 , -755, 1649, 718 
2017/07/09/10:19:06.385928,14552,1499566746,385766029,0, -12569, -9148, -394, 5162 , -784, 1638, 765 
2017/07/09/10:19:06.400847,14553,1499566746,400655031,0, -12583, -9093, -415, 5221 , -747, 1594, 769 
2017/07/09/10:19:06.423537,14554,1499566746,423321962,0, -12592, -9048, -434, 5276 , -800, 1649, 720 
2017/07/09/10:19:06.446125,14555,1499566746,445943117,0, -12603, -8998, -446, 5335 , -843, 1656, 737 
2017/07/09/10:19:06.463944,14556,1499566746,463270902,0, -12620, -8942, -449, 5388 , -767, 1581, 767 
2017/07/09/10:19:06.483980,14557,1499566746,483666896,0, -12641, -8884, -448, 5434 , -739, 1582, 824 
2017/07/09/10:19:06.506514,14558,1499566746,506231069,0, -12661, -8828, -447, 5479 , -802, 1597, 816 
2017/07/09/10:19:06.521040,14559,1499566746,520859956,0, -12681, -8766, -445, 5532 , -867, 1686, 786 
2017/07/09/10:19:06.543888,14560,1499566746,543586969,0, -12709, -8691, -433, 5588 , -750, 1536, 837 
2017/07/09/10:19:06.565804,14561,1499566746,565682888,0, -12728, -8637, -410, 5629 , -756, 1488, 854 
2017/07/09/10:19:06.581334,14562,1499566746,581024885,0, -12738, -8605, -376, 5658 , -765, 1513, 866 
2017/07/09/10:19:06.603343,14563,1499566746,603204965,0, -12751, -8569, -340, 5686 , -811, 1619, 821 
2017/07/09/10:19:06.626424,14564,1499566746,626148939,0, -12774, -8506, -309, 5730 , -744, 1511, 907 
2017/07/09/10:19:06.649267,14565,1499566746,648842096,0, -12794, -8452, -278, 5767 , -764, 1448, 945 
2017/07/09/10:19:06.664005,14566,1499566746,663805007,0, -12810, -8416, -236, 5785 , -730, 1535, 955 
2017/07/09/10:19:06.686172,14567,1499566746,686012029,0, -12835, -8371, -206, 5797 , -789, 1586, 883 
2017/07/09/10:19:06.700822,14568,1499566746,700654029,0, -12870, -8291, -184, 5835 , -796, 1494, 950 
2017/07/09/10:19:06.723480,14569,1499566746,723263978,0, -12904, -8213, -150, 5872 , -673, 1404, 1004 
2017/07/09/10:19:06.746070,14570,1499566746,745790004,0, -12926, -8162, -109, 5895 , -680, 1499, 965 
2017/07/09/10:19:06.768285,14571,1499566746,768121957,0, -12952, -8115, -68, 5903 , -688, 1582, 971 
2017/07/09/10:19:06.787475,14572,1499566746,786364078,0, -12980, -8056, -33, 5922 , -720, 1548, 938 
2017/07/09/10:19:06.805909,14573,1499566746,805767059,0, -13013, -7976, 12, 5957 , -621, 1450, 1011 
2017/07/09/10:19:06.820907,14574,1499566746,820801973,0, -13042, -7911, 70, 5980 , -583, 1393, 1003 
2017/07/09/10:19:06.843572,14575,1499566746,843390941,0, -13070, -7860, 130, 5986 , -619, 1405, 1131 
2017/07/09/10:19:06.865894,14576,1499566746,865787982,0, -13090, -7825, 192, 5987 , -640, 1525, 1036 
2017/07/09/10:19:06.882319,14577,1499566746,882162094,0, -13116, -7771, 249, 5996 , -614, 1576, 1085 
2017/07/09/10:19:06.903600,14578,1499566746,903496026,0, -13156, -7695, 309, 6005 , -595, 1494, 1103 
2017/07/09/10:19:06.925859,14579,1499566746,925659894,0, -13192, -7626, 370, 6011 , -587, 1503, 1096 
2017/07/09/10:19:06.940727,14580,1499566746,940588951,0, -13226, -7560, 430, 6015 , -574, 1516, 1101 
2017/07/09/10:19:06.963813,14581,1499566746,963571071,0, -13271, -7471, 484, 6024 , -506, 1547, 1142 
2017/07/09/10:19:06.986146,14582,1499566746,985941886,0, -13321, -7367, 527, 6039 , -521, 1457, 1197 
2017/07/09/10:19:07.002914,14583,1499566747,2775907,0, -13360, -7282, 574, 6051 , -554, 1409, 1267 
2017/07/09/10:19:07.023800,14584,1499566747,23583889,0, -13378, -7241, 636, 6054 , -591, 1501, 1250 
2017/07/09/10:19:07.045899,14585,1499566747,45721054,0, -13397, -7194, 703, 6060 , -495, 1649, 1159 
2017/07/09/10:19:07.061230,14586,1499566747,60981035,0, -13446, -7093, 750, 6064 , -453, 1508, 1265 
2017/07/09/10:19:07.083781,14587,1499566747,83611011,0, -13494, -6999, 790, 6062 , -533, 1311, 1297 
2017/07/09/10:19:07.105958,14588,1499566747,105776071,0, -13511, -6958, 849, 6063 , -490, 1407, 1241 
2017/07/09/10:19:07.128611,14589,1499566747,128226995,0, -13528, -6916, 914, 6065 , -381, 1587, 1201 
2017/07/09/10:19:07.143372,14590,1499566747,143182039,0, -13567, -6829, 964, 6067 , -332, 1530, 1276 
2017/07/09/10:19:07.169736,14591,1499566747,165899991,0, -13617, -6725, 993, 6067 , -387, 1354, 1358 
2017/07/09/10:19:07.190363,14592,1499566747,190291881,0, -13649, -6654, 1030, 6067 , -375, 1286, 1367 
2017/07/09/10:19:07.211729,14593,1499566747,211481094,0, -13664, -6612, 1078, 6071 , -339, 1497, 1284 
2017/07/09/10:19:07.226371,14594,1499566747,226058959,0, -13694, -6541, 1121, 6073 , -260, 1523, 1338 
2017/07/09/10:19:07.248370,14595,1499566747,248176097,0, -13736, -6453, 1140, 6068 , -309, 1371, 1364 
2017/07/09/10:19:07.263522,14596,1499566747,263215065,0, -13773, -6374, 1158, 6064 , -337, 1251, 1390 
2017/07/09/10:19:07.285945,14597,1499566747,285720109,0, -13798, -6316, 1189, 6064 , -300, 1245, 1364 
2017/07/09/10:19:07.308691,14598,1499566747,308501005,0, -13816, -6268, 1231, 6064 , -230, 1380, 1422 
2017/07/09/10:19:07.323451,14599,1499566747,323252916,0, -13837, -6221, 1270, 6056 , -223, 1460, 1366 
2017/07/09/10:19:07.346106,14600,1499566747,345930099,0, -13872, -6154, 1283, 6042 , -214, 1457, 1377 
2017/07/09/10:19:07.368544,14601,1499566747,368247985,0, -13916, -6068, 1285, 6026 , -237, 1199, 1435 
2017/07/09/10:19:07.383944,14602,1499566747,383671998,0, -13941, -6010, 1303, 6023 , -259, 1145, 1421 
2017/07/09/10:19:07.406429,14603,1499566747,406075954,0, -13949, -5989, 1354, 6014 , -140, 1353, 1401 
2017/07/09/10:19:07.432926,14604,1499566747,432821989,0, -13968, -5968, 1387, 5984 , -111, 1478, 1426 
2017/07/09/10:19:07.451483,14605,1499566747,451204061,0, -14001, -5919, 1397, 5952 , -157, 1295, 1398 
2017/07/09/10:19:07.466017,14606,1499566747,465761899,0, -14028, -5872, 1406, 5933 , -200, 1147, 1483 
2017/07/09/10:19:07.489032,14607,1499566747,488734960,0, -14048, -5847, 1422, 5909 , -159, 1259, 1528 
2017/07/09/10:19:07.503517,14608,1499566747,503273963,0, -14068, -5829, 1431, 5875 , -103, 1339, 1443 
2017/07/09/10:19:07.529742,14609,1499566747,529556035,0, -14093, -5804, 1424, 5841 , -198, 1326, 1426 
2017/07/09/10:19:07.548798,14610,1499566747,548538923,0, -14116, -5777, 1425, 5811 , -122, 1260, 1442 
2017/07/09/10:19:07.563354,14611,1499566747,563277006,0, -14151, -5740, 1410, 5769 , -122, 1217, 1479 
2017/07/09/10:19:07.585959,14612,1499566747,585634946,0, -14187, -5700, 1390, 5722 , -176, 1160, 1467 
2017/07/09/10:19:07.616578,14613,1499566747,616409063,0, -14209, -5682, 1384, 5688 , -160, 1190, 1438 
2017/07/09/10:19:07.623678,14614,1499566747,623502016,0, -14220, -5692, 1390, 5648 , -215, 1373, 1396 
2017/07/09/10:19:07.646127,14615,1499566747,645853996,0, -14241, -5687, 1393, 5600 , -200, 1376, 1428 
2017/07/09/10:19:07.668614,14616,1499566747,668329954,0, -14265, -5666, 1393, 5560 , -129, 1344, 1435 
2017/07/09/10:19:07.683391,14617,1499566747,683131933,0, -14283, -5644, 1393, 5535 , -170, 1289, 1478 
2017/07/09/10:19:07.706661,14618,1499566747,706404924,0, -14296, -5635, 1405, 5510 , -173, 1322, 1522 
2017/07/09/10:19:07.729030,14619,1499566747,728801965,0, -14304, -5642, 1419, 5476 , -166, 1369, 1447 
2017/07/09/10:19:07.743354,14620,1499566747,743238925,0, -14316, -5638, 1426, 5447 , -145, 1386, 1454 
2017/07/09/10:19:07.766325,14621,1499566747,766036987,0, -14334, -5613, 1427, 5427 , -142, 1310, 1466 
2017/07/09/10:19:07.788429,14622,1499566747,788187026,0, -14350, -5585, 1430, 5410 , -107, 1172, 1525 
2017/07/09/10:19:07.803467,14623,1499566747,803335905,0, -14355, -5596, 1440, 5385 , -121, 1286, 1493 
2017/07/09/10:19:07.826018,14624,1499566747,825812101,0, -14356, -5615, 1444, 5360 , -186, 1343, 1441 
2017/07/09/10:19:07.857418,14625,1499566747,857050895,0, -14362, -5616, 1452, 5342 , -117, 1289, 1485 
2017/07/09/10:19:07.871164,14626,1499566747,870918035,0, -14370, -5616, 1459, 5319 , -90, 1234, 1477 
2017/07/09/10:19:07.885865,14627,1499566747,885718107,0, -14382, -5614, 1458, 5288 , -108, 1246, 1489 
2017/07/09/10:19:07.908944,14628,1499566747,908572912,0, -14392, -5616, 1451, 5261 , -196, 1267, 1463 
2017/07/09/10:19:07.923719,14629,1499566747,923489093,0, -14400, -5615, 1455, 5240 , -98, 1247, 1506 
2017/07/09/10:19:07.954154,14630,1499566747,953962087,0, -14402, -5624, 1465, 5221 , -94, 1347, 1491 
2017/07/09/10:19:07.968479,14631,1499566747,968348979,0, -14416, -5616, 1458, 5194 , -134, 1396, 1484 
2017/07/09/10:19:07.990863,14632,1499566747,990711927,0, -14431, -5601, 1450, 5171 , -213, 1267, 1459 
2017/07/09/10:19:08.005857,14633,1499566748,5709886,0, -14433, -5604, 1457, 5158 , -185, 1289, 1490 
2017/07/09/10:19:08.028601,14634,1499566748,28368949,0, -14431, -5616, 1471, 5149 , -127, 1390, 1561 
2017/07/09/10:19:08.043354,14635,1499566748,43265104,0, -14431, -5624, 1477, 5136 , -140, 1429, 1493 
2017/07/09/10:19:08.066513,14636,1499566748,66154003,0, -14436, -5621, 1482, 5125 , -129, 1324, 1476 
2017/07/09/10:19:08.088785,14637,1499566748,88535070,0, -14433, -5629, 1495, 5119 , -99, 1330, 1484 
2017/07/09/10:19:08.103278,14638,1499566748,103168010,0, -14428, -5647, 1507, 5110 , -120, 1370, 1497 
2017/07/09/10:19:08.125833,14639,1499566748,125621080,0, -14423, -5669, 1512, 5099 , -157, 1328, 1482 
2017/07/09/10:19:08.148387,14640,1499566748,148288965,0, -14414, -5693, 1519, 5095 , -151, 1296, 1432 
2017/07/09/10:19:08.163285,14641,1499566748,163121938,0, -14402, -5715, 1520, 5104 , -191, 1348, 1478 
2017/07/09/10:19:08.186142,14642,1499566748,185942888,0, -14392, -5729, 1532, 5113 , -80, 1413, 1520 
2017/07/09/10:19:08.208279,14643,1499566748,208086967,0, -14383, -5745, 1543, 5118 , -130, 1307, 1396 
2017/07/09/10:19:08.223348,14644,1499566748,223176956,0, -14371, -5764, 1549, 5127 , -109, 1355, 1429 
2017/07/09/10:19:08.246889,14645,1499566748,246314048,0, -14367, -5771, 1545, 5133 , -131, 1271, 1483 
2017/07/09/10:19:08.271796,14646,1499566748,271533966,0, -14358, -5784, 1546, 5142 , -135, 1245, 1417 
2017/07/09/10:19:08.283388,14647,1499566748,283225059,0, -14344, -5810, 1551, 5151 , -129, 1351, 1408 
2017/07/09/10:19:08.307636,14648,1499566748,307467937,0, -14336, -5822, 1553, 5161 , -129, 1391, 1439 
2017/07/09/10:19:08.336833,14649,1499566748,336589097,0, -14338, -5810, 1546, 5169 , -148, 1241, 1460 
2017/07/09/10:19:08.343689,14650,1499566748,343420028,0, -14335, -5811, 1549, 5175 , -150, 1187, 1447 
2017/07/09/10:19:08.366331,14651,1499566748,366102933,0, -14324, -5834, 1562, 5177 , -100, 1334, 1395 
2017/07/09/10:19:08.388340,14652,1499566748,388226032,0, -14319, -5840, 1569, 5181 , -91, 1393, 1433 
2017/07/09/10:19:08.411394,14653,1499566748,411039113,0, -14325, -5823, 1566, 5185 , -119, 1224, 1454 
2017/07/09/10:19:08.425893,14654,1499566748,425612926,0, -14327, -5817, 1565, 5187 , -70, 1262, 1454 
2017/07/09/10:19:08.448944,14655,1499566748,448534965,0, -14328, -5815, 1564, 5186 , -76, 1306, 1393 
2017/07/09/10:19:08.471414,14656,1499566748,471162080,0, -14328, -5815, 1563, 5187 , -134, 1266, 1385 
2017/07/09/10:19:08.486066,14657,1499566748,485852003,0, -14326, -5821, 1570, 5185 , -106, 1266, 1411 
2017/07/09/10:19:08.508552,14658,1499566748,508168935,0, -14322, -5834, 1575, 5180 , -90, 1371, 1372 
2017/07/09/10:19:08.530840,14659,1499566748,530607938,0, -14322, -5832, 1574, 5182 , -118, 1406, 1393 
2017/07/09/10:19:08.546299,14660,1499566748,545881986,0, -14321, -5829, 1574, 5185 , -172, 1318, 1390 
2017/07/09/10:19:08.576627,14661,1499566748,576456069,0, -14314, -5842, 1587, 5188 , -126, 1328, 1405 
2017/07/09/10:19:08.591213,14662,1499566748,590975999,0, -14305, -5858, 1603, 5188 , -85, 1382, 1420 
