time,.header.seq,.header.stamp.secs,.header.stamp.nsecs,.header.frame_id,.pose.position.x,.pose.position.y,.pose.position.z,.pose.orientation.x,.pose.orientation.y,.pose.orientation.z,.pose.orientation.w,.twist.linear.x,.twist.linear.y,.twist.linear.z,.twist.angular.x,.twist.angular.y,.twist.angular.z,.wrench.force.x,.wrench.force.y,.wrench.force.z,.wrench.torque.x,.wrench.torque.y,.wrench.torque.z
2017/07/09/10:21:44.262215,528893,1499566907,69536643,,0.78054459836,0.399224839615,0.16590484099,0.622712524542,0.779933110789,0.054855853755,0.0304021344981,-0.00230832958589,0.00135701544485,-0.00302888904747,-0.0211811162076,0.00250260821134,0.0231239875077,9.27340316772,2.96967148781,-2.63693976402,-1.30357563496,3.53759241104,-0.223145514727
2017/07/09/10:21:44.272847,528894,1499566907,79531556,,0.78074381771,0.398836605468,0.165812630038,0.622849308478,0.779823885402,0.0547886566399,0.0305229387248,0.00820414798903,-0.0247549449532,-0.00951110644918,-0.00300932978052,0.00167752176133,-0.0387759713498,8.74411869049,2.73020243645,-2.70963382721,-1.10442280769,3.33152389526,-0.139592558146
2017/07/09/10:21:44.282415,528895,1499566907,89536182,,0.780471010911,0.39882334582,0.165415253043,0.622838346032,0.779861404402,0.0545277899289,0.030254004063,0.00616625300247,-0.0102987451223,-0.00257562992559,-0.0102255247019,-0.00738802152632,-0.000556899638841,8.85850143433,2.69755721092,-2.71105384827,-1.06394398212,3.39593434334,-0.129931300879
2017/07/09/10:21:44.292446,528896,1499566907,99539154,,0.781301943679,0.398370586276,0.166341093881,0.623111898656,0.779555094629,0.0553193994519,0.0310673499954,0.0108115976778,-0.019424657239,0.0021903141731,-0.00329422815793,-0.0127727103343,-0.0364324602726,8.48826980591,2.85251832008,-2.70666146278,-1.08642494678,3.24815392494,-0.12341927737
2017/07/09/10:21:44.302544,528897,1499566907,109535940,,0.781292135932,0.398007948916,0.166018860071,0.623018769713,0.779651997584,0.05492261394,0.0312070781495,0.0132704120329,-0.021237678651,0.00710865544003,-0.0077726013526,-0.0152473992837,-0.0451034274539,7.95656204224,2.72365689278,-2.84397888184,-1.01390028,3.05709695816,-0.114549323916
2017/07/09/10:21:44.312825,528898,1499566907,119573876,,0.781306634166,0.39829833346,0.165929597933,0.623294146199,0.779428810065,0.0551672101302,0.0308498992094,0.00762605110568,-0.0307213497552,0.00340764235809,-0.0206285979975,-0.00476875865121,-0.0427591398689,7.70037317276,2.6597430706,-2.94320821762,-0.997696757317,2.95176053047,-0.133365616202
2017/07/09/10:21:44.322317,528899,1499566907,129535002,,0.781208439221,0.397794764846,0.166136675836,0.623399754759,0.779362217197,0.0548534418336,0.0309577145635,0.00506382940632,0.00282584552221,0.00901572129945,0.0197587654211,-0.0101091895942,-0.0142721028848,7.67304325104,2.84588623047,-2.96828746796,-1.08152294159,2.94318819046,-0.115244224668
2017/07/09/10:21:44.332338,528900,1499566907,139533049,,0.781278455037,0.398047069772,0.166121121227,0.623341988971,0.779399995713,0.0550712572526,0.030782593986,0.0126135485692,-0.0231708972185,-0.00261115509381,-0.00961665032523,-0.0133300442738,-0.0234304917547,7.43000650406,2.72186756134,-3.10977196693,-0.962359070778,2.88317298889,-0.0976928025484
2017/07/09/10:21:44.342557,528901,1499566907,149532702,,0.781449149104,0.39715280843,0.166006931721,0.623656634254,0.779160249682,0.0546933172908,0.0311504239204,0.0129926651947,-0.0314449545882,0.00337776039552,-0.0414140953264,-0.0207341242597,-0.00222536429112,6.86145687103,2.69757866859,-3.18138647079,-0.928766608238,2.63527059555,-0.107385531068
2017/07/09/10:21:44.352107,528902,1499566907,159536229,,0.78204551544,0.397120796245,0.166441325993,0.623607267575,0.779140408328,0.055172930034,0.0317828213063,0.0152109968629,-0.00654515012826,0.00632060033967,-0.00911013231297,-0.0302596865912,-0.00824684868184,6.59986305237,2.68456292152,-3.1237578392,-0.947486341,2.58624577522,-0.104908160865
2017/07/09/10:21:44.362344,528903,1499566907,169531935,,0.781731457623,0.397566595906,0.165817161943,0.623348396832,0.779374581025,0.055060503141,0.0313110142582,0.00961962501193,-0.0183334536431,-0.00256313717474,0.00646909338201,-0.0131178700716,-0.0369602581889,6.49814510345,2.55105471611,-3.11671614647,-0.875030219555,2.58087992668,-0.0963409990072
2017/07/09/10:21:44.372526,528904,1499566907,179538550,,0.781411071517,0.396452000289,0.165854547086,0.623887025157,0.77899164112,0.054432315255,0.0312109910376,0.0163914234058,-0.00918690226465,0.00835794457217,0.0175596007799,-0.027987353175,-0.0394184905095,6.16073608398,2.5814948082,-3.16534018517,-0.871559619904,2.4220957756,-0.101861909032
2017/07/09/10:21:44.382128,528905,1499566907,189537387,,0.781872487005,0.397189078545,0.166462099482,0.623689587241,0.779085487391,0.0552005544972,0.0314642795419,-0.00480264454246,-0.00888660450371,-0.00135536964541,0.00587760635276,0.0135413542334,-0.0080798520728,6.07953357697,2.4902472496,-3.27456140518,-0.856990456581,2.37642359734,-0.135706067085
2017/07/09/10:21:44.392227,528906,1499566907,199530028,,0.78182385671,0.3965095704,0.16627110033,0.623592144905,0.77918314692,0.0548403627871,0.0316068817979,-0.00220353400785,-0.02691797025,-0.00306472138035,-0.00725921324556,0.016024895414,-0.0284763793821,6.05014801025,2.63009405136,-3.0884335041,-0.934748053551,2.38628435135,-0.11417145282
2017/07/09/10:21:44.402307,528907,1499566907,209534089,,0.781713583814,0.395984717079,0.165747817786,0.624424599854,0.778546014335,0.0547269859756,0.0310641218569,0.0106597488812,-0.0345471474226,-0.00692210421297,0.00681379744215,0.00312216728947,-0.0561739369408,6.05515384674,2.53085279465,-3.16979050636,-0.894747376442,2.36290335655,-0.13615167141
2017/07/09/10:21:44.412415,528908,1499566907,219531836,,0.781810722841,0.395693295209,0.16578385668,0.624212071817,0.778714671888,0.0546072163999,0.0313177441791,-0.00294283634672,-0.0334871584257,-0.0115263870982,-0.0119224741569,0.024765284455,-0.041234656955,6.17449426651,2.62605524063,-3.00781965256,-0.917784452438,2.4209959507,-0.128528088331
2017/07/09/10:21:44.422657,528909,1499566907,229536472,,0.782048689681,0.395316421669,0.165901365921,0.624698925943,0.778311735215,0.0547646478287,0.031351684188,-0.00704607746745,-0.042150908462,-0.015590460799,-0.0281283152897,0.0324159423218,-0.0455311322788,6.24796772003,2.46805167198,-2.95360326767,-0.867070138454,2.44933462143,-0.102728888392
2017/07/09/10:21:44.432463,528910,1499566907,239533765,,0.7820434295,0.395091525517,0.165729481958,0.624789999285,0.778241853903,0.0546820570489,0.0314157009111,-0.000148304679712,-0.0311380697288,-0.0176481200063,-0.00412224346866,0.0242415562338,-0.043175455973,6.54414367676,2.59197258949,-2.91257834435,-0.923129320145,2.55204486847,-0.134433105588
2017/07/09/10:21:44.442319,528911,1499566907,249530867,,0.781864029005,0.394551292683,0.165295006455,0.625197588542,0.777947110237,0.0543292683674,0.0312185770571,-0.00587969797295,-0.0435337598736,-0.0249815645555,-0.0281767277049,0.0387851107523,-0.0461391276539,6.56882715225,2.64763426781,-2.82824492455,-0.940372288227,2.55868816376,-0.121183931828
2017/07/09/10:21:44.452479,528912,1499566907,259540384,,0.781624382507,0.394208847234,0.165220655418,0.62518217232,0.777993734609,0.0539117300797,0.0310889961461,-0.0150134574823,-0.0389860402325,-0.0269156391047,-0.0306626618463,0.0565544709015,-0.0223164824839,6.45924711227,2.59313726425,-2.79278063774,-0.87649667263,2.53272342682,-0.113482788205
2017/07/09/10:21:44.462644,528913,1499566907,269531701,,0.781038841881,0.394160651598,0.164315704847,0.62505085162,0.778170607729,0.0532638375005,0.0304121977241,0.000362669088839,-0.0328638829484,-0.022355332375,-0.0122475128676,0.0293458190145,-0.0391149351388,6.71762228012,2.60940122604,-2.85552334785,-0.844613075256,2.63777112961,-0.0837007910013
2017/07/09/10:21:44.472352,528914,1499566907,279538497,,0.781466066849,0.393169551877,0.164168641898,0.625913612982,0.777467777623,0.05327641775,0.0306206981433,0.00209717299567,-0.0405362164754,-0.0327031962375,-0.0111396676261,0.0438616011621,-0.0630056968332,6.78586435318,2.50516486168,-2.84669685364,-0.750406265259,2.65562963486,-0.039698690176
2017/07/09/10:21:44.482620,528915,1499566907,289535365,,0.781437540418,0.392771312053,0.163827659841,0.625878544413,0.777506651136,0.0531508736431,0.0305686066623,0.0017795916326,-0.0563777182653,-0.0299960092957,-0.0228229436892,0.034823114181,-0.0734741290376,6.44361829758,2.72794270515,-2.67012500763,-0.913913905621,2.52873921394,-0.112702943385
2017/07/09/10:21:44.492481,528916,1499566907,299541825,,0.781729769317,0.39235599292,0.164018123329,0.625883622678,0.777485145715,0.0532753188511,0.0307941464828,0.0035826615579,-0.0504031309507,-0.0337368207762,-0.00219402655354,0.0350663641955,-0.0654857642018,5.93330669403,2.40799450874,-2.22851109505,-0.722231626511,2.37963652611,-0.073911190033
2017/07/09/10:21:44.502536,528917,1499566907,309533298,,0.781590836373,0.39188629637,0.163319663134,0.626116069748,0.777332087929,0.0528776113657,0.0306178133677,-0.0134538415374,-0.0280977247657,-0.0421945755478,0.000218115878285,0.0664851276527,-0.0375557844401,5.83839321136,2.55059456825,-2.03300857544,-0.829444527626,2.35995912552,-0.0937822237611
2017/07/09/10:21:44.512449,528918,1499566907,319544968,,0.780948167026,0.392273433598,0.162526466392,0.625990760687,0.777488375665,0.0524637509105,0.0299156828558,-0.00954232464611,-0.0667856398934,-0.0407994558707,-0.0328927717895,0.073244918116,-0.069534891607,6.41648101807,3.83144021034,-1.87600672245,-1.48086094856,2.52737474442,-0.242045342922
2017/07/09/10:21:44.522555,528919,1499566907,329534349,,0.781394096147,0.391048440211,0.162329221827,0.626795044766,0.776856802943,0.0522041020516,0.0299367885202,-0.0130559064248,-0.0330752063191,-0.0565927167776,-0.02760383326,0.0758465328246,-0.0464971678728,6.72120428085,4.69613647461,-1.78043866158,-1.89016163349,2.63777542114,-0.333536028862
2017/07/09/10:21:44.532419,528920,1499566907,339530825,,0.781520000699,0.390364594866,0.16185620621,0.626979771382,0.776716457605,0.0519771220648,0.0301046432422,-0.0122653438981,-0.0288426539619,-0.0470694639712,-0.0110697567778,0.0757814586584,-0.0535689467358,6.9337849617,5.01096057892,-1.81267404556,-1.9790585041,2.69548487663,-0.330296188593
2017/07/09/10:21:44.542310,528921,1499566907,349531391,,0.781392685872,0.389776035626,0.161595628108,0.627294896528,0.776490051135,0.051696240485,0.029863221489,-0.0160350568558,-0.0447071395492,-0.0504061952898,-0.0184259635079,0.0897118529116,-0.0511097543376,6.39014387131,4.48157548904,-1.69410288334,-1.62769138813,2.51344633102,-0.233390599489
2017/07/09/10:21:44.552399,528922,1499566907,359543831,,0.780744741299,0.389052319871,0.160504172318,0.627807748143,0.776162418618,0.0507183419944,0.0292742392237,-0.00284875726592,-0.0837863897552,-0.0467650558464,-0.0538334615738,0.065033733631,-0.0823805964927,4.81992053986,3.92642474174,-1.25215566158,-1.49840986729,1.92054784298,-0.275892704725
2017/07/09/10:21:44.562362,528923,1499566907,369532233,,0.78079512463,0.388982335091,0.160241039124,0.627828962648,0.776146479884,0.0507684161445,0.0291548168473,-0.0191932458204,-0.0871998966569,-0.0666895163634,-0.0701493527101,0.106948556994,-0.0980826564326,3.26556587219,2.92777180672,-0.728513717651,-1.12612342834,1.33524274826,-0.195397973061
2017/07/09/10:21:44.572440,528924,1499566907,379534600,,0.780668734625,0.387850286217,0.159561822749,0.628218242571,0.775872433594,0.0500444484929,0.0293148369363,0.0187894865644,-0.0897571148096,-0.0348493061569,-0.0649841285547,0.011788382654,-0.100695283695,2.13341999054,1.88973581791,-0.257766902447,-0.867566108704,0.933565318584,-0.262541502714
2017/07/09/10:21:44.582353,528925,1499566907,389553563,,0.781224544903,0.387392145906,0.159697149407,0.628385603943,0.775714732606,0.0501868711485,0.0296557640204,0.000675771702016,-0.0934404179221,-0.0501492940745,-0.0615623314909,0.0559316777756,-0.107676002281,2.37785029411,1.70500552654,0.0431940183043,-0.821772575378,1.08330619335,-0.214281260967
2017/07/09/10:21:44.592397,528926,1499566907,399535143,,0.780631250927,0.385336417699,0.158444520163,0.629230030131,0.775141811433,0.0486590160559,0.0292752712446,0.0035971513898,-0.0908430237185,-0.0574964204622,-0.0489682271137,0.0581158952227,-0.130501698846,2.32944989204,1.8393611908,0.203951850533,-0.825488090515,1.05709886551,-0.219366416335
2017/07/09/10:21:44.602195,528927,1499566907,409532306,,0.781171689081,0.384533099886,0.158373057033,0.629949645214,0.774540563265,0.04873627785,0.0295826904233,-0.0108701677099,-0.0841250841553,-0.0652697061379,-0.0630635236175,0.0915200200618,-0.11722300216,2.38545560837,1.8130710125,0.203175246716,-0.811962902546,1.05933201313,-0.223497569561
2017/07/09/10:21:44.612568,528928,1499566907,419535027,,0.780560168201,0.384347492711,0.157774597298,0.630235544086,0.774364574475,0.0481824918007,0.0290019353096,-0.00673709279411,-0.112405243125,-0.0591520093934,-0.0875320866615,0.0891054037181,-0.141260410355,2.88910770416,1.75956428051,0.182815849781,-0.701996266842,1.24727082253,-0.136176034808
2017/07/09/10:21:44.622453,528929,1499566907,429532837,,0.780756326853,0.383358539612,0.157288653612,0.630361934872,0.774287194316,0.0475306281253,0.0293940669761,0.00587134735802,-0.102849998624,-0.0472045943329,-0.075656072477,0.0646898657364,-0.130933950289,1.93629479408,1.78738319874,0.0179866142571,-0.62769806385,0.841309964657,-0.173865690827
2017/07/09/10:21:44.632497,528930,1499566907,439540262,,0.78078620663,0.382506384951,0.156561606823,0.630787062554,0.77397711502,0.0470655992886,0.0291879513398,0.00111587779592,-0.113526709383,-0.0574028618686,-0.115448945523,0.0726635333929,-0.112200255715,1.72020959854,1.56835174561,0.0487096384168,-0.526569128036,0.745645821095,-0.14120259881
2017/07/09/10:21:44.642297,528931,1499566907,449534985,,0.781000682443,0.379924113664,0.15572452573,0.6318385514,0.773162094843,0.0460708210014,0.0296293691215,-0.00998622314877,-0.122869452022,-0.0705122584009,-0.120669545946,0.105832120555,-0.120161167033,1.79189610481,1.92803359032,-0.0200996287167,-0.737177968025,0.753277420998,-0.201343074441
2017/07/09/10:21:44.652437,528932,1499566907,459530116,,0.780682557272,0.379291949019,0.154830123093,0.632002767015,0.773090412313,0.0451104490668,0.0294748071924,-0.00586128836277,-0.135344824176,-0.0713232893173,-0.0947048306047,0.098617594808,-0.173313086894,1.93810868263,1.71317017078,0.0317241549492,-0.613067746162,0.823935568333,-0.160272866488
2017/07/09/10:21:44.662321,528933,1499566907,469533240,,0.78069227341,0.3781688999,0.154310825292,0.63265135372,0.77258253279,0.044729823742,0.0294573850133,-0.000760590955906,-0.12187154389,-0.0757304200901,-0.0968869667921,0.0931621308902,-0.139928147573,1.74099993706,0.930615782738,-0.0329070165753,-0.263352304697,0.773269832134,-0.12160884589
2017/07/09/10:21:44.672534,528934,1499566907,479536021,,0.780999885018,0.375998302449,0.154499716683,0.633563346936,0.771849092692,0.0441811986248,0.0299079457394,0.0113512602896,-0.135483453914,-0.0547682796829,-0.0928457984759,0.0501000637052,-0.164838222971,2.15706777573,0.376438081264,-0.28996694088,-0.0537583753467,0.908932387829,-0.0927709788084
2017/07/09/10:21:44.682372,528935,1499566907,489571922,,0.780809251165,0.374755980661,0.153247633141,0.634391278033,0.771228027499,0.0431807292648,0.0298405860524,0.00259605359621,-0.140811518818,-0.0634617369652,-0.0889736472007,0.0801781957483,-0.169496384644,1.98289239407,-0.00613996386528,-0.0737246051431,0.204524517059,0.86994934082,-0.0271316170692
2017/07/09/10:21:44.692241,528936,1499566907,499537597,,0.780643387259,0.373611984333,0.152376260385,0.634736277907,0.770990730124,0.0427419312333,0.0292622433471,-0.00955557733264,-0.137023142345,-0.0770185744355,-0.0842729009844,0.110772652309,-0.171862959564,1.96345758438,0.186902850866,0.0421709865332,0.0490508824587,0.844488918781,-0.077818274498
2017/07/09/10:21:44.702380,528937,1499566907,509533371,,0.781324759006,0.372909807717,0.152379882661,0.635491919741,0.770349212298,0.0428371944949,0.0296156347953,-0.00713687466342,-0.138198524878,-0.0730935551259,-0.0877595901265,0.101163399908,-0.18109876538,2.54905462265,1.13487184048,-0.0510484352708,-0.4906424582,1.00757598877,-0.207706704736
2017/07/09/10:21:44.712181,528938,1499566907,519531054,,0.780472361856,0.371826147783,0.151045166782,0.63592732086,0.770085972232,0.0415228157364,0.0289809200705,-0.0140157154061,-0.1545432225,-0.0783319532221,-0.0919098299007,0.136636124605,-0.209373007454,2.45864582062,1.26198136806,0.0259745381773,-0.541126191616,0.937378823757,-0.207239747047
2017/07/09/10:21:44.722421,528939,1499566907,529530887,,0.780893456322,0.369204709946,0.150537041101,0.637195231035,0.769059699983,0.0407535155023,0.0294714503058,-0.01004645089,-0.141840498955,-0.0786574932086,-0.0862267958326,0.124319648868,-0.194964136333,2.34388303757,1.43775475025,-0.135632902384,-0.589973449707,0.870552122593,-0.205052763224
2017/07/09/10:21:44.732469,528940,1499566907,539538425,,0.780104028057,0.368682406783,0.149353813488,0.637451259698,0.768928840725,0.0397915864046,0.0286523831834,-0.0134440039997,-0.18354061451,-0.0875753969927,-0.131272325383,0.135753694668,-0.212356363414,2.66919517517,1.64521169662,-0.148100018501,-0.660020649433,0.951645433903,-0.230801612139
2017/07/09/10:21:44.742389,528941,1499566907,549535484,,0.780244353293,0.366098173976,0.148225415261,0.63894673377,0.767731315073,0.0390075592883,0.0285326055562,-0.00980617259545,-0.177127876229,-0.0848199046146,-0.138863649335,0.122372259603,-0.197697263142,2.86978816986,1.69213700294,-0.0585394501686,-0.644726634026,1.02561640739,-0.219706952572
2017/07/09/10:21:44.752391,528942,1499566907,559539303,,0.779906240185,0.365127563756,0.147607515937,0.639130095587,0.767631252553,0.0380752270095,0.0283770700961,0.0053888130527,-0.182570053219,-0.0769124327516,-0.0999578474439,0.0949714483777,-0.250515358958,2.8835811615,1.52503466606,-0.117811009288,-0.532152712345,1.01727747917,-0.199211448431
2017/07/09/10:21:44.762791,528943,1499566907,569531467,,0.780593629485,0.362870009316,0.147340385015,0.64043561709,0.766530230815,0.0378467711467,0.0290042673065,-0.0105907848323,-0.17093301118,-0.0944144640994,-0.106583947645,0.126962770599,-0.200523574412,3.38039183617,1.50301194191,-0.125398039818,-0.516159653664,1.20908522606,-0.185745641589
2017/07/09/10:21:44.772403,528944,1499566907,579538239,,0.780189236294,0.360880731875,0.146038123531,0.641181404475,0.765982479104,0.0363086403546,0.0289643038367,-0.0149979128796,-0.19371849059,-0.103481466836,-0.115428015446,0.144816281093,-0.236612557555,3.51747941971,1.54373860359,-0.140220239758,-0.591169238091,1.24690413475,-0.205129653215
2017/07/09/10:21:44.782699,528945,1499566907,589532047,,0.779713912714,0.35900980659,0.144770998705,0.64180667341,0.765532453554,0.035148324089,0.0284403206009,-0.000467004263147,-0.193636699245,-0.0881166140775,-0.132543643214,0.114295054762,-0.228774490925,3.24439740181,1.55385565758,-0.180704295635,-0.678910672665,1.10324287415,-0.278780519962
2017/07/09/10:21:44.792787,528946,1499566907,599538554,,0.779422977826,0.357119239559,0.144092972223,0.64309666512,0.764502920519,0.0343313977659,0.0279878358759,-0.0229586031081,-0.210490062584,-0.109130338864,-0.1197776674,0.176324403178,-0.274031441844,3.14433097839,1.24111604691,-0.268582135439,-0.591674625874,1.04872083664,-0.261590152979
2017/07/09/10:21:44.802527,528947,1499566907,609540278,,0.779759865413,0.354685028519,0.143261779261,0.644106996301,0.763667399707,0.033793008948,0.0282190093138,-0.0105035804569,-0.189815623555,-0.0966312774974,-0.0867617769133,0.139624401831,-0.253814624642,2.91856622696,1.45442128181,-0.370779514313,-0.687942743301,0.933240771294,-0.260083407164
2017/07/09/10:21:44.812588,528948,1499566907,619540605,,0.779893251788,0.353227128605,0.141941341389,0.644913041225,0.763025855378,0.0330856264762,0.0280009750366,-0.00684364251051,-0.18608940885,-0.0950468461652,-0.0856006805882,0.135249956378,-0.234626270932,2.60121250153,1.39326715469,-0.341708928347,-0.614904403687,0.817092180252,-0.249607473612
2017/07/09/10:21:44.822372,528949,1499566907,629534660,,0.77907384588,0.352273062621,0.140596630063,0.645619880543,0.762505003984,0.0320949983425,0.0270370084936,0.00253673046636,-0.199764959888,-0.0971301808555,-0.080159796527,0.117298085845,-0.285099633797,2.38175797462,1.41181766987,-0.175762444735,-0.596810817719,0.750757455826,-0.219062060118
2017/07/09/10:21:44.832414,528950,1499566907,639531463,,0.779188551576,0.348977626172,0.139678374439,0.647012081585,0.761361901483,0.0310452276151,0.0271958654081,-0.0255802214772,-0.202498283832,-0.117010968495,-0.0927175140935,0.177564382876,-0.257676612938,2.07267713547,1.24368095398,-0.0874157100916,-0.491209179163,0.638504326344,-0.241194173694
2017/07/09/10:21:44.842677,528951,1499566907,649533342,,0.779405044427,0.347679440091,0.138613595081,0.647723651444,0.76077032687,0.030577339065,0.0273424111807,-0.0175592057926,-0.225336361991,-0.11742246703,-0.124597971477,0.164122471472,-0.261921626622,1.90640175343,1.09313595295,0.0996896997094,-0.439892560244,0.619918704033,-0.223998472095
2017/07/09/10:21:44.852431,528952,1499566907,659543725,,0.779144899729,0.345434589926,0.137161276869,0.64878344665,0.759930326925,0.0293832597164,0.0268805063514,-0.0135672306866,-0.209695444566,-0.122754773821,-0.0982362685121,0.158149801192,-0.256288097538,1.78778171539,1.01716578007,0.244192153215,-0.375965893269,0.579080462456,-0.230747312307
2017/07/09/10:21:44.862290,528953,1499566907,669542445,,0.77929614024,0.34306507066,0.136763114217,0.650088813042,0.758829287465,0.0287759166803,0.0271033994619,-0.0132622450792,-0.225501951177,-0.123467605475,-0.101542936744,0.161309296747,-0.294625759188,1.75272989273,0.929828882217,0.152891084552,-0.363115429878,0.588905155659,-0.240532308817
2017/07/09/10:21:44.872487,528954,1499566907,679537319,,0.778621826802,0.3413793232,0.134822426091,0.650547828438,0.758514532238,0.0274245040801,0.0262892349398,-0.0160375132951,-0.225435474196,-0.122549682714,-0.123752270716,0.163954076882,-0.271491682527,2.060744524,1.0439286232,-0.0331147313118,-0.378446877003,0.685926556587,-0.218185067177
2017/07/09/10:21:44.882512,528955,1499566907,689531338,,0.778627954151,0.338613629205,0.133941652055,0.65210219284,0.757210025607,0.0264860392808,0.0263476172871,-0.0197609377825,-0.209039430975,-0.120260094507,-0.111473143036,0.169533500012,-0.24540610308,2.49167990685,1.16494095325,-0.28199288249,-0.378700256348,0.841075241566,-0.223517239094
2017/07/09/10:21:44.892342,528956,1499566907,699535022,,0.778473904581,0.336909107986,0.132668461157,0.652624521811,0.756807180384,0.0255257844511,0.0259337536613,-0.0250056735369,-0.228978871616,-0.129045292953,-0.106032673457,0.190331936046,-0.272979572271,2.56059408188,1.07263898849,-0.471104115248,-0.368488579988,0.8541046381,-0.208413183689
2017/07/09/10:21:44.902639,528957,1499566907,709531110,,0.778167252923,0.334083763487,0.131670906532,0.653797744679,0.755836863681,0.0241656777123,0.0259839291505,-0.0154115196333,-0.227087492268,-0.124657329885,-0.11239999745,0.168552786025,-0.266154537127,2.61758756638,1.31288790703,-0.55212187767,-0.627676904202,0.844517469406,-0.283470660448
2017/07/09/10:21:44.912492,528958,1499566907,719537649,,0.778001179773,0.332434556163,0.130064815448,0.654753900771,0.755052596818,0.0233661250937,0.0254348120181,-0.027038877428,-0.224483799796,-0.131670018781,-0.124149587616,0.187376682566,-0.250778937717,2.21552038193,1.30504930019,-0.43127644062,-0.672160744667,0.689488947392,-0.278282135725
2017/07/09/10:21:44.922554,528959,1499566907,729532851,,0.777700474785,0.329910750459,0.128868114464,0.655373923393,0.754553615306,0.022130817318,0.0253789103406,-0.0205379975309,-0.241908638162,-0.139024779344,-0.134991513589,0.180265954652,-0.268547000713,2.18759226799,1.20340263844,-0.425845891237,-0.617932140827,0.672982215881,-0.272959649563
2017/07/09/10:21:44.932523,528960,1499566907,739534982,,0.777566407461,0.327296187045,0.127438982256,0.656499749842,0.753614354802,0.0209769990534,0.0251683969289,-0.0103007067416,-0.239049091378,-0.131416896385,-0.134899570071,0.149501259792,-0.232800483295,2.64658355713,1.36725723743,-0.542418062687,-0.715654015541,0.846235394478,-0.295801579952
2017/07/09/10:21:44.942378,528961,1499566907,749532158,,0.777254229396,0.324915529481,0.12593415462,0.657273851388,0.752980980121,0.0196618176967,0.0249828097421,-0.0192162655867,-0.245655475747,-0.133665201066,-0.145361674258,0.168437824474,-0.248249324825,2.14525961876,1.02154994011,-0.588364064693,-0.414420038462,0.676308989525,-0.212366342545
2017/07/09/10:21:44.952218,528962,1499566907,759532073,,0.777442390727,0.321739419329,0.125140679955,0.658426081557,0.751981660185,0.0187295770865,0.025453502964,-0.0276902856173,-0.272994530733,-0.14528023496,-0.186648060328,0.19260088668,-0.233915663521,2.1444170475,0.861186921597,-0.653546333313,-0.295243531466,0.695669233799,-0.219376325607
2017/07/09/10:21:44.962583,528963,1499566907,769533004,,0.776986821699,0.318454010833,0.123097571632,0.659517889376,0.751075247348,0.0168813624099,0.0252417514794,-0.0259616671684,-0.284576323169,-0.142685007082,-0.213733078075,0.187086561369,-0.231011595947,2.01826095581,0.902112603188,-0.541940748692,-0.226828858256,0.685404777527,-0.166055977345
2017/07/09/10:21:44.972515,528964,1499566907,779538854,,0.776914380938,0.317533447849,0.122277625316,0.65983802457,0.750809951068,0.0162536950484,0.0251796764617,-0.0192570570088,-0.275693212069,-0.129583128466,-0.178362395958,0.158322012091,-0.258739026252,1.21105182171,0.852840185165,-0.280096948147,-0.230785831809,0.384116053581,-0.183992236853
2017/07/09/10:21:44.982513,528965,1499566907,789531788,,0.776748337935,0.314207019446,0.120997351873,0.660942576831,0.749861092767,0.0148331481652,0.0253619676359,-0.0188357495486,-0.264755194191,-0.139122480584,-0.179904543622,0.16410144743,-0.249352804942,1.05883800983,0.868777453899,-0.34083211422,-0.317804545164,0.282664090395,-0.192362457514
2017/07/09/10:21:44.992472,528966,1499566907,799538339,,0.776347773187,0.311796610087,0.119004756275,0.661443930261,0.749448457977,0.0134712084747,0.0252480197074,-0.0257826894664,-0.286588746633,-0.150228458298,-0.192571057048,0.183613126059,-0.270842407941,1.31298184395,0.851451635361,-0.289659917355,-0.325803518295,0.414438784122,-0.206592127681
2017/07/09/10:21:45.002385,528967,1499566907,809530760,,0.77644806183,0.307877406018,0.118348241862,0.66299309092,0.748082272048,0.0122543419366,0.0257469754162,-0.0303042561134,-0.267198317793,-0.143943454865,-0.182445994015,0.189857785533,-0.235796352172,1.69594359398,1.0032684803,-0.473937630653,-0.450699478388,0.560518622398,-0.232050001621
2017/07/09/10:21:45.012415,528968,1499566907,819538066,,0.776066597471,0.305840991214,0.116621810817,0.663312995419,0.747839834625,0.0109005967919,0.0251521141405,-0.0113841205223,-0.3013693727,-0.126854892122,-0.205745430308,0.140362585036,-0.244171959362,1.16331851482,0.922487139702,-0.450455099344,-0.341461390257,0.343322426081,-0.196227222681
2017/07/09/10:21:45.022448,528969,1499566907,829541459,,0.775315547841,0.302621048874,0.11500360325,0.663950716598,0.747296977867,0.00893023483817,0.0252373474397,-0.0281139842617,-0.305666564846,-0.135448091605,-0.218060200596,0.176567188844,-0.246619122255,1.49847459793,1.00848543644,-0.624361038208,-0.419739633799,0.458719193935,-0.223465487361
2017/07/09/10:21:45.032494,528970,1499566907,839535498,,0.77551177775,0.299337071146,0.11409308656,0.665160909161,0.746211201295,0.00781916318874,0.025858628603,-0.0334802855906,-0.314676570703,-0.137712361949,-0.23727824055,0.176341683576,-0.224005732637,1.48857104778,0.716794550419,-0.537640631199,-0.314163148403,0.490461856127,-0.217508077621
2017/07/09/10:21:45.042197,528971,1499566907,849533095,,0.775099510204,0.296905718705,0.112591348425,0.666073866626,0.745419262279,0.00646722563416,0.025571519592,-0.0212808700637,-0.305343645918,-0.139615415956,-0.242949284766,0.15465321226,-0.230993052799,1.85261642933,0.853133678436,-0.71443426609,-0.318478316069,0.601707756519,-0.228459984064
2017/07/09/10:21:45.052444,528972,1499566907,859540292,,0.774750252718,0.293971005252,0.111398753112,0.666321125582,0.745195829778,0.00499404692215,0.0259690658246,-0.0348555986671,-0.338078878607,-0.146474251981,-0.247117979427,0.185140513404,-0.26245202877,1.36225914955,0.615228533745,-0.573300302029,-0.131834328175,0.422233819962,-0.149435654283
2017/07/09/10:21:45.062540,528973,1499566907,869532429,,0.774857876425,0.289753401389,0.109940946747,0.667961033027,0.743721951093,0.00366449781676,0.0263113905945,-0.0292614425114,-0.32129247731,-0.136096513118,-0.231098319256,0.168816021532,-0.217451146086,1.075299263,0.874541521072,-0.401313275099,-0.276736944914,0.308092147112,-0.199053376913
2017/07/09/10:21:45.072558,528974,1499566907,879541861,,0.774592109102,0.287003501443,0.109073550391,0.668618250169,0.743126886978,0.00237952298207,0.0265782478937,-0.0388948404603,-0.327614664679,-0.138810724651,-0.245723920009,0.191395278872,-0.234688583414,1.2280548811,0.845376074314,-0.441011160612,-0.223375290632,0.364108979702,-0.18357026577
2017/07/09/10:21:45.082260,528975,1499566907,889532183,,0.774379193072,0.282721174742,0.107863992095,0.669555902473,0.742267630015,0.000702041578102,0.0270770388505,-0.0261483193303,-0.361272809757,-0.126859833309,-0.289941315359,0.152208995597,-0.229711065702,1.3622238636,0.767195224762,-0.634828686714,-0.226744756103,0.380043566227,-0.190393924713
2017/07/09/10:21:45.092279,528976,1499566907,899540075,,0.773285979886,0.280938389808,0.106169832288,0.669574976718,0.742265509842,-0.00110891550455,0.0266464586451,-0.0355086228582,-0.348582247984,-0.125400089909,-0.286863434036,0.17203429104,-0.219758470062,1.38533461094,0.840126812458,-0.352067023516,-0.27948731184,0.37132486701,-0.217211529613
2017/07/09/10:21:45.102221,528977,1499566907,909536275,,0.77353121754,0.27582480505,0.105393535122,0.671476495502,0.740502947316,-0.0029276837578,0.0276790475185,-0.0373501606688,-0.369329610616,-0.135676812138,-0.304947798598,0.168484370206,-0.233301089003,1.41185736656,0.737745523453,-0.459408223629,-0.292663365602,0.337393164635,-0.203886643052
2017/07/09/10:21:45.112524,528978,1499566907,919540053,,0.772878356995,0.27239451734,0.103525462206,0.67162637852,0.740337663997,-0.00515771388581,0.0281344793948,-0.0414181794223,-0.387642074005,-0.133395915242,-0.333624333632,0.185132800022,-0.230863590552,1.91303277016,0.745818734169,-0.519391596317,-0.239045709372,0.499670505524,-0.207709684968
2017/07/09/10:21:45.122315,528979,1499566907,929537622,,0.772555491315,0.26832828625,0.102624617809,0.672619116463,0.739409327327,-0.00667641311969,0.0285095832733,-0.047227058874,-0.385861169061,-0.135083161375,-0.333977933955,0.19126355989,-0.201728255503,1.90850293636,0.614823043346,-0.550898790359,-0.0877197384834,0.480911880732,-0.156277313828
2017/07/09/10:21:45.132397,528980,1499566907,939530726,,0.772216323699,0.263960010557,0.101250527466,0.673512594804,0.73854901734,-0.00844396445353,0.0292375288,-0.043346551297,-0.379185691535,-0.124162592417,-0.327575467062,0.169878825185,-0.21016853978,1.24102973938,0.516158461571,-0.495462059975,-0.0478702373803,0.195893496275,-0.150780588388
2017/07/09/10:21:45.142531,528981,1499566907,949539049,,0.771796825773,0.260940717414,0.100087395628,0.673676279768,0.738355261377,-0.010393430559,0.0297280116495,-0.0250758266679,-0.413479238245,-0.103885637786,-0.377202833245,0.123342703689,-0.231390768347,1.31965315342,0.570030868053,-0.520743250847,-0.084731400013,0.177066504955,-0.171923220158
2017/07/09/10:21:45.152286,528982,1499566907,959552732,,0.77169913227,0.256986664148,0.09938340404,0.674274900953,0.737750048755,-0.0119958052916,0.0305667165736,-0.0374729463405,-0.423281238357,-0.124092856755,-0.408305861326,0.168748492191,-0.211366861022,1.90897810459,0.608195900917,-0.935684561729,-0.125649571419,0.360213369131,-0.167455747724
2017/07/09/10:21:45.162436,528983,1499566907,969531361,,0.77091491333,0.253264238507,0.0978473381501,0.674892604576,0.737130933159,-0.0142731480446,0.0308907253757,-0.0316783719213,-0.435762790559,-0.110906759171,-0.400345525485,0.140475117838,-0.241492620318,2.10756993294,0.693569540977,-1.10002732277,-0.240318998694,0.380966335535,-0.207238674164
2017/07/09/10:21:45.172441,528984,1499566907,979534980,,0.77120944822,0.248824507388,0.0970698821854,0.67595352844,0.736071786719,-0.0157515541647,0.032203116723,-0.0409761931226,-0.424012251374,-0.112911704988,-0.363428129755,0.150437446318,-0.23008028127,2.07445764542,0.615530848503,-1.09588944912,-0.110533468425,0.35682708025,-0.133391618729
2017/07/09/10:21:45.182327,528985,1499566907,989534101,,0.770887346978,0.244361598504,0.0964203647344,0.677109768731,0.73494040079,-0.017385467632,0.0329046180711,-0.0336438638189,-0.419737251176,-0.102218661416,-0.362610294373,0.128439486802,-0.212260318907,2.37027597427,0.627498865128,-1.11670172215,-0.177456408739,0.465077280998,-0.170288562775
2017/07/09/10:21:45.192413,528986,1499566907,999531811,,0.770401236749,0.240002371283,0.0946634794047,0.677386828776,0.734607861616,-0.0194856281152,0.0334467359994,-0.0439447312066,-0.442482807422,-0.117357775917,-0.393522772529,0.153279338703,-0.240697517196,2.81746506691,0.543960094452,-1.09057736397,-0.0885031819344,0.667086482048,-0.171333104372
2017/07/09/10:21:45.202610,528987,1499566908,9534363,,0.769621553665,0.235971505945,0.0937720851964,0.678564037419,0.733463665024,-0.0211669376151,0.0336728371775,-0.0446962423498,-0.446282398435,-0.122193408662,-0.364806800625,0.150118696075,-0.273081982318,2.85381579399,0.665741086006,-1.13365328312,-0.258191168308,0.714121222496,-0.229340612888
2017/07/09/10:21:45.212588,528988,1499566908,19544079,,0.769504089627,0.23229149449,0.0926904724615,0.679381617752,0.732628535059,-0.0225416123782,0.0344662558101,-0.0275184052465,-0.456632600941,-0.104910598555,-0.363688675449,0.0988444249674,-0.277616186304,2.51924991608,0.512705087662,-0.949343204498,-0.110156103969,0.591080069542,-0.160349547863
2017/07/09/10:21:45.222237,528989,1499566908,29534020,,0.76936852329,0.226913383432,0.0919880028054,0.680509494198,0.731467239665,-0.0243556405002,0.0356273543542,-0.0240353552436,-0.448797906942,-0.0928070705655,-0.369419668038,0.086683598816,-0.255936110785,1.89739370346,0.362394809723,-0.661747992039,-0.0649297460914,0.389661759138,-0.160113468766
2017/07/09/10:21:45.232523,528990,1499566908,39548645,,0.769004357116,0.223194671336,0.0908033957529,0.681216646437,0.730726599863,-0.0260130340922,0.036136393394,-0.0237528005872,-0.452040117,-0.0905955585351,-0.364561361343,0.0849169221205,-0.262626039146,2.04247546196,0.603195726871,-0.56689709425,-0.15982376039,0.475564569235,-0.193004265428
2017/07/09/10:21:45.242308,528991,1499566908,49534170,,0.768585132612,0.219980195982,0.0898020767327,0.681867560365,0.730052549211,-0.0273678906855,0.0364815579626,-0.0490530346795,-0.444501880313,-0.103671658323,-0.334414316254,0.132626377613,-0.278966799002,2.22484970093,0.4387768507,-0.568192064762,-0.0888429507613,0.563583672047,-0.175193607807
2017/07/09/10:21:45.252327,528992,1499566908,59531544,,0.768533226724,0.214648522331,0.0895279135891,0.683124570225,0.728753220979,-0.0287375294375,0.0378644803264,-0.0426045540879,-0.428010345731,-0.0953127269303,-0.323638755782,0.110832908152,-0.264293849379,2.10992264748,0.33465385437,-0.7698802948,-0.0818815901875,0.532954633236,-0.216025918722
2017/07/09/10:21:45.262290,528993,1499566908,69532083,,0.767817553361,0.211018731787,0.0880085900959,0.683643868457,0.728193274631,-0.0302889618603,0.0380551532862,-0.0230584704059,-0.436008719052,-0.0755898312644,-0.295487111936,0.0572901027678,-0.307072305129,2.31189036369,0.37705975771,-0.609613776207,-0.0586450062692,0.639877378941,-0.20892162621
2017/07/09/10:21:45.272601,528994,1499566908,79536569,,0.768076370613,0.206095802184,0.08812189069,0.685620615154,0.726254982969,-0.0309924701617,0.038955597555,-0.0459458231074,-0.467799513001,-0.0847159995555,-0.287483750011,0.0961442279463,-0.376202201688,2.32864451408,0.462477147579,-0.801577329636,-0.118802458048,0.674924314022,-0.206545218825
2017/07/09/10:21:45.282247,528995,1499566908,89535233,,0.766805694735,0.201186303369,0.0862466537169,0.687218955801,0.724693621238,-0.0327086346868,0.0384630646444,-0.0456889869944,-0.469526991315,-0.0766253923182,-0.263463093569,0.0897276356821,-0.430258125332,1.79698050022,0.268410921097,-0.682629883289,-0.0287891626358,0.482393443584,-0.19312441349
2017/07/09/10:21:45.292433,528996,1499566908,99532008,,0.766963862216,0.198035163779,0.0864849983414,0.688096376855,0.723771488738,-0.0334190825779,0.0395142147767,-0.0575451925237,-0.444437867052,-0.0867290238531,-0.221725296552,0.116653640104,-0.409941011031,1.53439998627,0.448262363672,-0.796963691711,-0.11979483068,0.418443799019,-0.187932640314
2017/07/09/10:21:45.302533,528997,1499566908,109533136,,0.765775698811,0.193438499078,0.0852128884121,0.689658327544,0.722231907425,-0.0349839961728,0.0390970991141,-0.0540734472913,-0.414186912707,-0.0799371089836,-0.185355932709,0.102163112207,-0.392097037089,0.849443018436,0.262747377157,-0.746970117092,-0.0548059642315,0.186861589551,-0.173385664821
2017/07/09/10:21:45.312351,528998,1499566908,119535069,,0.765749252235,0.190361177959,0.0846554936314,0.690915263922,0.721006646509,-0.0352746969298,0.0392582415121,-0.046160781431,-0.423633728915,-0.0787781571753,-0.148430212031,0.0773561249004,-0.42602035895,0.981023132801,0.466079771519,-0.705582141876,-0.150548815727,0.25393345952,-0.195994496346
2017/07/09/10:21:45.322311,528999,1499566908,129534335,,0.765469965745,0.186286771786,0.0838970804669,0.692578838238,0.719395778182,-0.0355816305199,0.0392200806747,-0.0445957902189,-0.418035798746,-0.0775305107011,-0.110557581125,0.0628052760393,-0.468823683362,0.492653518915,0.457558333874,-0.684655606747,-0.164565682411,0.118131905794,-0.1892593503
2017/07/09/10:21:45.332492,529000,1499566908,139538416,,0.765291584153,0.182326932671,0.0834059114976,0.694317003694,0.717676410327,-0.0361190234681,0.0394953742298,-0.0557982805647,-0.401362999125,-0.0857679664241,-0.0995472862539,0.0864121558244,-0.457152904527,0.612679719925,0.464484333992,-0.701389908791,-0.152241811156,0.20750670135,-0.182537123561
2017/07/09/10:21:45.342396,529001,1499566908,149536496,,0.76387375306,0.17821156523,0.0821029265508,0.69598482094,0.716014805956,-0.0375530888242,0.0389575691473,-0.0604555862517,-0.403783286597,-0.0767058496712,-0.082658912248,0.0864843381803,-0.459560678294,0.393817961216,0.484507143497,-0.781641066074,-0.376515775919,0.136590838432,-0.162468522787
2017/07/09/10:21:45.352618,529002,1499566908,159534077,,0.763810221037,0.173675646395,0.0816058374175,0.697452738565,0.714509580903,-0.038312984298,0.0395961045981,-0.0606642172015,-0.405660639663,-0.0786559515681,-0.0967702987515,0.083618409402,-0.458642143483,0.0024431347847,0.627124071121,-0.724835574627,-0.470586180687,-0.00184345245361,-0.162208005786
2017/07/09/10:21:45.362595,529003,1499566908,169533271,,0.762866485925,0.169470788903,0.0808489294941,0.699127056968,0.712838231621,-0.0391829444586,0.0393409534492,-0.0732837589261,-0.421947315271,-0.0769532567288,-0.124053720463,0.103447852426,-0.43549154873,0.165892139077,0.684741735458,-0.88409948349,-0.516525506973,0.052896939218,-0.20430675149
2017/07/09/10:21:45.372456,529004,1499566908,179538615,,0.762129867821,0.16528798925,0.0799786611294,0.70068235425,0.711280549075,-0.0398793354274,0.0391644935694,-0.0690592712485,-0.434039277767,-0.069338169602,-0.135308389618,0.0877528616818,-0.434718101573,-0.0850840806961,0.438614964485,-0.90877366066,-0.320971906185,-0.0551940836012,-0.187050282955
2017/07/09/10:21:45.382266,529005,1499566908,189530044,,0.761566199134,0.162162542661,0.0793158968929,0.702083322389,0.709892517627,-0.0402182948756,0.0389115740885,-0.0746604698736,-0.423689363142,-0.0727048071705,-0.11811793756,0.0945763152647,-0.439126476991,-0.0191582739353,0.428946316242,-0.940199255943,-0.304126381874,-0.0289156511426,-0.245205044746
2017/07/09/10:21:45.392212,529006,1499566908,199530534,,0.760995556877,0.158080442864,0.0788909554878,0.703522752528,0.708433168143,-0.0407228869322,0.0389849897903,-0.0862927458947,-0.428419619616,-0.0779146942494,-0.102857306799,0.104760245388,-0.471567507643,0.209260836244,0.458965539932,-0.776053607464,-0.307642221451,0.082642018795,-0.28816151619
2017/07/09/10:21:45.402591,529007,1499566908,209530509,,0.76041522066,0.154196914711,0.0781853945953,0.705099663429,0.706840169603,-0.0411611664267,0.0389512213764,-0.0781502908908,-0.447600375838,-0.0831824577795,-0.0550686055842,0.0653060741874,-0.556178172347,-0.161300107837,0.445413351059,-0.601610124111,-0.19336874783,-0.0687083378434,-0.259258210659
2017/07/09/10:21:45.412242,529008,1499566908,219530043,,0.759447747458,0.150902492025,0.0772563589568,0.706844492164,0.70513020527,-0.0412708798629,0.0381964918398,-0.070757070646,-0.403251757712,-0.0830227377441,-0.0113337506334,0.0455277218167,-0.506235918155,-0.57014298439,0.290263652802,-0.242945760489,-0.0881611406803,-0.234841242433,-0.241638869047
2017/07/09/10:21:45.422415,529009,1499566908,229532926,,0.759528360593,0.147249222274,0.0766715559041,0.708949194511,0.703073318222,-0.0404499403745,0.0379835639402,-0.0616501920308,-0.382785089465,-0.0780391050113,0.0396495944629,0.0210734693985,-0.510246999408,-0.842592060566,0.687623858452,-0.00648996978998,-0.341087132692,-0.320585608482,-0.276943147182
2017/07/09/10:21:45.432232,529010,1499566908,239537184,,0.758292816035,0.142233501995,0.0757837439158,0.711134548054,0.70083183834,-0.0412944811157,0.0376451160621,-0.0602323130398,-0.404500183221,-0.0756079113052,0.0588530960215,0.00291425126468,-0.560173194532,-0.821040511131,0.5670388937,0.0121042057872,-0.28214097023,-0.312413811684,-0.244788825512
2017/07/09/10:21:45.442137,529011,1499566908,249532802,,0.758091650299,0.138942247595,0.0750391193112,0.712388458042,0.69956736091,-0.0410651862612,0.0377073318515,-0.065882838114,-0.406863881916,-0.0792768705321,0.0583875842238,0.00495055953705,-0.544345328516,-0.88971298933,0.80997800827,0.0257768779993,-0.449317872524,-0.358530700207,-0.282774865627
2017/07/09/10:21:45.452565,529012,1499566908,259537074,,0.757245348784,0.135430374038,0.0738308320579,0.714244296897,0.697733821859,-0.0408562178934,0.0367881454229,-0.0526941030876,-0.388324124171,-0.0713488043177,0.052350070724,-0.0243153768263,-0.502864724975,-0.866353869438,0.789005577564,0.0444137826562,-0.412950307131,-0.330456674099,-0.233433276415
2017/07/09/10:21:45.462400,529013,1499566908,269530728,,0.757212351618,0.131142727872,0.0734179060163,0.715798948741,0.6961250711,-0.0405280970147,0.0374061989489,-0.0356526760918,-0.366796385376,-0.0580012519881,0.0703347451193,-0.0674668497367,-0.462662531622,-0.762972772121,0.476646989584,-0.0728916600347,-0.256618827581,-0.294068753719,-0.226638242602
2017/07/09/10:21:45.472561,529014,1499566908,279543066,,0.756674351785,0.127270029228,0.0729201720229,0.717062410138,0.694826137044,-0.0405256356391,0.0373605688208,-0.0339061898612,-0.388407202344,-0.0645468460668,0.0556128635012,-0.0692851689553,-0.447093807482,-1.08016264439,0.587393283844,-0.0744549557567,-0.257140010595,-0.390879839659,-0.18882830441
2017/07/09/10:21:45.482249,529015,1499566908,289530557,,0.756069633691,0.124747287181,0.0718630771204,0.718023344922,0.693898879125,-0.0399421156784,0.036762060489,-0.0161286226801,-0.362338593324,-0.0582435184112,0.0595494104517,-0.111573937093,-0.373604115839,-0.780262172222,0.472806453705,0.163504987955,-0.260946214199,-0.149895682931,-0.209862887859
2017/07/09/10:21:45.492487,529016,1499566908,299539378,,0.755831570385,0.120192004336,0.071206501725,0.719742375095,0.692120035919,-0.0397360653567,0.0369027706578,-0.0300512474497,-0.378455101723,-0.0637491763143,0.0571236130438,-0.0957181918474,-0.381414053521,-1.16258430481,0.499058961868,0.429957985878,-0.241712957621,-0.229984328151,-0.226750642061
2017/07/09/10:21:45.502521,529017,1499566908,309538140,,0.756216980764,0.116521951724,0.0713922800965,0.720590561863,0.691240048654,-0.039034729309,0.0375862634283,-0.0471247536692,-0.399973526953,-0.059832388004,0.0444423194111,-0.0565008670139,-0.378019761127,-1.66678321362,0.660088002682,0.603544056416,-0.342687726021,-0.338697135448,-0.249802187085
2017/07/09/10:21:45.512287,529018,1499566908,319537704,,0.754623303838,0.11229923307,0.0702712301112,0.722144361104,0.689624020052,-0.0396307761866,0.0368189390321,-0.0602800208565,-0.405177672835,-0.0595979209822,0.0374092446329,-0.0228384461614,-0.341595482436,-2.18484830856,0.83738732338,0.810212254524,-0.429275631905,-0.513700306416,-0.236603394151
2017/07/09/10:21:45.522380,529019,1499566908,329530514,,0.75461339507,0.108947570945,0.0703001728947,0.722683982344,0.68908830814,-0.038975133327,0.0369608472631,-0.0734449478711,-0.402834338357,-0.0477400074128,0.0510599600598,-0.000685777729508,-0.344209414628,-2.92634057999,1.00151526928,0.615801513195,-0.498767495155,-0.860510706902,-0.202194392681
2017/07/09/10:21:45.532579,529020,1499566908,339539401,,0.753870600804,0.104187128171,0.0700637598091,0.724541225575,0.687133289542,-0.0390318880302,0.0369373329042,-0.0734497208739,-0.411246947985,-0.0458060215907,0.0175309312187,0.00204891848289,-0.309276371275,-2.95684790611,0.817012548447,0.258370727301,-0.407544851303,-0.989584445953,-0.166160523891
2017/07/09/10:21:45.542147,529021,1499566908,349532570,,0.75311478933,0.101696509305,0.06941975634,0.724613156453,0.687109836883,-0.0386944724782,0.0363123030636,-0.0853802716858,-0.411228234006,-0.0526475281151,0.0286466972134,0.0236366601607,-0.308494178109,-2.72644734383,0.776895642281,0.0745789855719,-0.366993069649,-0.973748981953,-0.174763411283
2017/07/09/10:21:45.552273,529022,1499566908,359531892,,0.752051524252,0.0972946079766,0.0685153217251,0.7257028853,0.685970932638,-0.0387932732913,0.0359761558559,-0.0867634603699,-0.407919662415,-0.0600831876176,0.0279692781726,0.0135557038201,-0.27493120961,-3.65175676346,-2.20927667618,0.141412436962,0.244735047221,-1.23999404907,-0.099901035428
2017/07/09/10:21:45.562481,529023,1499566908,369532395,,0.751889253985,0.0941469655995,0.0684984269116,0.726161708342,0.685479419226,-0.0384836163673,0.0364163483354,-0.0631662953823,-0.387292333821,-0.0481806834775,0.0121496828693,-0.0311292630849,-0.207112970559,-3.63836050034,-1.64059138298,0.179863587022,0.191382706165,-1.26923918724,-0.0687129423022
2017/07/09/10:21:45.572527,529024,1499566908,379530976,,0.751420784504,0.0898376665349,0.0681440073767,0.726848248767,0.684739114959,-0.0383929250355,0.0367416795609,-0.0571737337849,-0.381772765092,-0.0504874076924,0.0248801825655,-0.0483372037808,-0.156621000759,-4.19386529922,-1.04019236565,1.12133669853,-0.0340740829706,-1.50968718529,-0.0110260844231
2017/07/09/10:21:45.582514,529025,1499566908,389531825,,0.750605363626,0.0870556591406,0.0670071202694,0.726931409126,0.684690491837,-0.0381796250185,0.036221168491,-0.0450092720603,-0.362580487458,-0.0476985333415,0.0391535151983,-0.0731100885111,-0.112143094624,-4.62894678116,-0.839365720749,1.01718616486,0.222500354052,-1.62257540226,0.11327162385
2017/07/09/10:21:45.592314,529026,1499566908,399538380,,0.75085711656,0.0829888965284,0.0671295596227,0.72735399006,0.684247996966,-0.0372725885229,0.0370351986199,-0.0389915566609,-0.376296721715,-0.0463107432978,0.0411571507484,-0.106161949571,-0.148886804522,-4.35169172287,-1.36954438686,0.979833006859,0.405469954014,-1.57899427414,0.137485310435
2017/07/09/10:21:45.602403,529027,1499566908,409532149,,0.750218591996,0.0795597893254,0.0664253283333,0.727650650285,0.683935062462,-0.0372484410342,0.0370123643582,-0.033837852242,-0.390777600823,-0.0400259561211,-0.0124731273893,-0.10512956663,-0.0582322173449,-4.6735906601,-1.64279651642,0.36481821537,0.46728605032,-1.70528292656,0.136002495885
2017/07/09/10:21:45.612147,529028,1499566908,419538247,,0.75027099455,0.0762683383308,0.0659768777261,0.727066881068,0.684530777774,-0.036990102446,0.0377239586419,-0.0333418599028,-0.381976936384,-0.0356498248571,-0.0181610767988,-0.0914327982948,-0.0284322904878,-4.11908435822,0.0165191292763,-0.243017554283,-0.519700944424,-1.48531246185,-0.0616762712598
2017/07/09/10:21:45.622276,529029,1499566908,429533279,,0.750336916792,0.0724652346927,0.0660858328278,0.727311557928,0.684250200073,-0.0366064553928,0.0384646438773,-0.0370265804265,-0.333418091065,-0.048909958811,-0.0200497146354,-0.0495103895925,0.0644985162856,-3.22653460503,2.24915099144,-0.241446703672,-2.16450953484,-1.05983686447,-0.350778579712
2017/07/09/10:21:45.632517,529030,1499566908,439539426,,0.749581795315,0.0691666256226,0.0652520836565,0.727047445397,0.684549907587,-0.0366013365446,0.0381284451183,-0.0212580741326,-0.350509852415,-0.0396954242766,-0.00968865914025,-0.0917094082362,0.0159346437021,-2.69863033295,3.80527186394,-0.5898873806,-3.01534056664,-0.792336642742,-0.502806544304
2017/07/09/10:21:45.642190,529031,1499566908,449530728,,0.749239867536,0.0653951544355,0.0648514281397,0.72724451547,0.684305538209,-0.0366321138177,0.0387225171104,-0.0325670431183,-0.335624518056,-0.063061443852,0.0215385372272,-0.0661376750905,0.0255230052112,-3.13496208191,2.7030107975,-0.470201730728,-2.50412607193,-0.928711533546,-0.386144816875
2017/07/09/10:21:45.652510,529032,1499566908,459555766,,0.748969807344,0.0627595954887,0.0641172783636,0.72685804262,0.684743550917,-0.0361100634214,0.0387262014262,-0.0472518986211,-0.372093400551,-0.0562637691011,-0.033236741674,-0.0559331694801,0.0225810906881,-3.98637652397,1.88056731224,0.0932049229741,-1.48137354851,-1.31103074551,-0.157161071897
2017/07/09/10:21:45.662338,529033,1499566908,469532926,,0.748706777863,0.0586050758058,0.0639761186572,0.726717498215,0.684828109222,-0.0363322028338,0.0396498378935,-0.0287220255174,-0.371624514485,-0.0364920290614,-0.0592708581795,-0.0939773899306,0.0452452014014,-5.09835290909,0.370693236589,0.71598803997,-0.65139901638,-1.83698809147,0.0268130302429
2017/07/09/10:21:45.672452,529034,1499566908,479535230,,0.748703742634,0.0554439887369,0.0641006457588,0.725840384509,0.685695605219,-0.0364885084325,0.040569224194,-0.0230412706295,-0.375853605366,-0.0296785254179,-0.108852481249,-0.0915566070297,0.125437629999,-6.11642789841,0.0611149966717,1.53460085392,-0.185025289655,-2.30282640457,0.179133087397
2017/07/09/10:21:45.682603,529035,1499566908,489531732,,0.748085052748,0.0507881818457,0.0634835376501,0.725387701804,0.686065590262,-0.0372767997335,0.0416788691371,-0.0283402370264,-0.37349193217,-0.0319995296411,-0.173083785006,-0.0588225802166,0.232137468785,-6.81187152863,-0.212069541216,1.07775628567,-0.396100729704,-2.50884580612,0.119088992476
2017/07/09/10:21:45.692452,529036,1499566908,499530988,,0.747944588552,0.0477805237117,0.0632876287273,0.724391572824,0.68705899515,-0.0376240376415,0.0423227857778,-0.0422169073149,-0.387256252095,-0.0336508895076,-0.205963156556,-0.0249151421263,0.225454363714,-7.22574234009,0.957276344299,0.746883630753,-0.900437712669,-2.64741826057,0.101744003594
2017/07/09/10:21:45.702272,529037,1499566908,509535087,,0.747779716108,0.0457381293396,0.0624100518024,0.723188467811,0.688338321846,-0.037450538048,0.0422640734473,-0.0401002913375,-0.337637135977,-0.0456015132314,-0.130612559345,-0.00687401936471,0.275799685445,-6.90323734283,1.31859397888,0.189074561,-0.962216436863,-2.55312991142,0.0346816927195
2017/07/09/10:21:45.712304,529038,1499566908,519536150,,0.747064089252,0.0422306743132,0.0618851060491,0.722552558597,0.688953255632,-0.0377954757725,0.0428102047328,-0.0338907740293,-0.319714432409,-0.0526035956009,-0.0962628337191,-0.0247597682815,0.264876184914,-6.06220340729,1.27720379829,0.0257585346699,-0.80535197258,-2.17698478699,0.0374486669898
2017/07/09/10:21:45.722322,529039,1499566908,529537027,,0.74698355379,0.0396940773134,0.0616305714093,0.722332348207,0.689188749247,-0.0373750788126,0.0431039456286,-0.0300013027254,-0.296719420091,-0.0594284934362,-0.0313236060712,-0.0448018639356,0.213000569435,-5.61674499512,1.18168199062,0.108132585883,-0.468323349953,-2.08180999756,0.111228764057
2017/07/09/10:21:45.732370,529040,1499566908,539538459,,0.747460130923,0.0371569663571,0.0614631416441,0.7221562457,0.689340985951,-0.0369245106984,0.0439993453922,-0.0119337746608,-0.264682810652,-0.0554817478892,-0.0101550334222,-0.0856726026632,0.115010754474,-6.02877092361,0.335721194744,0.696270048618,-0.180912196636,-2.25673389435,0.168366253376
2017/07/09/10:21:45.742336,529041,1499566908,549530660,,0.746694706007,0.0341298143904,0.0603151053173,0.722908588676,0.688587877958,-0.0367946850244,0.0435437469987,-0.00859921524421,-0.270589714061,-0.0547531374103,-0.00758295286137,-0.110266343932,-0.0400999158206,-6.90795135498,0.496680080891,0.990786075592,-0.27181109786,-2.51336336136,0.152017861605
2017/07/09/10:21:45.752402,529042,1499566908,559535926,,0.746961825238,0.0316447107487,0.0600409477611,0.723667797435,0.687769921526,-0.0362740842419,0.0442904596137,-0.00513942260483,-0.276118378712,-0.0506852925469,-0.0249134873794,-0.120253369444,-0.14307965946,-6.99594449997,0.69753241539,1.12958872318,-0.302142471075,-2.56947040558,0.152483642101
2017/07/09/10:21:45.762229,529043,1499566908,569532237,,0.74670011004,0.030156422788,0.0591038451636,0.723212171015,0.688281748368,-0.0360372259729,0.0439739571012,-0.0186641943603,-0.257820825784,-0.0602165154871,0.0117336881174,-0.0799444565036,-0.15103512164,-6.60457611084,1.90573406219,0.963452517986,-0.663698852062,-2.45192217827,0.160535305738
2017/07/09/10:21:45.772506,529044,1499566908,579552818,,0.746226713667,0.0274018015825,0.0586260619392,0.722910385739,0.68861989732,-0.035727510564,0.0438948310676,-0.0135812911279,-0.195147370924,-0.0678345237059,0.0812580931811,-0.0482016445414,0.0718985054758,-6.79394435883,1.20965528488,0.850910067558,-0.714610517025,-2.44005632401,0.139781370759
2017/07/09/10:21:45.782595,529045,1499566908,589538748,,0.74653411547,0.0261894224615,0.0581524936279,0.722151493228,0.689452738636,-0.0352128403329,0.0437286850018,-0.0213058036121,-0.204600813015,-0.0736895427709,0.0973394395154,-0.0252412630685,0.145193567221,-5.50461006165,1.308817029,0.441197991371,-0.662561237812,-2.03732657433,0.104374364018
2017/07/09/10:21:45.792294,529046,1499566908,599557896,,0.745841732997,0.0240596053098,0.0570852755691,0.721768453791,0.689870752538,-0.0354721224397,0.0432478026523,-0.0210299645891,-0.197665813163,-0.0711984294764,0.0746648143317,0.0104411007716,0.191237507267,-5.54421234131,0.689211905003,0.450339436531,-0.33109331131,-2.01651263237,0.201240986586
2017/07/09/10:21:45.802598,529047,1499566908,609531334,,0.746020376101,0.0223682966955,0.056944363271,0.721490548681,0.690206546286,-0.0347688431584,0.0430980182069,-0.0309035078078,-0.202953846727,-0.0636489206492,0.0384721286899,0.0377984143542,0.163734406649,-5.06706571579,0.914365410805,0.437868744135,-0.3805744946,-1.83667802811,0.163926616311
2017/07/09/10:21:45.812575,529048,1499566908,619539455,,0.745584830021,0.0207817077283,0.0562613717362,0.720832395088,0.690889855277,-0.0352131501752,0.0428007023531,-0.0364452770525,-0.211692281425,-0.0635973934151,0.0323452263199,0.0479568094108,0.086843267695,-5.36137390137,0.687433242798,0.646151602268,-0.226761460304,-1.96692359447,0.201194494963
2017/07/09/10:21:45.822256,529049,1499566908,629531290,,0.744972876469,0.0186977076183,0.05549929978,0.720898156822,0.690859774681,-0.0351477306784,0.0422286188138,-0.0444381084755,-0.195651387979,-0.0583091968663,0.0290783657091,0.078724498096,0.0967997906508,-6.47708654404,0.714987456799,0.73190331459,-0.295957744122,-2.32877755165,0.25992256403
2017/07/09/10:21:45.832497,529050,1499566908,639551643,,0.744334261166,0.0171768871618,0.0544227882502,0.720362692492,0.691417655751,-0.035860382804,0.0416323134787,-0.0502280810743,-0.169034152164,-0.0797283147201,0.0653428593357,0.105743088214,0.0712943303492,-5.59484672546,0.277033060789,0.634523570538,-0.169143646955,-2.01572346687,0.251804947853
2017/07/09/10:21:45.842338,529051,1499566908,649532979,,0.743866661209,0.01452036709,0.0540136068945,0.721315253634,0.690421045081,-0.0360927994021,0.0414776471724,-0.0469138894373,-0.181394445683,-0.0795513472738,0.0494370882542,0.0981801422341,-0.00263817278264,-5.55214977264,0.324700653553,0.478777498007,-0.195912852883,-1.95214903355,0.203536197543
2017/07/09/10:21:45.852532,529052,1499566908,659534140,,0.743603340791,0.0142392324001,0.0532207682138,0.721052547339,0.690743991903,-0.0361525874114,0.0406072905857,-0.0624180475833,-0.168039949042,-0.0784223815749,0.0481007006183,0.140850971959,-0.0241657029523,-5.24537134171,1.03808891773,0.605420470238,-0.376642793417,-1.9755603075,0.185715466738
2017/07/09/10:21:45.862484,529053,1499566908,669530546,,0.743356795143,0.0130540902111,0.0527844842426,0.721043655331,0.690780412411,-0.0362056419108,0.0400951422166,-0.0478894616896,-0.167912281852,-0.0667263477503,0.0375531936614,0.101710154077,-0.0774331641671,-4.70310401917,1.24988055229,0.278163611889,-0.256778031588,-1.99907064438,0.227546066046
2017/07/09/10:21:45.872574,529054,1499566908,679537575,,0.742849945312,0.0112248820776,0.0517546371119,0.722211311638,0.689608044757,-0.0359582492574,0.0394787317231,-0.0500997862529,-0.156520662719,-0.0782045847075,0.0417972500092,0.117303347466,-0.0866135370708,-4.7392001152,0.741869091988,0.0717820376158,-0.250840991735,-2.04320812225,0.192411243916
2017/07/09/10:21:45.882549,529055,1499566908,689531759,,0.742516256173,0.00962736946482,0.0507805693203,0.722315947638,0.689480595751,-0.0365334000465,0.0392618205455,-0.026068789521,-0.162698486453,-0.0745400030484,0.0559624316937,0.0438291687869,-0.18825679227,-4.05222272873,0.314686089754,-0.147745937109,-0.0931143984199,-1.75051224232,0.211997777224
2017/07/09/10:21:45.892334,529056,1499566908,699529383,,0.742058476779,0.00780340335724,0.0495803596378,0.723419387201,0.688355205123,-0.0365048651551,0.0387155863019,-0.0210145344334,-0.14978402103,-0.0894661162091,0.0617209825228,0.0293538461262,-0.211339666273,-3.73875308037,0.385177403688,-0.403515249491,-0.0994811207056,-1.62962126732,0.194393694401
2017/07/09/10:21:45.902350,529057,1499566908,709536145,,0.742524589135,0.00630679266356,0.0493432606127,0.72434491103,0.68738884812,-0.0360758257293,0.0389814846118,-0.0284550023355,-0.161800156278,-0.0887955234381,0.0479688192224,0.0389210100059,-0.25712673011,-3.07310128212,0.752075254917,-0.0544454827905,-0.233486518264,-1.41581773758,0.154980704188
2017/07/09/10:21:45.912334,529058,1499566908,719533336,,0.741706969329,0.00527601242132,0.0481086454935,0.725459026989,0.686262634492,-0.0362556783494,0.0379252217885,-0.00745753116577,-0.124077539465,-0.0997665886337,0.0807521641852,0.00677241335978,-0.24426287469,-3.60186767578,1.14248883724,-0.507656037807,-0.365918964148,-1.47069048882,0.124600172043
2017/07/09/10:21:45.922375,529059,1499566908,729532134,,0.742058629937,0.00373708224352,0.0475596114686,0.725676656623,0.686018777332,-0.036160427603,0.0382629148838,-6.10910626285e-05,-0.149919311379,-0.0902545061593,0.0437423869841,-0.00919622142582,-0.233158845017,-2.91857790947,1.04953587055,0.0532001964748,-0.383875608444,-1.32259058952,0.0731253772974
2017/07/09/10:21:45.932436,529060,1499566908,739539019,,0.742026253882,0.00266525523315,0.0462056289912,0.726921024245,0.684759271062,-0.0356743215089,0.037655119049,-0.00631922445407,-0.140538516224,-0.0940966356375,0.0466488055847,0.00567350293782,-0.219149992866,-3.0435833931,0.646826267242,-0.175777360797,-0.252580761909,-1.3583227396,0.10552059859
2017/07/09/10:21:45.942417,529061,1499566908,749531056,,0.741738732513,0.000816892014616,0.0451740321428,0.727342196023,0.684286180341,-0.0360989283424,0.0377176437657,-0.0076369274176,-0.122655285735,-0.110199669272,0.0752082197983,0.0232016896504,-0.221764310196,-2.85687732697,0.234235495329,0.00127817667089,-0.0724482163787,-1.2732565403,0.107610650361
2017/07/09/10:21:45.952518,529062,1499566908,759538290,,0.741862029331,0.000208201187328,0.0446707046133,0.728191723653,0.683436929792,-0.0356836438184,0.0371140696165,-0.00429905370059,-0.112674374034,-0.104933487605,0.0764756006948,0.0182193211333,-0.227054195854,-2.19305205345,0.290102541447,0.241078734398,-0.00931162200868,-1.07764399052,0.114226274192
2017/07/09/10:21:45.962419,529063,1499566908,769534426,,0.741866257647,-0.00144448621828,0.0436864595863,0.728965042567,0.682623610739,-0.0354811655851,0.037095278224,-0.0144250033324,-0.140207450453,-0.103377602032,0.0432098108796,0.0254841634415,-0.250066382438,-2.49091863632,0.215728282928,0.335952877998,-0.0326830334961,-1.1935312748,0.0859109386802
2017/07/09/10:21:45.972672,529064,1499566908,779539714,,0.741280017161,-0.00236236989599,0.0421682349717,0.729615028379,0.681964166433,-0.0357090156817,0.0362167401111,-0.0142561941916,-0.139469482022,-0.0987778497138,0.0419837536824,0.0249137903766,-0.223379785108,-3.24997377396,0.47620806098,-0.0657820478082,-0.0557890683413,-1.44110357761,0.11937019974
2017/07/09/10:21:45.982487,529065,1499566908,789535300,,0.741507362032,-0.00400756654744,0.0415456173386,0.730581695298,0.680909237865,-0.0357141623348,0.0365717772805,-0.00620320219461,-0.130977038163,-0.0982286371622,0.0348378897903,0.0282253053473,-0.204991735156,-2.21274471283,0.385804742575,-0.0924346446991,-0.0439856126904,-1.07258892059,0.0684499889612
2017/07/09/10:21:45.992456,529066,1499566908,799536591,,0.742208828428,-0.00482274638816,0.0407406519427,0.730902168187,0.680592541598,-0.0351326035643,0.0366266709948,-0.00846551893925,-0.126515503403,-0.111122507805,0.0480111060059,0.021197152186,-0.201608962487,-1.48815464973,0.661594986916,-0.204120606184,-0.118817746639,-0.851070284843,0.0467352569103
2017/07/09/10:21:46.002294,529067,1499566908,809539587,,0.741529696535,-0.00522737589579,0.0388484939006,0.731455150557,0.680049806058,-0.0354096700122,0.0353804928354,-0.0191210678023,-0.146705987121,-0.118859485408,0.0306803248767,0.0464775176163,-0.225620420594,-1.01162803173,1.06626296043,-0.841917216778,-0.226226896048,-0.63299125433,0.0322504043579
2017/07/09/10:21:46.012285,529068,1499566908,819531439,,0.741390910949,-0.0069590714188,0.0380845442467,0.732005996958,0.679436678106,-0.0357460474103,0.03542937984,-0.0152035001277,-0.138778721257,-0.120058631855,0.0442531254989,0.0367355063143,-0.22079871403,-0.850347161293,0.286181002855,-0.590086519718,-0.0771960318089,-0.57632291317,0.0301401298493
2017/07/09/10:21:46.022461,529069,1499566908,829531558,,0.740830221285,-0.00920175372413,0.0370512736074,0.733020615863,0.678324084875,-0.0361984835165,0.0353112218586,-0.014421894444,-0.141724105499,-0.112787798614,0.0396021180794,0.0368710495104,-0.236392995744,-1.50940203667,0.218886345625,-0.406516849995,-0.0555820763111,-0.852619707584,0.111145332456
2017/07/09/10:21:46.032335,529070,1499566908,839538531,,0.740930365312,-0.00947804337988,0.0355543482588,0.733387397452,0.677968915258,-0.0360246781191,0.0346885826822,-0.02683943708,-0.13502871517,-0.10981415497,0.0388988243596,0.0614736793264,-0.210150232227,-1.4875433445,1.06412160397,-0.207388192415,-0.340044528246,-0.925013840199,0.0782573893666
2017/07/09/10:21:46.042269,529071,1499566908,849533184,,0.740140469476,-0.0112550190503,0.0343279266538,0.734190237031,0.677095561768,-0.03663940465,0.0341152474619,-0.0214668968635,-0.123333766533,-0.120901947004,0.0232444768286,0.0736357675032,-0.167868076105,-1.86120021343,0.250181734562,-0.529480159283,-0.221569418907,-0.903597295284,0.0717631652951
2017/07/09/10:21:46.052390,529072,1499566908,859535446,,0.74030439414,-0.0127442751484,0.0335061527459,0.734668120642,0.67657032796,-0.0366010974946,0.0342885330538,-0.0300473612919,-0.154803040915,-0.127226931917,-0.0146639289832,0.0757981669142,-0.201956469572,-1.0471098423,0.0398406870663,-0.308491826057,-0.0728180110455,-0.675084233284,0.058512929827
2017/07/09/10:21:46.062583,529073,1499566908,869531771,,0.739876876696,-0.0134664564693,0.0319515864867,0.735209725676,0.676005066231,-0.0369457417197,0.0334487947446,-0.0246788582557,-0.16404951528,-0.116255736852,-0.0356694133654,0.0581566146186,-0.154999736133,-0.650135099888,0.615852236748,-0.704033017159,-0.145713463426,-0.556654036045,0.0243731029332
2017/07/09/10:21:46.072504,529074,1499566908,879540991,,0.739433648008,-0.016376446937,0.0308790579135,0.736038931055,0.675028244105,-0.0376867535267,0.0341067477385,-0.0273986730121,-0.146239934318,-0.117840808535,-0.00600128607982,0.0602761080971,-0.162969302743,-0.347321689129,0.0537197962403,-0.980605125427,-0.0718813315034,-0.433282583952,0.0368133559823
2017/07/09/10:21:46.083030,529075,1499566908,889539364,,0.738933624559,-0.0167365836868,0.0294636676397,0.736140000018,0.674946945475,-0.0379387222736,0.0332441652005,-0.0507208257793,-0.17352491266,-0.129117806732,-0.0457003048621,0.0957036032777,-0.181777306491,-0.272483080626,0.582249104977,-1.22411680222,-0.162865579128,-0.381732463837,0.00470767822117
2017/07/09/10:21:46.092555,529076,1499566908,899546515,,0.73799770762,-0.0193943604238,0.0279988346891,0.736945913186,0.674015327881,-0.0389378232416,0.0331346456303,-0.0501547888946,-0.171080655883,-0.135577969584,-0.0636122479346,0.105207695415,-0.137564418388,0.0558804050088,-0.0898914188147,-1.50325393677,-0.0355278924108,-0.177165582776,-0.00679635535926
2017/07/09/10:21:46.102360,529077,1499566908,909532963,,0.737341719032,-0.0205795588718,0.0268118102858,0.737083082618,0.673840654846,-0.0396876371341,0.0327443530234,-0.0558837715513,-0.170346562211,-0.131807482964,-0.0445305880939,0.10306479198,-0.158645240375,0.464055031538,0.172875389457,-1.19995629787,-0.0904177427292,-0.0332058668137,-0.0485000498593
2017/07/09/10:21:46.112333,529078,1499566908,919535112,,0.736998967857,-0.0228089968587,0.0261326152427,0.737801564432,0.673018167696,-0.0400873066431,0.0329909884401,-0.0623374606991,-0.162812561632,-0.133372565217,-0.0454347188629,0.120137103672,-0.153671362046,0.0662013813853,0.202217102051,-0.694486200809,-0.133132815361,-0.229527547956,0.0048441356048
2017/07/09/10:21:46.122451,529079,1499566908,929540442,,0.736840190823,-0.0240061719414,0.0250824828546,0.738330226984,0.672433677881,-0.0402197849098,0.0329210217859,-0.0570375524369,-0.176208686027,-0.122827865171,-0.0443521915268,0.095162338498,-0.197897681623,0.407542854548,0.621786415577,-0.623429119587,-0.300286948681,-0.0491457991302,-0.0467386469245
2017/07/09/10:21:46.132467,529080,1499566908,939533351,,0.736014677763,-0.0250618287024,0.0235401145956,0.738474361207,0.672267358882,-0.0408625740336,0.0322872430898,-0.0430832474565,-0.150846877594,-0.105379622633,-0.0423207696608,0.0761328675909,-0.137374070051,0.287548482418,0.65865367651,-0.755794107914,-0.334028095007,-0.0615260452032,-0.0577621795237
2017/07/09/10:21:46.142340,529081,1499566908,949538569,,0.735527414792,-0.027431756516,0.0224801095477,0.73926878826,0.671364898157,-0.0411802629502,0.0324810432592,-0.0620956304965,-0.16433654322,-0.129105792338,-0.0665763506243,0.108515403289,-0.126315291007,-0.169647693634,-0.381995946169,-0.79651004076,-0.0502402037382,-0.178901165724,-0.0152751356363
2017/07/09/10:21:46.152197,529082,1499566908,959531654,,0.734881885958,-0.0277890583099,0.0207225058155,0.739271705971,0.67135485452,-0.0418502648005,0.031757824204,-0.0706690208244,-0.172450233276,-0.135803488281,-0.0480995465122,0.116079128238,-0.159997283189,0.795527398586,-0.239257335663,-1.58091783524,0.0593328513205,0.227242901921,-0.0686253458261
2017/07/09/10:21:46.162582,529083,1499566908,969533048,,0.733466350223,-0.0303886577792,0.0191563537639,0.740204508417,0.670286446753,-0.0428524592759,0.0312575071456,-0.0798385300463,-0.154330607289,-0.145616506113,-0.0398850240433,0.147716182858,-0.121554112309,0.934388756752,-0.125652313232,-1.78089475632,-0.0241455323994,0.29125931859,-0.0736006349325
2017/07/09/10:21:46.172361,529084,1499566908,979538005,,0.732977448106,-0.0323826328363,0.0183332477633,0.74051133099,0.669886950062,-0.0436221624118,0.0314888830843,-0.0706078021571,-0.150138824583,-0.136694916663,-0.0179973747837,0.12289281226,-0.135155554292,1.18142867088,-0.447873592377,-1.343703866,-0.00235991925001,0.386685967445,-0.105061776936
2017/07/09/10:21:46.182706,529085,1499566908,989537369,,0.732028692028,-0.0334393267657,0.0169868310072,0.741115671783,0.669217325551,-0.044175199796,0.0307292034233,-0.0994532136704,-0.17006824418,-0.148500337963,-0.0181452985577,0.16009117813,-0.170815305801,0.92548507452,0.290253847837,-1.16664373875,-0.160894021392,0.341399788857,-0.11693366617
2017/07/09/10:21:46.192542,529086,1499566908,999530692,,0.732144925307,-0.0338133123661,0.0158487037031,0.741195265431,0.669149064052,-0.0439876034958,0.0305646743668,-0.0871667502484,-0.138483412837,-0.147097199689,0.00748923551612,0.139287761169,-0.149500200045,2.46037697792,0.597696125507,-1.61850476265,-0.278012424707,0.882184445858,-0.178780660033
2017/07/09/10:21:46.202314,529087,1499566909,9533376,,0.73097253224,-0.0353043839728,0.0142013996669,0.741679163086,0.668593049176,-0.0447800714004,0.0298345243634,-0.0747793271995,-0.151096289438,-0.137007908879,-0.00109720284349,0.105440700137,-0.172919243438,2.04532289505,0.178699284792,-1.54695677757,-0.148223057389,0.790428757668,-0.200177446008
2017/07/09/10:21:46.213350,529088,1499566909,19536636,,0.730540507148,-0.0367963078164,0.0131804602351,0.742124661974,0.668090178933,-0.0449208322578,0.0298096919355,-0.0613925224014,-0.137518647941,-0.128734726225,-0.0020421809284,0.0840772773647,-0.145385578872,1.47913062572,0.0261967852712,-0.897930264473,-0.0820254161954,0.607629418373,-0.167299672961
2017/07/09/10:21:46.222466,529089,1499566909,29540472,,0.729358394856,-0.0391061169905,0.0113811226802,0.743209364482,0.666856160532,-0.0455903412439,0.029397661321,-0.0735371223822,-0.150645033589,-0.137376054234,0.00553522546786,0.0870618533637,-0.208512798794,0.692103266716,-0.467974185944,-0.710561156273,0.126598194242,0.336983025074,-0.120264261961
2017/07/09/10:21:46.232819,529090,1499566909,39548598,,0.729743475788,-0.0397002609508,0.0107793710195,0.743084958725,0.66700531924,-0.0451695974774,0.0298052962711,-0.0663764929167,-0.141601397422,-0.136566444708,0.00676663214731,0.0677273768241,-0.183563776358,0.708226501942,-0.0408261716366,-0.186284840107,0.0898203551769,0.262497663498,-0.0974953249097
2017/07/09/10:21:46.242764,529091,1499566909,49534460,,0.729101586025,-0.040947068398,0.00971056121895,0.743841608887,0.666173473661,-0.0452186365599,0.029459103626,-0.0527934257012,-0.134521366749,-0.130339716884,0.0237368592702,0.0274346084343,-0.168739854474,1.17704439163,0.0118559151888,-0.23185968399,0.00396500527859,0.472101688385,-0.158771455288
2017/07/09/10:21:46.252455,529092,1499566909,59538496,,0.728202746414,-0.0422296425854,0.00768822750164,0.744626990679,0.665310393776,-0.0453912571745,0.0288506231814,-0.0592446381477,-0.136804694505,-0.138160079211,0.0174516084776,0.0270018433837,-0.167226496011,0.805602967739,-0.0884183645248,-0.691787481308,-0.0848701149225,0.398496210575,-0.159201204777
2017/07/09/10:21:46.262430,529093,1499566909,69537832,,0.728107103767,-0.0433621375511,0.00707124589281,0.744946363228,0.664955808533,-0.0451686041716,0.0291287797551,-0.0551996050811,-0.134323187754,-0.145838847221,0.0403490444654,0.00840341908699,-0.179422732242,2.05361318588,0.0232648700476,-0.78063160181,-0.00976675003767,0.794305205345,-0.196182876825
2017/07/09/10:21:46.272488,529094,1499566909,79529946,,0.727733025547,-0.0446674736007,0.00530185280607,0.746141648898,0.663693844237,-0.0442356548898,0.0287459168951,-0.0244891353554,-0.11054970796,-0.132569601162,0.0539487812761,-0.053571840253,-0.170112851951,1.50205647945,-0.11759801209,-0.777541458607,-0.0298052951694,0.616210401058,-0.178715348244
2017/07/09/10:21:46.282635,529095,1499566909,89532814,,0.72726620969,-0.0458291056886,0.00387973035844,0.746457557268,0.663331889284,-0.0443550608415,0.0287149513988,-0.0332551354485,-0.108938108937,-0.145203259148,0.0673397453329,-0.0473390602062,-0.174950656182,1.20766782761,0.105959787965,-0.970541119576,-0.176006942987,0.525380671024,-0.19117860496
2017/07/09/10:21:46.292446,529096,1499566909,99538439,,0.726990043035,-0.0472355011116,0.00274427045545,0.747199643654,0.662523047285,-0.0438770874176,0.028821962799,-0.0258877506491,-0.136665200514,-0.12656856735,0.0392592756722,-0.0855113720089,-0.204961764533,1.68352329731,0.0461023002863,-0.608364999294,0.00270491838455,0.794361948967,-0.198066845536
2017/07/09/10:21:46.302651,529097,1499566909,109534174,,0.728174574728,-0.0464836543567,0.00169983289888,0.747313799015,0.662506928838,-0.042015084044,0.0290066846684,-0.0219500195313,-0.114109570235,-0.135999922233,0.052497200822,-0.0861267327679,-0.1761220047,2.49045228958,0.577097475529,-0.270127087831,-0.014787375927,1.15421175957,-0.253307342529
2017/07/09/10:21:46.312575,529098,1499566909,119542626,,0.72664034611,-0.0493652287815,0.000285222065673,0.74822149021,0.661435612844,-0.0428202346253,0.0288783509982,-0.017829747387,-0.126910054152,-0.128888253749,0.0449473402453,-0.10213871491,-0.182196938935,1.83766889572,-0.202345371246,0.158140808344,0.139295220375,1.22183716297,-0.259760022163
2017/07/09/10:21:46.322225,529099,1499566909,129531215,,0.726545613998,-0.0489857922449,-0.00103942437519,0.747687951579,0.662112969294,-0.0421811574179,0.0281050336219,-0.0462452424165,-0.121100556855,-0.13535215183,0.0917295650888,-0.0347636976312,-0.119327291444,1.65929889679,0.802222967148,0.455639064312,0.0537341013551,1.01950991154,-0.202260583639
2017/07/09/10:21:46.332502,529100,1499566909,139541892,,0.72521456978,-0.0513489067488,-0.00263717851475,0.747171097224,0.662668009029,-0.0428752719302,0.0277159221057,-0.0623902589211,-0.108011438062,-0.129390837293,0.0983968301543,0.0395355036625,0.0492099520605,-0.317992836237,0.721086442471,-0.0434005707502,-0.242882072926,0.191999465227,-0.13887822628
2017/07/09/10:21:46.342495,529101,1499566909,149535755,,0.725126047226,-0.0512755899067,-0.00319147309535,0.746144924581,0.663905927337,-0.0420507635865,0.0269889690586,-0.078784764173,-0.117788230154,-0.125281463626,0.0801648503575,0.0924394200093,0.197922665392,-0.0760324150324,0.69715154171,0.196469977498,-0.288846343756,0.121708907187,-0.158151090145
2017/07/09/10:21:46.352369,529102,1499566909,159555962,,0.724099434278,-0.0529660008638,-0.00482540758983,0.746457002765,0.663549635977,-0.0423539799075,0.0266451497211,-0.0759924538977,-0.109282201617,-0.122756190126,0.0950199383012,0.0768419597415,0.207651739574,0.588327527046,0.349585562944,-0.179421707988,-0.269346684217,0.317187190056,-0.228242382407
2017/07/09/10:21:46.362152,529103,1499566909,169533776,,0.724547654404,-0.053804060665,-0.00561591376018,0.747108604755,0.66286273365,-0.0413346954303,0.0270771489037,-0.0576046264657,-0.0967293016691,-0.129250819215,0.0861216011289,0.0262313585909,0.0235039858212,1.60552513599,0.149782925844,-0.111507996917,-0.223893463612,0.692923545837,-0.328075051308
2017/07/09/10:21:46.372438,529104,1499566909,179537702,,0.723343676875,-0.0552390708413,-0.00741419014498,0.747771035437,0.662113451071,-0.0417116273055,0.0265404713461,-0.0279983719974,-0.111429010538,-0.11882962867,0.0476767902149,-0.0705743926785,-0.146300234989,1.92657065392,-0.0486188232899,-0.331321179867,-0.0583385974169,0.829369962215,-0.305358678102
2017/07/09/10:21:46.382500,529105,1499566909,189541109,,0.723168579335,-0.0570476242584,-0.00804589891279,0.748776287466,0.660993390666,-0.0411263227863,0.0270265499025,-0.0404762023599,-0.138059355266,-0.129394654617,0.0241741743024,-0.0699425235659,-0.219191971182,1.45916986465,-0.634098052979,0.00852780789137,-0.0197259783745,0.699052929878,-0.313823699951
2017/07/09/10:21:46.392622,529106,1499566909,199531537,,0.723191840491,-0.0570800684293,-0.00940943792348,0.748693016209,0.66112657121,-0.040657683381,0.0267838963188,-0.0483851751276,-0.154996019001,-0.115921309484,0.0316708325408,-0.068497651275,-0.220906751889,0.790502727032,0.819715738297,-0.102757804096,-0.271329402924,0.36665225029,-0.268492609262
2017/07/09/10:21:46.402428,529107,1499566909,209531418,,0.722569251679,-0.0580052225434,-0.0107900208353,0.749298444025,0.660503467287,-0.0399303739365,0.0263168523939,-0.0353573414159,-0.126779706125,-0.112596956093,0.0549334007559,-0.0879207473675,-0.196487804678,0.589173913002,0.663151502609,0.105226814747,-0.378479957581,0.37455946207,-0.269289910793
2017/07/09/10:21:46.412524,529108,1499566909,219534618,,0.72199614783,-0.0598665918957,-0.0118232101644,0.750146424566,0.659515600543,-0.0400468694084,0.0267537399731,-0.0281423921659,-0.116406969228,-0.118907547614,0.0707174153432,-0.104288443714,-0.187353707796,1.49606370926,0.506894230843,-0.0113733224571,-0.370981454849,0.786123871803,-0.347232878208
2017/07/09/10:21:46.422737,529109,1499566909,229531204,,0.721636416895,-0.061514307978,-0.0128289448224,0.750725235471,0.658878587772,-0.0394993716954,0.0270264137063,-0.0274245432109,-0.108672070763,-0.115514883343,0.078047013723,-0.110079031356,-0.197203543983,1.67852568626,0.253828376532,-0.278285980225,-0.237465515733,0.854448258877,-0.307517826557
2017/07/09/10:21:46.432704,529110,1499566909,239538630,,0.720348419637,-0.0625088504568,-0.0146396808766,0.751765460641,0.657737513446,-0.0394187621247,0.0260041686132,-0.0631784796107,-0.116067335907,-0.127460969182,0.0769704976301,-0.0418341933268,-0.223372418134,1.60994839668,-0.286457329988,-0.639700353146,-0.120549947023,0.857411086559,-0.323354959488
2017/07/09/10:21:46.442697,529111,1499566909,249538064,,0.720501301016,-0.0632831510975,-0.0153237219606,0.751948385045,0.657554338762,-0.0386368656969,0.0265162292226,-0.0500533527631,-0.0991458472578,-0.12718874111,0.07142451305,-0.0460780736965,-0.180576002549,1.70444333553,-0.313519775867,-0.383614659309,-0.0877901017666,0.763386905193,-0.319075196981
2017/07/09/10:21:46.452586,529112,1499566909,259540660,,0.719709470612,-0.064027159419,-0.0168439229211,0.752349986667,0.657134938919,-0.0383859465415,0.0258783446745,-0.0632929119547,-0.111875615067,-0.125273448489,0.0511693720087,-0.0147339097047,-0.134281109221,1.70629000664,-0.136411249638,-0.214675813913,-0.148346140981,0.827779769897,-0.327689409256
2017/07/09/10:21:46.462364,529113,1499566909,269535449,,0.719417220739,-0.0654754716991,-0.0177011676174,0.753097764868,0.656271947953,-0.0382332165018,0.0262508673735,-0.0576984809197,-0.0897554387094,-0.131779502699,0.0729865427223,-0.0255122313644,-0.137167859297,2.0746152401,-0.238711118698,-0.0222659707069,-0.168199822307,0.924414873123,-0.389053404331
2017/07/09/10:21:46.472596,529114,1499566909,279530745,,0.718548759426,-0.0655799729607,-0.01931647862,0.753528374468,0.655828759069,-0.0380082513225,0.0252784588257,-0.0519886041213,-0.0662479080305,-0.133097315654,0.0912189098498,-0.0209857449504,-0.158067875402,2.06138086319,0.10211238265,0.28343808651,-0.255935877562,0.924156188965,-0.376904904842
2017/07/09/10:21:46.482302,529115,1499566909,289530058,,0.718020426264,-0.0667591425351,-0.0203602198024,0.754249245518,0.655020825563,-0.0376810846852,0.0252176440429,-0.0540389541457,-0.100933630174,-0.117448593843,0.0650351784946,-0.0347405454954,-0.176211236689,1.64272081852,-0.463911086321,0.318038105965,-0.0291725546122,0.807125449181,-0.339528858662
2017/07/09/10:21:46.492492,529116,1499566909,299535061,,0.717269539352,-0.0673572566334,-0.0217098271409,0.75436211322,0.654925788267,-0.0374462062685,0.0246535116614,-0.0736817714579,-0.106030081818,-0.126959827814,0.0653494913188,0.00614615235568,-0.128472148395,2.819272995,-0.693014323711,0.334230661392,0.164284870028,1.19542896748,-0.342971503735
2017/07/09/10:21:46.502451,529117,1499566909,309534355,,0.715903279308,-0.0687952754541,-0.0233575544031,0.755120283056,0.654057360178,-0.0378122489549,0.023928258259,-0.0730188558264,-0.0942475736602,-0.129400241556,0.0791974867037,0.0153625295514,-0.1220291228,3.09063673019,-0.785479664803,-0.382257848978,0.133485928178,1.34313344955,-0.355239510536
2017/07/09/10:21:46.512478,529118,1499566909,319538347,,0.715329269172,-0.0692429361408,-0.0241024048892,0.754777292352,0.654466346823,-0.037768294057,0.0236346311411,-0.0739692467178,-0.0822405723221,-0.12288805769,0.0778542072268,0.0406326659114,-0.0877099701688,3.09735918045,-0.918735921383,-0.378052264452,0.162946030498,1.39936041832,-0.357204675674
2017/07/09/10:21:46.522308,529119,1499566909,329537788,,0.715131275618,-0.0699569093062,-0.0249924331098,0.754982627897,0.654245922577,-0.0375776646211,0.0234824080369,-0.0956804816398,-0.0939803348042,-0.12647897708,0.0859758358092,0.0801216425916,-0.0793937964937,3.0759768486,-0.72129034996,-0.352368235588,0.00593712925911,1.33491361141,-0.394227027893
2017/07/09/10:21:46.532344,529120,1499566909,339538582,,0.714436640279,-0.0707570259413,-0.025844151205,0.755310434917,0.653892002472,-0.0374618950629,0.022978303398,-0.0778208948005,-0.0736340538721,-0.113559155296,0.0845789461257,0.0639811086055,-0.0411305210917,2.54420208931,-0.826305985451,-0.107290610671,0.161391496658,1.11212849617,-0.33817756176
2017/07/09/10:21:46.542560,529121,1499566909,349536258,,0.713735266178,-0.0721765737399,-0.02699279143,0.755436451041,0.653745929702,-0.0375122943456,0.0229097273829,-0.0788525115175,-0.0891182623663,-0.109664692543,0.0708385523092,0.057913348295,-0.0321455726609,2.09153485298,-0.96618950367,-0.190195441246,0.194278359413,0.916892588139,-0.29725921154
2017/07/09/10:21:46.552180,529122,1499566909,359537252,,0.712783243093,-0.0725471787958,-0.028277034991,0.755093224623,0.654163434079,-0.0375826025018,0.022180433534,-0.0856081446622,-0.108908461344,-0.119890664815,0.0666325708025,0.0493762136362,-0.0254033108787,2.33191919327,-0.580453157425,-0.455454051495,0.0550391227007,1.02435493469,-0.331967532635
2017/07/09/10:21:46.562529,529123,1499566909,369535469,,0.712013115733,-0.0725838086079,-0.0299784679446,0.755038257246,0.654286363709,-0.0370619650788,0.0212836816487,-0.0727772475902,-0.0652839774562,-0.132074037541,0.103755234715,0.0423646392723,0.021317897736,2.50194764137,-0.175443708897,-0.920297622681,0.0192432403564,1.06352674961,-0.282100111246
2017/07/09/10:21:46.572281,529124,1499566909,379535366,,0.711427735541,-0.0739386833519,-0.0307293703596,0.755135378306,0.654189123903,-0.0368037842906,0.0212751512259,-0.0660944322291,-0.0852092185774,-0.130551828717,0.0770131844495,0.0148163412338,0.00891980555955,3.25572633743,-0.866265654564,-0.491691023111,0.0880907773972,1.36320960522,-0.340657889843
2017/07/09/10:21:46.582384,529125,1499566909,389536601,,0.711019151143,-0.0755722263505,-0.0319992104701,0.755093172676,0.65423099949,-0.0367429901845,0.0215882504311,-0.0622591077825,-0.0774203978479,-0.128087630449,0.0724755785407,0.0138852994617,0.0459377693143,2.83818006516,-0.908717632294,-0.254076421261,0.143834933639,1.1999502182,-0.316134124994
2017/07/09/10:21:46.592620,529126,1499566909,399535567,,0.710456773319,-0.0753648730511,-0.0335255002921,0.754940950385,0.654451650269,-0.0364435130192,0.0207139868288,-0.0654288220198,-0.0927218765568,-0.128639687901,0.0669123471121,0.00522145911137,0.0167596361975,3.22126865387,-0.563644886017,0.242603003979,0.0866828560829,1.31563854218,-0.309991359711
2017/07/09/10:21:46.602710,529127,1499566909,409537582,,0.709947702278,-0.0766138984324,-0.03475740153,0.754765566497,0.654655945258,-0.0363327220541,0.0208438546857,-0.0547123688535,-0.076857233228,-0.123899465522,0.0658824377537,0.00358264069869,0.0796081939227,2.90571546555,-0.559339404106,0.210650071502,0.00134022533894,1.23009431362,-0.356850802898
2017/07/09/10:21:46.612457,529128,1499566909,419544771,,0.709225815082,-0.0780062185828,-0.0356097775057,0.754573323415,0.654914485064,-0.0357675901848,0.02065904974,-0.0384059946639,-0.0693539472218,-0.114638014598,0.0733997863124,-0.0335270540979,0.0924042318384,2.32307457924,-0.984897255898,0.355620503426,0.0947018563747,1.08307218552,-0.295499652624
2017/07/09/10:21:46.622304,529129,1499566909,429544005,,0.709056394439,-0.0777305102447,-0.0366346562522,0.75380039364,0.655841128269,-0.0353808216309,0.0201389791155,-0.0530411543287,-0.10253940881,-0.115699058701,0.0522366754585,-0.022334401718,0.085384993374,2.92165207863,-0.111356258392,0.164867252111,0.0851654261351,1.17527210712,-0.26787224412
2017/07/09/10:21:46.632470,529130,1499566909,439540351,,0.708614578546,-0.078505256335,-0.0377961737736,0.75361621886,0.656062608063,-0.035284031929,0.0199871474579,-0.0491458004728,-0.0801570322693,-0.125061990959,0.0868516513082,-0.0202401709075,0.11469807717,2.92268323898,-0.730928838253,0.226107135415,0.232092514634,1.21678900719,-0.287604391575
2017/07/09/10:21:46.642694,529131,1499566909,449532936,,0.707306532778,-0.0798889812371,-0.0395728911617,0.753370506062,0.656333078883,-0.0356826810418,0.0196600211984,-0.0510980207179,-0.0679309649873,-0.126854862552,0.0655688798908,0.0029355501902,0.144485511947,2.50901269913,-1.20748078823,-0.433505862951,0.296127736568,1.18858337402,-0.278737366199
2017/07/09/10:21:46.652283,529132,1499566909,459561282,,0.707488895308,-0.0806889383089,-0.0402791160653,0.752773841974,0.657052304195,-0.0349096928977,0.0198777698223,-0.0358868306722,-0.0560138004633,-0.115047426407,0.0768507638676,-0.0194729300279,0.160883214708,3.08619403839,-1.57874834538,-0.119793377817,0.418562471867,1.31225061417,-0.285975307226
2017/07/09/10:21:46.662560,529133,1499566909,469539650,,0.706943705046,-0.0808635496491,-0.0415304725097,0.752231494214,0.657703459792,-0.0345905659551,0.0194275792588,-0.0434430612813,-0.0846845349176,-0.116892454033,0.0430875384235,-0.0207841644264,0.136502471052,3.21737933159,-1.17037773132,-0.196637481451,0.426051825285,1.35920393467,-0.274764180183
2017/07/09/10:21:46.672452,529134,1499566909,479539768,,0.706551599118,-0.0811163005881,-0.0427327366463,0.751894783292,0.658125215431,-0.0342176219891,0.0188305607406,-0.0472770412647,-0.0822072895843,-0.122221121921,0.0618927114504,-0.0205313828077,0.120009160083,2.80923724174,-1.13641178608,-0.104500293732,0.36361348629,1.22867631912,-0.266446977854
2017/07/09/10:21:46.682653,529135,1499566909,489532927,,0.70658851407,-0.082533301774,-0.0432551100683,0.751602859722,0.658452841252,-0.0338798725907,0.0196252729592,-0.0448546154065,-0.069525962543,-0.113237091992,0.0545606623195,-0.00392588881082,0.151299503252,3.36352086067,-1.08620142937,0.203449517488,0.307156503201,1.334815979,-0.288520872593
2017/07/09/10:21:46.692604,529136,1499566909,499534662,,0.705183489046,-0.0834717977717,-0.04476051939,0.750878839903,0.659269420584,-0.0345184083442,0.0187957004015,-0.0536936758688,-0.0807622226282,-0.114005194219,0.0566317183436,0.00525411370549,0.133970408777,2.60300993919,-1.04841911793,-0.6174736619,0.157265782356,1.24696159363,-0.314343214035
2017/07/09/10:21:46.702485,529137,1499566909,509531080,,0.705544860777,-0.0838654245336,-0.0452751048397,0.750534992157,0.659682990077,-0.0338448424964,0.0192381076724,-0.050522515972,-0.0602931040392,-0.119750594829,0.0666954350399,0.00568196056895,0.156696643345,3.58892321587,-1.00459003448,-7.7098608017e-05,0.258197963238,1.47326052189,-0.295498341322
2017/07/09/10:21:46.712397,529138,1499566909,519540000,,0.705736304616,-0.0836382638423,-0.0466201637859,0.749775452901,0.660606221642,-0.0328373384474,0.0189182282148,-0.0227837741624,-0.0616207564591,-0.106751887423,0.0659423915723,-0.0510487558982,0.153092909272,3.325766325,-0.500907421112,-0.366940647364,0.122047275305,1.34713792801,-0.303387343884
2017/07/09/10:21:46.722217,529139,1499566909,529529571,,0.704715098158,-0.0847232905173,-0.0477162612209,0.749326184721,0.661113212608,-0.0330789617924,0.0185841678167,-0.0307031272601,-0.0537166868698,-0.110849673114,0.0743328910992,-0.0360667583837,0.171780850929,3.08563232422,-1.53481674194,-0.695478856564,0.38633993268,1.31499123573,-0.286523580551
2017/07/09/10:21:46.732444,529140,1499566909,539537284,,0.704903950571,-0.0851475377375,-0.0484689014186,0.748911405382,0.661597356796,-0.0325900580363,0.0189349541014,-0.0490475311261,-0.0700253575172,-0.112294338865,0.0499576631844,0.00118289251447,0.172382733258,3.94366979599,-1.89429867268,-0.223833173513,0.60619020462,1.60416245461,-0.278299808502
2017/07/09/10:21:46.742256,529141,1499566909,549535225,,0.703569259988,-0.0864408048953,-0.0497442162538,0.748445936987,0.662132648071,-0.0328002792909,0.0182531488791,-0.0536484007554,-0.0964894083241,-0.0999212326582,0.0428596606245,-0.0124263330198,0.108369168297,3.29168987274,-1.78453850746,0.134290248156,0.583243727684,1.58218681812,-0.326590299606
2017/07/09/10:21:46.752525,529142,1499566909,559538342,,0.702531843045,-0.0873266853619,-0.0513114755775,0.747974108862,0.662679292674,-0.0328461270573,0.0176640728674,-0.0640211926577,-0.0564117860853,-0.110519579267,0.0676491385652,0.0492820836119,0.200192780009,2.4166636467,-1.70706415176,-0.238536685705,0.542368769646,1.42025208473,-0.28388017416
2017/07/09/10:21:46.762302,529143,1499566909,569540098,,0.702622462319,-0.087507300118,-0.0514532160702,0.747436194177,0.663297994975,-0.0325958368011,0.0176753195002,-0.0664019414818,-0.0506801602804,-0.104436497785,0.0848206281529,0.0653357999744,0.1798168984,2.72669839859,-0.900987923145,0.683434307575,0.368625551462,1.39690077305,-0.3015640378
2017/07/09/10:21:46.772643,529144,1499566909,579536774,,0.702322318179,-0.0871849225158,-0.0527508564362,0.746281734905,0.664624087239,-0.0323061693912,0.0171670098782,-0.0614700314608,-0.024579393584,-0.100783703144,0.0958256027251,0.0809537912092,0.198278914245,2.08385753632,-0.23103299737,0.585025787354,0.181781426072,1.02299141884,-0.22004711628
2017/07/09/10:21:46.782598,529145,1499566909,589532142,,0.701679835154,-0.08773593976,-0.0534097088816,0.745863506354,0.665092281173,-0.0325433497236,0.0167576192574,-0.0587219604376,-0.0551729110777,-0.091270775709,0.0574956702469,0.0525005454534,0.209714537022,1.97662365437,0.117676138878,0.591696560383,0.0592465400696,0.925309002399,-0.214704215527
2017/07/09/10:21:46.792524,529146,1499566909,599534662,,0.701284668728,-0.088977401366,-0.0541493042419,0.745637781983,0.665349914813,-0.0323133971018,0.0170186164377,-0.0631497117797,-0.0628021746771,-0.0935787590946,0.0501718146767,0.0475943879317,0.198231506684,2.09314060211,-0.680107414722,0.442432492971,0.190061956644,0.947627663612,-0.211213231087
2017/07/09/10:21:46.802464,529147,1499566909,609534224,,0.700769605832,-0.0885311462089,-0.0553344433384,0.744981671423,0.666116164888,-0.0321139566947,0.0161325107949,-0.0335379915174,-0.0634208371633,-0.0853918357376,0.0285994835596,-0.0138479881785,0.157090924495,3.02074289322,-0.740636825562,-0.313901185989,0.260603904724,1.32834076881,-0.233647495508
2017/07/09/10:21:46.812463,529148,1499566909,619566399,,0.700290631971,-0.0902403290491,-0.056026792398,0.744989184748,0.666103509309,-0.031994876101,0.0165395706868,-0.0340604524995,-0.0367523129594,-0.0891445712923,0.0624889088751,-0.00685312809511,0.126219783344,3.44795131683,-1.60274112225,-0.615805029869,0.596828579903,1.46851837635,-0.228220120072
2017/07/09/10:21:46.822454,529149,1499566909,629532242,,0.69959378614,-0.0898665426161,-0.0575583740942,0.745090289312,0.666019173251,-0.0317946636161,0.0157486825254,-0.0465385724856,-0.0391736353921,-0.102096598404,0.0662326257906,0.0139282572511,0.0320252919029,3.64507460594,-1.44030594826,-0.747419476509,0.46495872736,1.58627045155,-0.239893019199
2017/07/09/10:21:46.832650,529150,1499566909,639538264,,0.699756304358,-0.0903401182815,-0.0576828129792,0.744662620393,0.666492508601,-0.031713883926,0.0161104728441,-0.0449167266307,-0.0437052852374,-0.101305280947,0.0613185802738,-0.00612479641096,-0.0200397766221,3.46609783173,-1.18193244934,-0.126950085163,0.482162296772,1.34796333313,-0.201374053955
2017/07/09/10:21:46.842646,529151,1499566909,649534314,,0.699832006915,-0.0903973056176,-0.0585894283585,0.745463626849,0.665637001343,-0.0308690729171,0.0160768102066,-0.0346547019926,-0.0445898748375,-0.0855122837112,0.028020130964,-0.0116283585622,-0.00650869289862,3.46844959259,-1.29120802879,0.274136066437,0.373128056526,1.3474200964,-0.239345580339
2017/07/09/10:21:46.852503,529152,1499566909,659534781,,0.69892654927,-0.0914108962916,-0.0595056378426,0.745592039925,0.665480228204,-0.0312151148293,0.015943414812,-0.0217411002945,-0.0437751518236,-0.071896998948,0.0449938422676,-0.0497975137575,-0.0353747398309,2.70625686646,-1.06786251068,0.0323962941766,0.323325008154,1.21064627171,-0.221841394901
2017/07/09/10:21:46.862311,529153,1499566909,669532243,,0.698853850345,-0.0922443225288,-0.0596376083723,0.745489942759,0.665598225199,-0.0310003209375,0.0162088852183,-0.0399455261868,-0.0416631853971,-0.080818387442,0.0582269187469,-0.0199637386435,-0.0662015501073,3.77853488922,-1.63012516499,0.0322507731616,0.534459233284,1.52346515656,-0.239261835814
2017/07/09/10:21:46.872390,529154,1499566909,679538525,,0.69897043959,-0.0920089970109,-0.0605057992417,0.744915482727,0.666254869097,-0.0306770521781,0.016257043601,-0.0166198421823,-0.0348645204149,-0.0632977050227,0.0490696804287,-0.0475165187394,-0.0381554773273,4.32159805298,-1.63319396973,-0.272272616625,0.56160902977,1.68060922623,-0.2314632833
2017/07/09/10:21:46.882383,529155,1499566909,689534200,,0.698459886012,-0.0925902402748,-0.0611662507143,0.745002935596,0.666157069438,-0.030794710506,0.0160334211961,-0.0270263855157,-0.0257096689013,-0.0715815178644,0.0369621395082,-0.000379824393247,0.0324123604906,4.42571687698,-1.89486515522,-0.771292567253,0.539203226566,1.83373129368,-0.252046972513
2017/07/09/10:21:46.892361,529156,1499566909,699533537,,0.698332441149,-0.0922413525787,-0.0618776035949,0.744817154205,0.666415905757,-0.0299847606182,0.0154324815697,-0.0328569649334,-0.0331817478588,-0.0771031141575,0.0481271403796,0.00728084100773,0.109961819053,4.73109865189,-1.759116292,-1.49949359894,0.701261281967,1.90408146381,-0.217727199197
2017/07/09/10:21:46.902911,529157,1499566909,709537930,,0.69809527142,-0.0923900083885,-0.0625994148325,0.743695092004,0.667652702427,-0.0303330783627,0.0154072524783,-0.0473094182464,-0.029054057499,-0.0735721297225,0.0539815214987,0.0446377686968,0.119437626242,4.82586288452,-1.37185323238,-0.727338016033,0.446438938379,1.90235078335,-0.261392533779
2017/07/09/10:21:46.912307,529158,1499566909,719536226,,0.697185645071,-0.0929175432156,-0.0628921598331,0.744160202429,0.667143373582,-0.0304672763504,0.0147328639057,-0.0331655515164,-0.0205823358108,-0.0628175740111,0.0330911249779,0.0316794961404,0.14137191432,3.94086766243,-1.01283919811,-0.403414309025,0.44408673048,1.53301811218,-0.203317016363
2017/07/09/10:21:46.922687,529159,1499566909,729540012,,0.696228449068,-0.093006280714,-0.0643186755334,0.743859009111,0.667487481581,-0.0306114282589,0.0140419712762,-0.0258467265838,-0.0308027272419,-0.0514686785336,0.0328407153271,0.00660936662685,0.0628353498421,3.39005351067,-1.09771251678,-0.673821985722,0.38924574852,1.49158573151,-0.202150225639
2017/07/09/10:21:46.932410,529160,1499566909,739534129,,0.696644405807,-0.0934253465968,-0.0644720966829,0.744403229686,0.66690319358,-0.0298955351448,0.0144989311476,-0.0404906471254,-0.03779031298,-0.0524501057788,0.0398165041987,0.0138147191907,-0.012423622239,3.7870516777,-1.49535679817,-0.714387595654,0.609177112579,1.54667282104,-0.1746571064
2017/07/09/10:21:46.942243,529161,1499566909,749533028,,0.696711517941,-0.0942067017555,-0.0643622182922,0.744158238038,0.667144211323,-0.0303118581364,0.0151099078084,-0.0300877422263,-0.0232875177669,-0.0568661490419,0.0313737855905,0.0142801764048,-0.0113281379415,3.96122097969,-2.41395545006,-0.265283018351,1.06662452221,1.4925891161,-0.107291199267
2017/07/09/10:21:46.952646,529162,1499566909,759540161,,0.696407017531,-0.0938002491515,-0.065134341435,0.744103317661,0.667238527386,-0.0299121120508,0.0144314160934,-0.0332573405076,-0.0220419898569,-0.0537703362753,0.0204746632941,0.0196687326167,0.0060800991195,3.13395047188,-2.53640007973,-0.407977998257,1.21647584438,1.19227170944,-0.0928753837943
2017/07/09/10:21:46.962544,529163,1499566909,769530626,,0.69559843175,-0.0948189345236,-0.0655108591193,0.74462122868,0.666640628815,-0.0303540492207,0.0144266942729,-0.0171692002032,-0.0376010545517,-0.0358655042128,0.0241791211334,-0.0338778811221,-0.0692258346201,2.52946448326,-3.07205486298,-0.19679236412,1.44783759117,0.937089145184,-0.0315645523369
2017/07/09/10:21:46.972358,529164,1499566909,779531533,,0.695309997972,-0.0940494804517,-0.0663818541179,0.744644191638,0.666631909544,-0.0302829052811,0.0137793571994,-0.0238126873976,-0.0372340830677,-0.0378925424989,0.0098676291706,-0.0119418801019,-0.0813000907765,2.26895308495,-1.81369793415,-0.442988872528,1.05454564095,0.91143476963,-0.0715707689524
2017/07/09/10:21:46.982578,529165,1499566909,789535035,,0.695430967854,-0.0943768464624,-0.0663359158352,0.745037208884,0.666226848267,-0.0294876378428,0.0138500267403,-0.0323761014093,-0.00194894139037,-0.0560808239008,0.0501958515453,0.0258054950957,-0.0476557026821,3.43056321144,-2.24676132202,0.20856487751,1.00316441059,1.36380207539,-0.132008418441
2017/07/09/10:21:46.992516,529166,1499566909,799555652,,0.695288145201,-0.0946979167051,-0.0667410254279,0.745056258633,0.666194805012,-0.0296960233154,0.0139211869389,-0.0205729856259,0.00913425042201,-0.0496291876486,0.0573829592716,0.0116924574567,-0.00570186681631,3.24369478226,-1.9812527895,0.403203368187,0.73528689146,1.37400388718,-0.168085381389
2017/07/09/10:21:47.002584,529167,1499566909,809532449,,0.695074264981,-0.0950399426517,-0.0665988180767,0.744951785579,0.666302057584,-0.029868225495,0.0140105077721,-0.0140188204791,-0.0138032625935,-0.0306834197241,0.0172395002252,-0.00692188171872,-0.0443092701662,3.20924687386,-2.11941933632,0.791592001915,0.840904355049,1.43391680717,-0.180115118623
2017/07/09/10:21:47.012487,529168,1499566909,819538689,,0.693867208001,-0.0949858114159,-0.0679759454858,0.744893329995,0.666362805475,-0.0304227820689,0.0129997207386,-0.0372211673057,-0.0339130021421,-0.0283265110917,0.0102385200187,0.0271528107887,-0.0558863675207,3.39628243446,-1.41176784039,0.495580077171,0.737864851952,1.4234855175,-0.140231668949
2017/07/09/10:21:47.022489,529169,1499566909,829536308,,0.693945446816,-0.0948851934249,-0.0681174515371,0.745253368455,0.665969680505,-0.0302506713837,0.012911170916,-0.0624365668095,-0.0202407036287,-0.0506831148086,0.0158544563374,0.0998939783949,-0.051722105419,3.80467510223,-1.51910459995,-0.103506796062,0.635912120342,1.62162780762,-0.212727338076
2017/07/09/10:21:47.032476,529170,1499566909,839538860,,0.694689917287,-0.0953300622058,-0.0676262802904,0.745911808115,0.665255398638,-0.0294388824543,0.013571341059,-0.0340372501373,-0.0111482964794,-0.0386583691937,0.0163669757104,0.0550394321092,-0.0301955526183,3.9186770916,-1.78829979897,-0.074037104845,0.772446870804,1.56789720058,-0.170960411429
2017/07/09/10:21:47.042399,529171,1499566909,849544304,,0.694017868434,-0.0945764216501,-0.0684350086701,0.745159727417,0.666093642245,-0.029941666596,0.0126387103073,-0.0147180588293,-0.0131231333768,-0.0175253414752,0.0293235627045,0.00753100417827,-0.0406508531055,3.81217098236,-1.14671123028,0.0910195559263,0.596362292767,1.50625813007,-0.185827732086
2017/07/09/10:21:47.052241,529172,1499566909,859549224,,0.69254796318,-0.0960304248149,-0.0686367232438,0.746082233845,0.665033594104,-0.0306975306627,0.0122180466918,-0.0445335389262,-0.00174922646577,-0.0322650839367,0.0549146202659,0.0637356799272,-0.0412851577405,3.48362803459,-2.33483338356,-0.175803735852,0.808858692646,1.46273243427,-0.165876716375
2017/07/09/10:21:47.062557,529173,1499566909,869533401,,0.69254489919,-0.0957575169382,-0.0690621831286,0.745495214055,0.665704718274,-0.0304968498995,0.0120023345227,-0.0448351438167,-0.0296332479962,-0.0286496653617,0.00880582266471,0.0483976473199,-0.0430891012188,3.85023784637,-1.79977405071,-0.267544537783,0.764876723289,1.53903508186,-0.164546325803
2017/07/09/10:21:47.072542,529174,1499566909,879545443,,0.692380094879,-0.095633259276,-0.0691445569229,0.746034556282,0.665108306243,-0.0303920523027,0.0118196851249,-0.0366727601584,-0.0265693661003,-0.0243169929881,0.0168011886349,0.040255198281,-0.0377412712833,3.68013691902,-1.46673870087,-0.229676395655,0.689351975918,1.43641090393,-0.169925957918
2017/07/09/10:21:47.082398,529175,1499566909,889538179,,0.692099289117,-0.0954212656941,-0.069639304221,0.746028640534,0.665118169471,-0.0304653251397,0.0114434307212,-0.0162459915336,-0.000967035929982,-0.0216995540167,0.0330087455282,0.0147093590317,-0.0099996409244,3.83925294876,-1.61258304119,-0.448892474174,0.770724058151,1.48451113701,-0.141218870878
2017/07/09/10:21:47.092385,529176,1499566909,899534478,,0.692404315873,-0.0948798425137,-0.0693999489287,0.74546767512,0.665751209931,-0.0303941005769,0.0113785094053,-0.0253318977026,-0.00504572228369,-0.023254850783,0.0101806119914,0.0392635551042,-0.0297101701809,3.98273849487,-1.6695047617,-0.246571570635,0.824869096279,1.48090136051,-0.149632841349
2017/07/09/10:21:47.102421,529177,1499566909,909533093,,0.691981910095,-0.0955301069753,-0.0696789165668,0.745778976072,0.665398053254,-0.0304937292147,0.0113702266538,-0.0352852159236,-0.0105362640614,-0.0297123891266,0.0132532067218,0.0505905185184,-0.0620990862515,3.73317980766,-1.62105250359,-0.613047361374,0.722080647945,1.47692894936,-0.167519196868
2017/07/09/10:21:47.112629,529178,1499566909,919544367,,0.691458113926,-0.0961630740201,-0.0700889716809,0.746126662937,0.665003313086,-0.0306679294091,0.0111836731655,-0.0334149933272,-0.0121539628662,-0.028634731486,0.0213640136299,0.0400328459547,-0.0435096930642,3.73577260971,-1.79236030579,-0.493272453547,0.771475493908,1.4412214756,-0.178207144141
2017/07/09/10:21:47.122496,529179,1499566909,929535386,,0.691732466718,-0.0958871788143,-0.0701436679792,0.746342461979,0.664780711464,-0.0302021678224,0.0112855735894,-0.00844627927733,-0.0205608878246,-0.00757500864743,-0.00507408221888,-0.00179396627061,-0.0118787499562,3.28312754631,-1.49284076691,-0.304063886404,0.781383991241,1.28357768059,-0.109379425645
2017/07/09/10:21:47.132502,529180,1499566909,939545590,,0.690849118382,-0.0956948919551,-0.0706957784621,0.746790004377,0.664276950968,-0.0305083167287,0.0104911574635,-0.00719622738502,-0.0143173471963,-0.0112604175855,0.00547763641338,-0.0133609868321,-0.0174047483201,3.23232126236,-1.31229484081,0.326307862997,0.591627657413,1.30134212971,-0.161782309413
2017/07/09/10:21:47.142299,529181,1499566909,949532123,,0.691219889525,-0.0961066959945,-0.0705929425568,0.746315973422,0.664803559743,-0.0305010277972,0.0108803525694,-0.012447462873,-0.00194525964375,-0.0146518632071,0.0215584414735,0.0109460206973,-0.0311345358818,2.40000414848,-1.3861618042,0.358219772577,0.568137288094,0.975291311741,-0.142633989453
2017/07/09/10:21:47.152444,529182,1499566909,959544432,,0.691149095414,-0.0966206284299,-0.0703290833735,0.746370343837,0.664743432288,-0.030357636614,0.0112202036129,-0.0183228753247,-0.0271105396242,-0.0134082868181,-0.00864649101412,0.00885580789934,-0.00407995460209,2.89820241928,-1.61878705025,0.443502932787,0.637665390968,1.07787418365,-0.125108212233
2017/07/09/10:21:47.162619,529183,1499566909,969536107,,0.691359905403,-0.096674290983,-0.0706897957655,0.746629700534,0.66445333451,-0.0301836757574,0.0116104374036,0.0141123907029,-0.00476621617566,0.000136647598032,0.000555966780161,-0.0531991064376,0.00306313056237,3.11897993088,-1.43188583851,0.292990744114,0.703986942768,1.24160659313,-0.148635283113
2017/07/09/10:21:47.172550,529184,1499566909,979545240,,0.691625124941,-0.0960497010873,-0.0706177214051,0.746437966401,0.66467476871,-0.0300977631117,0.011486462074,0.0084905743802,0.00608039015919,-0.0171351229993,0.00351655451132,-0.0370773804442,0.00728616714288,3.38485169411,-0.988482356071,0.259927868843,0.616569519043,1.35739934444,-0.142993524671
2017/07/09/10:21:47.182543,529185,1499566909,989533946,,0.691303481843,-0.0960420449,-0.0709201501887,0.746455256818,0.664672295823,-0.0298853453951,0.01105236923,0.0053640821659,-0.000371420179951,-0.0071713937143,0.00739440909687,-0.0322166188858,-0.00641391330509,3.42312645912,-1.15538549423,0.344235867262,0.694452106953,1.41137707233,-0.161038205028
2017/07/09/10:21:47.192787,529186,1499566909,999543917,,0.691141072607,-0.0966681131561,-0.0707956088121,0.746522142071,0.664566449157,-0.0303870081007,0.0115219699294,-0.00088862718088,0.00408502372891,-0.0106398014514,0.00593093226991,-0.00743489158522,0.0236404454333,3.12973284721,-1.8079252243,0.172494456172,0.779961645603,1.40265977383,-0.184437304735
2017/07/09/10:21:47.202542,529187,1499566910,9533845,,0.691930348919,-0.0960735614112,-0.0708381138572,0.746363775742,0.664772749583,-0.0296705804804,0.0117457365416,-0.00515552741367,-0.0155689791028,-0.00109879807017,-0.0104659366679,-0.00523347261345,-0.0202039890283,3.58426952362,-1.24096155167,0.207048624754,0.655713915825,1.46381700039,-0.172293812037
2017/07/09/10:21:47.212535,529188,1499566910,19544709,,0.691381119933,-0.0958433923109,-0.0709964121057,0.746665030666,0.664438580934,-0.0298187649338,0.0111150980447,0.0169458883482,-0.00326240124951,-0.00374756950628,-0.00977164411054,-0.0328220082587,0.00751341082876,2.9810757637,-1.05910718441,0.242009267211,0.642874956131,1.24619960785,-0.153604701161
2017/07/09/10:21:47.222383,529189,1499566910,29533584,,0.691797107998,-0.0965883353889,-0.0704128565645,0.746312607785,0.664817322539,-0.0298882237002,0.0119211239668,0.00901038403353,0.0142815945949,-0.00195749938764,0.00678570187677,-0.00803513900107,0.000897031537855,3.01780581474,-1.87875759602,0.333354741335,0.872648775578,1.21788620949,-0.110906839371
2017/07/09/10:21:47.232410,529190,1499566910,39532012,,0.691275710707,-0.0962465463339,-0.071234740491,0.746697375801,0.66438997928,-0.0300356402294,0.0112625361328,-0.00781150790117,-0.00985667841043,0.00293312185299,3.85288232818e-05,0.00855766597277,-0.0142956365475,2.79770541191,-1.42893791199,0.0291180741042,0.68454605341,1.21211516857,-0.140742719173
2017/07/09/10:21:47.242501,529191,1499566910,49533901,,0.691468094028,-0.0967757536643,-0.070932464961,0.746421873833,0.664684165435,-0.0301581916433,0.0118249719061,0.00426027952793,0.0113334227275,-0.0045115389837,0.0158042225632,-0.00582663721354,0.00868941741607,-1.17674779892,1.38772380352,3.75060796738,-0.32628506422,-0.393786221743,-0.0232314802706
2017/07/09/10:21:47.252367,529192,1499566910,59533228,,0.691618516451,-0.0963269420634,-0.07102525884,0.746646492024,0.664449323677,-0.0298142193274,0.0117142878601,0.00457170694188,0.0145323961773,0.00447239813281,0.00240454979049,0.00195440854857,0.0118257465805,-0.185277372599,0.825334012508,3.1158592701,-0.203064858913,0.0376849658787,-0.0780750066042
2017/07/09/10:21:47.262600,529193,1499566910,69533424,,0.69215009577,-0.0962120174063,-0.070607912855,0.746378140239,0.664771876427,-0.029259668578,0.0119120056656,0.00322000867101,-0.00598957617927,0.00644931240595,-0.0198661252669,-0.00274779761359,-0.00249740932374,0.545986413956,0.00030230730772,1.70875990391,0.21161788702,0.290593802929,-0.0541561879218
2017/07/09/10:21:47.272546,529194,1499566910,79539073,,0.692145408654,-0.0958650208525,-0.0708560862557,0.746502829524,0.66463358974,-0.0292896553417,0.0117402296791,0.0100370366801,-0.0122491393583,0.00416953176403,-0.00725778230776,-0.0282421584464,-0.00242840552961,-1.25793135166,0.220129430294,1.63174402714,0.239814251661,-0.432844817638,0.0320109352469
2017/07/09/10:21:47.282438,529195,1499566910,89531470,,0.692238341339,-0.0963721799359,-0.0706337700926,0.746365701608,0.664772042718,-0.0294549712646,0.0121973501982,0.0275241512862,-0.00426405329294,0.0127089973625,-0.000340852363328,-0.066797364283,-0.000939270668096,-1.5340269804,0.205155283213,1.58911371231,0.200501024723,-0.451012670994,0.00150484219193
2017/07/09/10:21:47.292459,529196,1499566910,99537163,,0.692654955775,-0.0961039813842,-0.07087810231,0.746311521674,0.664852660041,-0.0289993978114,0.0122101588491,0.0203106057713,-0.00278218950282,0.00721417647922,0.00609120211937,-0.0606127375554,0.0148461503572,-1.26149618626,-0.146854907274,1.48996949196,0.324320733547,-0.263923317194,0.0176950953901
2017/07/09/10:21:47.302125,529197,1499566910,109536302,,0.692805243014,-0.095655000117,-0.0709702161237,0.746663579718,0.664474220167,-0.0286529572406,0.0121044412657,0.0168912400159,-0.00682588797856,-0.00137361514599,0.0085360513736,-0.0572496488984,-0.0276979134325,-1.47546076775,-0.111607968807,1.33952629566,0.299119353294,-0.367631882429,0.025741700083
2017/07/09/10:21:47.312554,529198,1499566910,119535273,,0.692609402032,-0.0958645426782,-0.0708689104543,0.746436940206,0.664719813123,-0.0288468161337,0.0121377731471,0.00337585802832,0.00317411011232,-0.0140899798796,0.0150074589909,-0.0188768163881,-0.0334391408516,-1.57945406437,-0.269712567329,1.13213968277,0.37671649456,-0.447583884001,0.0644353628159
2017/07/09/10:21:47.322411,529199,1499566910,129537934,,0.692934510905,-0.0960373692701,-0.0707559195984,0.746215000765,0.664969923521,-0.0286859890354,0.0124614396727,0.0128230802786,0.00324131941634,-0.00233420270518,0.000731971842614,-0.0318975509112,0.00266403302006,-1.36395192146,-0.194913700223,1.03467679024,0.293055057526,-0.372169077396,0.0394296124578
2017/07/09/10:21:47.332371,529200,1499566910,139537110,,0.692827749274,-0.0954266886337,-0.0713190540444,0.745904373302,0.665333216111,-0.0284483112871,0.0122094640577,0.01727290941,-0.000625153119513,-0.0113150569741,-0.0149267521055,-0.0471950015305,0.0265944275015,-0.943756043911,-0.54398047924,1.07002043724,0.479042500257,-0.251391470432,0.0455383360386
2017/07/09/10:21:47.342799,529201,1499566910,149534290,,0.692945667457,-0.0960850157562,-0.0711379282079,0.746406756483,0.664755259896,-0.0285249236558,0.0127955870645,0.0228517404218,0.00293842447926,-0.00629844480333,-0.00739023480754,-0.0674478689652,0.00397051003926,-0.311497837305,-0.901947021484,0.785031020641,0.509309411049,0.0430279262364,-0.00801958981901
2017/07/09/10:21:47.352470,529202,1499566910,159536126,,0.69316610301,-0.095926741515,-0.0712150842031,0.746485654842,0.664669594157,-0.0283572245692,0.0130140513484,0.0238387183268,0.0121289646664,-0.0108193218893,0.00642869653793,-0.0590756607486,-0.0038923837739,-0.283691644669,-0.875033199787,0.898944139481,0.572083413601,0.00377831747755,0.0343201309443
2017/07/09/10:21:47.362611,529203,1499566910,169532146,,0.693684111695,-0.095670764042,-0.071275158733,0.746751404098,0.664389509092,-0.0277909935649,0.0132883920272,0.0112235581188,-0.00310259993923,-0.0139299668818,-0.0135836300235,-0.040556169658,-0.00601846224518,-0.601424872875,-0.993625879288,0.835517048836,0.784951925278,-0.159106463194,0.0934069156647
2017/07/09/10:21:47.372526,529204,1499566910,179538317,,0.694234692317,-0.0966074737334,-0.0712722555859,0.746337833923,0.664835503304,-0.0277200317032,0.014324491047,0.0110699317943,0.0205812865733,-0.0167844203109,0.013618514127,-0.0301195075868,0.0129597602208,-0.492124319077,-0.712710022926,0.835175096989,0.510179698467,-0.00587452016771,0.0243107751012
2017/07/09/10:21:47.382745,529205,1499566910,189536029,,0.693361459258,-0.0961402620022,-0.0717959959321,0.746475408895,0.664691244,-0.0279710047001,0.01332805164,0.0177865707683,-0.00915990802477,-0.00379799418324,-0.00747911023459,-0.0620788886561,0.0118644604292,0.216562315822,-0.955434858799,0.924346923828,0.690978527069,0.293622463942,0.0396549329162
2017/07/09/10:21:47.392512,529206,1499566910,199531645,,0.694397953393,-0.0952421108018,-0.0712965073794,0.746261251982,0.664966274704,-0.026971011892,0.0136587632756,0.0211862267763,0.0144256711674,-0.00395249258984,0.0135290599666,-0.0516881447332,0.0171551661328,0.512979865074,-1.17310106754,0.857266366482,0.758413016796,0.417350113392,0.0455461442471
2017/07/09/10:21:47.402437,529207,1499566910,209530024,,0.694619724846,-0.0959987129309,-0.0709836078137,0.746021557218,0.665203045944,-0.0273718450301,0.014405760378,0.00528392404089,0.011716787893,-0.00857096808687,0.0206152427293,-0.0246385991088,0.00741608956841,0.63739079237,-1.1575460434,0.72340118885,0.706615507603,0.411714971066,0.0146011328325
2017/07/09/10:21:47.412508,529208,1499566910,219545285,,0.694404911241,-0.0955247806041,-0.0712965119737,0.746385303371,0.664827812284,-0.0268713083006,0.0138163568189,0.00188899143203,0.00996874407482,-0.0152967541869,0.0220628254728,-0.01327106809,-0.00508130738797,0.266179174185,-1.0877404213,0.749342739582,0.661334574223,0.222412630916,0.0453476756811
2017/07/09/10:21:47.422434,529209,1499566910,229531567,,0.694250855806,-0.0957594490371,-0.0713287775054,0.746574639508,0.664608024147,-0.0270306632003,0.0138500949175,0.00203729840368,0.0145823731817,-0.002317203253,0.0384755783921,-0.0163451943391,-0.0273738661983,-0.0220051705837,-0.541103243828,0.91707277298,0.312110573053,0.171196594834,0.00311641325243
2017/07/09/10:21:47.432413,529210,1499566910,239532386,,0.694030023598,-0.0955731424141,-0.0718732424089,0.746771549183,0.664399918844,-0.0268853720477,0.0134973308676,-0.0121405752872,0.00808943757795,-0.0160007313615,0.0308925874391,0.00898662799018,-0.0198251382499,0.0787426307797,-0.755623102188,0.972893476486,0.509098172188,0.210450306535,0.0387150272727
2017/07/09/10:21:47.442257,529211,1499566910,249540039,,0.694318014892,-0.0951626013448,-0.071593071783,0.746077888716,0.665182703646,-0.0267970191913,0.0134786683835,-0.00236160200758,0.00757753703944,-0.00874821209212,0.0328155709904,-0.0108739433687,-0.0377968047627,-0.0481558181345,-0.645678043365,0.98697078228,0.435101538897,0.18158864975,0.0337221175432
2017/07/09/10:21:47.452583,529212,1499566910,259536667,,0.693553840733,-0.0949292007301,-0.0722324867651,0.746551980813,0.664663690357,-0.0268032706024,0.012802474393,0.0114479101752,0.0248701529784,-0.00519458926776,0.0399783124698,-0.0210297987347,0.0155432689045,0.426752328873,-0.835691154003,0.742259502411,0.448989033699,0.383924692869,-0.00260256184265
2017/07/09/10:21:47.462541,529213,1499566910,269533834,,0.693968109486,-0.0950914624348,-0.0716688643081,0.746953743763,0.66423443925,-0.0262273384588,0.0128390462845,-0.020500522812,0.0230903767204,-0.0193394895895,0.0583415576081,0.0296887359552,0.00521325557018,0.424699693918,-0.699149668217,0.763444185257,0.411880880594,0.327373296022,0.0228761732578
2017/07/09/10:21:47.472402,529214,1499566910,279531245,,0.694242132434,-0.0946777300724,-0.0717935658139,0.746982702649,0.66421147393,-0.0259441085343,0.012917549097,-0.0284944195085,0.0160901858156,-0.0104034593188,0.0492748601526,0.0487410637469,-0.0553456248819,0.715447366238,-1.00373327732,0.635534584522,0.55449795723,0.379106551409,0.034596029669
2017/07/09/10:21:47.482136,529215,1499566910,289532997,,0.693911752915,-0.0935198273479,-0.0721702949387,0.746983827955,0.664232511592,-0.0258212033856,0.0119831870992,-0.0233404501157,0.0383161687677,-0.0118691049958,0.0871064410876,0.0411342356631,-0.058796660095,1.34017705917,-1.46494245529,0.425848960876,0.672323942184,0.582257270813,0.0106911174953
2017/07/09/10:21:47.492415,529216,1499566910,299550742,,0.693761825361,-0.0933942421868,-0.0717951680771,0.74690229126,0.664325691088,-0.0258790399181,0.0117736470158,-0.0237448970633,0.0345708166385,-0.00849997544805,0.0757674860529,0.0440616627855,-0.0271343096225,1.87361419201,-1.71347296238,0.28929322958,0.768244206905,0.739487886429,-0.000964228063822
2017/07/09/10:21:47.502144,529217,1499566910,309534021,,0.692469336438,-0.0936545778243,-0.0725458742837,0.747003969022,0.664199112567,-0.0265924356825,0.0108375041099,-0.0216856187545,0.0250727411753,-0.00527566883187,0.0659920430815,0.0368715189939,-0.0320689555736,1.73051571846,-1.59986042976,0.401681214571,0.682403028011,0.685353755951,-0.0118494797498
2017/07/09/10:21:47.512440,529218,1499566910,319538232,,0.693025963919,-0.0935588895556,-0.0722927328899,0.747212201921,0.663978037622,-0.0261617097884,0.0110750077971,-0.025119614372,0.0123623258012,-0.0123399380902,0.0538287000603,0.0413264707846,-0.0322522182953,1.6093146801,-1.37068498135,0.269375443459,0.561118960381,0.621102452278,0.0076410472393
2017/07/09/10:21:47.522564,529219,1499566910,329530354,,0.692953517957,-0.0935963983513,-0.0727722738002,0.747126324073,0.664082220348,-0.0259232252772,0.0111824365345,-0.000718612761404,0.0256618779349,-0.00578062389701,0.0588922447729,-0.000150826249332,-0.0197054721256,1.22687864304,-1.28586030006,0.3832244277,0.5917724967,0.460446417332,0.0172775927931
2017/07/09/10:21:47.532060,529220,1499566910,339530252,,0.69345906108,-0.0932587339435,-0.0721368818329,0.747181651162,0.66402718406,-0.025684934365,0.0113032359566,-0.00934683538412,0.0269672961775,-0.0233067836811,0.055789819899,0.00890486678826,-0.0217818437245,0.759290099144,-1.06627225876,0.554425239563,0.486671149731,0.334447860718,0.0568281747401
2017/07/09/10:21:47.542569,529221,1499566910,349531774,,0.693752450599,-0.0927863073191,-0.0724759696232,0.746888903557,0.66437554755,-0.0251839033398,0.0113078987437,0.00105329032793,0.0104431386833,-0.00505315433115,0.00600259995474,-0.0155429361257,-0.000674593659094,1.12107276917,-1.40951120853,0.41640278697,0.428859770298,0.575973808765,0.0867126733065
2017/07/09/10:21:47.552444,529222,1499566910,359531723,,0.692900867797,-0.0938287011922,-0.0726107103699,0.746680136486,0.664554853886,-0.0265049955804,0.0115371211041,-0.00365338357742,-0.0138962909936,-0.000856995064355,-0.0585137458357,0.0101873053493,0.0669258396263,1.89724028111,-1.60766243935,0.228066980839,0.42963385582,0.914827287197,0.0539954379201
2017/07/09/10:21:47.562363,529223,1499566910,369532189,,0.692168511562,-0.0939265106189,-0.0730908195315,0.746331904626,0.66490448357,-0.0276264471286,0.0112913810143,-0.015687965238,-0.0301528845486,-0.00409792751026,-0.104752769254,0.052567825137,0.0892532292389,1.63972496986,-1.62852036953,0.236546695232,0.419586658478,0.782692492008,-0.000165969133377
2017/07/09/10:21:47.572440,529224,1499566910,379538852,,0.691259184114,-0.0953739317873,-0.0727392150031,0.746399678842,0.664778233469,-0.02870468296,0.0115525281814,-0.0208553522404,-0.0444280261928,0.00877657150005,-0.134536503096,0.0616386984954,0.108103995159,1.25685048103,-1.44131028652,0.230491012335,0.393345475197,0.59387999773,-0.0370725281537
2017/07/09/10:21:47.582467,529225,1499566910,389540336,,0.69188022478,-0.0943493131594,-0.0727443371399,0.745520690703,0.665773113603,-0.0284594025704,0.0116242566012,-0.0293178161576,-0.0392311028157,0.00536478133992,-0.113986412202,0.0783778169643,0.111365374856,0.710283994675,-1.07594299316,0.287615269423,0.237705692649,0.383692204952,-0.0420165061951
2017/07/09/10:21:47.592455,529226,1499566910,399534693,,0.692063299276,-0.0951488521043,-0.0724248085138,0.745659887623,0.665595832728,-0.0286050863815,0.0124606772823,-0.035103926968,-0.0402220345043,-0.0101841670703,-0.0966647321569,0.0680443077087,0.098083681095,0.492784738541,-1.2953414917,0.128035202622,0.404243052006,0.282960236073,-0.00791224651039
2017/07/09/10:21:47.602255,529227,1499566910,409534217,,0.691761220963,-0.0956664351512,-0.0725478640087,0.745338965561,0.665926682218,-0.0291475313727,0.0127240615338,-0.027154898602,-0.0319682461943,-0.0145996441748,-0.0719332655975,0.0510819867567,0.0543145839207,1.40700495243,-1.61781394482,0.154302299023,0.556172788143,0.66425806284,0.00314111635089
2017/07/09/10:21:47.612364,529228,1499566910,419547707,,0.691443621801,-0.0942692819029,-0.0732044445949,0.74568141117,0.665582046242,-0.0287915872283,0.0114375373579,-0.0107944101405,-0.00774827294464,-0.00515141323746,-0.0352785702591,0.0199898967802,0.0231165009471,1.16588497162,-1.57555437088,0.271977216005,0.588691055775,0.544950783253,0.0221562050283
2017/07/09/10:21:47.622372,529229,1499566910,429535245,,0.690797799155,-0.0948408814268,-0.0734138289029,0.745575473318,0.665678233612,-0.0293451829524,0.0113385678221,-0.0162588053345,0.00630104946398,-0.00630792519038,0.0072872437793,0.0285497654983,-0.0121698384915,1.3406047821,-1.75742685795,0.217372119427,0.568144202232,0.604324042797,-0.00757796131074
