time,.header.seq,.header.stamp.secs,.header.stamp.nsecs,.header.frame_id,.pose.position.x,.pose.position.y,.pose.position.z,.pose.orientation.x,.pose.orientation.y,.pose.orientation.z,.pose.orientation.w,.twist.linear.x,.twist.linear.y,.twist.linear.z,.twist.angular.x,.twist.angular.y,.twist.angular.z,.wrench.force.x,.wrench.force.y,.wrench.force.z,.wrench.torque.x,.wrench.torque.y,.wrench.torque.z
2017/07/09/10:22:00.392617,530506,1499566923,199703736,,0.780818586073,0.393903749661,0.167781464355,0.62629266675,0.777092461958,0.0546691883003,0.0299346119746,-0.0179475304351,-0.029107669095,-0.024574874691,-0.00666165867002,0.0626507009549,-0.0446046087761,6.87026023865,2.76250529289,-1.59801435471,-1.11799132824,2.2455163002,-0.211372673512
2017/07/09/10:22:00.402605,530507,1499566923,209703512,,0.780547047118,0.393410059698,0.167499997796,0.626271758159,0.777154672404,0.0541279935245,0.0297398791192,-0.00745302848305,-0.0469858511849,-0.0106639551042,-0.00561449361169,0.0447442364902,-0.0725182739086,6.76347780228,2.43982696533,-1.59198570251,-0.831688761711,2.2399263382,-0.124981567264
2017/07/09/10:22:00.412700,530508,1499566923,219711901,,0.780627679782,0.393002993804,0.167026016423,0.626459582121,0.777012503977,0.053915043686,0.029885258858,-0.00416280139311,-0.0607522438313,-0.0152072528261,-0.0255646336083,0.042866403908,-0.0721823694978,6.94446754456,2.62953066826,-1.61278986931,-0.975400328636,2.2665002346,-0.177934467793
2017/07/09/10:22:00.422765,530509,1499566923,229719132,,0.780823785515,0.392044506868,0.16702723068,0.627009734876,0.776569623142,0.0538037957228,0.0300593471288,-0.00363712545952,-0.0542193999578,-0.0226276201598,-0.0121153154163,0.0466719630638,-0.0656228577103,6.31280612946,2.46227812767,-1.23078525066,-0.897039830685,2.06895327568,-0.128867298365
2017/07/09/10:22:00.432713,530510,1499566923,239717374,,0.781075051986,0.3919694873,0.166956198735,0.627081674535,0.776494141311,0.0540913119001,0.0299925315569,0.00846798888831,-0.0443055579176,-0.000408155709886,-0.0205270068841,-0.015886823061,-0.0347015552314,4.53779172897,2.15322160721,-0.391129821539,-0.793227016926,1.45752441883,-0.132083639503
2017/07/09/10:22:00.442927,530511,1499566923,249705338,,0.780841539291,0.390430499843,0.166853316451,0.627521610635,0.776184491707,0.0531262348155,0.0305264834971,0.00881442886406,-0.0751031297851,-0.00589119161149,-0.0433949154176,-0.00554365418923,-0.0726138606267,4.75330352783,2.13981962204,-0.0281048975885,-0.793702065945,1.58217835426,-0.124058559537
2017/07/09/10:22:00.452719,530512,1499566923,259714037,,0.781026913544,0.390101236984,0.166976825841,0.628029294924,0.775763808778,0.0535198301206,0.0300889596296,0.0158202436525,-0.0842486625631,0.00226128938558,-0.0220629630596,-0.00871917001075,-0.110015610735,5.91350269318,2.39223480225,-0.0467564538121,-0.910297334194,2.01844787598,-0.12712623179
2017/07/09/10:22:00.462785,530513,1499566923,269708233,,0.780703980171,0.389068833363,0.166655019688,0.628243854178,0.775635321181,0.0529395272992,0.0299485337481,-0.00717096161858,-0.092041952699,-0.0142568144848,-0.0310223166674,0.0541338318529,-0.104926819268,6.71402645111,2.54732322693,-0.466898977757,-0.885446369648,2.25950980186,-0.0961644500494
2017/07/09/10:22:00.472630,530514,1499566923,279712207,,0.780874293608,0.388152853089,0.166580061782,0.628587033061,0.775365274559,0.0526479582645,0.0302526918808,0.00509337363696,-0.122097952177,-0.00872441635508,-0.0502993749231,0.0377048326726,-0.144380221431,6.922062397,2.44855451584,-0.750650525093,-0.812023460865,2.2564406395,-0.0700332671404
2017/07/09/10:22:00.482625,530515,1499566923,289707332,,0.781232852621,0.387056494766,0.167133404572,0.629518910003,0.774586951678,0.0528660763123,0.0304331104835,0.0223734155861,-0.116199150552,0.00445623975809,-0.0352811486081,0.0022229045761,-0.148632425628,6.13984203339,2.24016952515,-0.994369924068,-0.681823670864,1.88662564754,-0.0986151993275
2017/07/09/10:22:00.492728,530516,1499566923,299720665,,0.780896459899,0.386220110389,0.166042156963,0.629626761605,0.774566440239,0.0521433075369,0.0299674190509,-0.000900329775664,-0.10064829067,-0.0119400034343,-0.0176641856389,0.0528087386159,-0.137620024994,6.30922174454,2.41939473152,-0.889644861221,-0.848749399185,1.9438546896,-0.138036310673
2017/07/09/10:22:00.502528,530517,1499566923,309705565,,0.781237391187,0.386061310051,0.166726142626,0.630088708826,0.774142375881,0.0528935612953,0.0299010376035,0.0211679623436,-0.105622538174,-0.00223365411947,0.00436322630716,-0.00104697732012,-0.166569512321,6.38943767548,2.35866475105,-0.830751717091,-0.868444085121,2.01150202751,-0.167009443045
2017/07/09/10:22:00.512451,530518,1499566923,319706820,,0.782166005241,0.384224960147,0.167261417006,0.6312725332,0.773122508378,0.0533405888834,0.0305181494358,0.0282094071181,-0.0973764228946,0.0036781557744,0.00814560929946,-0.0202557597861,-0.145257217693,6.20781564713,2.14018201828,-0.841624677181,-0.755694210529,1.99334836006,-0.131544306874
2017/07/09/10:22:00.522730,530519,1499566923,329707244,,0.781768263992,0.382646195836,0.16684726481,0.631732831653,0.772813940278,0.0524167501626,0.0304093312279,0.0240587944429,-0.132420676881,-0.00411812348681,-0.0245502846417,-0.00507399113608,-0.168132312073,6.18265295029,2.29886078835,-0.780664205551,-0.819058418274,1.99369716644,-0.127160400152
2017/07/09/10:22:00.532904,530520,1499566923,339705532,,0.782428436318,0.381484764276,0.16692836795,0.632475782059,0.772176138083,0.0526443029583,0.0307729467242,0.0185009191364,-0.13415476306,-0.00235717195857,-0.017767095253,0.00993272866261,-0.191207766756,6.3011507988,2.18589067459,-0.865446090698,-0.774465203285,2.02446842194,-0.128487467766
2017/07/09/10:22:00.543006,530521,1499566923,349703942,,0.782678189769,0.379309030571,0.166951275754,0.633421682182,0.771408070564,0.0523808393761,0.0310291617114,0.0307924795844,-0.134693587431,0.0115305693887,-0.00537271573613,-0.022138897409,-0.190929499069,5.65100622177,1.30866491795,-0.956949830055,-0.259379416704,1.76203715801,0.000899642705917
2017/07/09/10:22:00.552639,530522,1499566923,359736332,,0.782406704905,0.377707191702,0.166672653021,0.634345671843,0.770688056401,0.0520825258804,0.030543392637,0.032277646234,-0.18082023254,0.00150209902004,-0.00840129141399,-0.00752700764134,-0.240761225965,5.56182861328,0.783094644547,-0.976265251637,0.0169094651937,1.74500012398,0.0549931228161
2017/07/09/10:22:00.562914,530523,1499566923,369705848,,0.783324612662,0.376085987624,0.167379551187,0.635433208681,0.769733558667,0.0526090033612,0.0310994972937,0.0314145336569,-0.163071604635,0.0157528873298,-0.00492972850613,-0.0262268963367,-0.223125671435,5.85394287109,0.68445199728,-1.22869455814,0.0644730404019,1.82978522778,0.0813922658563
2017/07/09/10:22:00.572684,530524,1499566923,379705094,,0.783403209661,0.374016804273,0.166987742316,0.636409946939,0.768955337579,0.0522099430519,0.0310514104894,0.0330941450758,-0.174449010146,0.0151414608764,-0.006911483395,-0.0128515082743,-0.239882045559,5.60199689865,0.932977378368,-1.30699503422,-0.0761956050992,1.64997649193,0.00823161005974
2017/07/09/10:22:00.582577,530525,1499566923,389708066,,0.783738590411,0.373287053969,0.167316500898,0.636680639017,0.768712246681,0.0525095134277,0.0310160716875,0.00791173435526,-0.170562058872,-0.00371373823134,-0.00660044111521,0.0433190061179,-0.221911160926,6.40847063065,1.49660873413,-1.53681230545,-0.355255961418,1.88813686371,-0.0152485892177
2017/07/09/10:22:00.592879,530526,1499566923,399709174,,0.783690627393,0.371956971642,0.167828132172,0.637392929856,0.768127820632,0.052360507859,0.031117219623,0.004109252913,-0.17107628384,0.00532582578518,0.00247854931778,0.0484461587889,-0.237449063252,6.86162185669,2.18619632721,-1.72161257267,-0.72687792778,1.99115002155,-0.0993679463863
2017/07/09/10:22:00.602537,530527,1499566923,409703481,,0.783781095284,0.36942903016,0.167662440971,0.638907280383,0.766899973626,0.0518218065338,0.0312476862016,0.00631707973368,-0.164510404969,0.00589848852961,-0.0070259997549,0.040985029751,-0.239086468412,7.10946750641,2.23006606102,-1.88403213024,-0.748089790344,2.04747033119,-0.122383594513
2017/07/09/10:22:00.612508,530528,1499566923,419726475,,0.784084514145,0.367705191846,0.167405646701,0.639809560034,0.766148392952,0.0518412917307,0.0311905007729,0.0282396870833,-0.156720366242,0.0257698228963,0.00812722407954,-0.0246825560972,-0.244469150003,7.23077440262,2.18371629715,-1.87638020515,-0.674386262894,2.15483403206,-0.0867630988359
2017/07/09/10:22:00.622719,530529,1499566923,429703901,,0.784238593387,0.366458877707,0.168181141141,0.640140393801,0.765853623495,0.0519922686082,0.0313896098891,0.0299090964378,-0.192947659643,0.0190069377463,-0.0287209900563,-0.0174298343715,-0.242569871296,7.411236763,2.08884334564,-1.90010297298,-0.630340695381,2.27750778198,-0.085840523243
2017/07/09/10:22:00.632845,530530,1499566923,439708087,,0.784195702522,0.364183059411,0.167908372908,0.641485504457,0.764770908689,0.0515306660765,0.0310868983295,0.0140141762738,-0.200267645359,0.00216136920935,-0.0146337464833,0.0351349784205,-0.248184264571,7.30724573135,1.71930396557,-1.97414922714,-0.463265866041,2.30139112473,-0.0103442817926
2017/07/09/10:22:00.642734,530531,1499566923,449702812,,0.784293338604,0.362192457484,0.167787458998,0.642410608241,0.764022712564,0.0512106860097,0.0309090721846,0.00318545196288,-0.206009768881,0.0127431297187,-0.0358614658389,0.0587148975062,-0.259846456554,7.0163230896,1.82494771481,-2.16536235809,-0.52563893795,2.16714453697,-0.0524589940906
2017/07/09/10:22:00.652667,530532,1499566923,459717982,,0.784259822455,0.360132205464,0.168081402052,0.643737726201,0.762939582072,0.0507225591985,0.0308570244985,0.00219277751333,-0.215729995761,0.0164017317085,-0.0181143934344,0.071749784823,-0.304294843328,6.33957529068,1.28989112377,-2.35118365288,-0.211494013667,1.91560518742,0.0365918651223
2017/07/09/10:22:00.662626,530533,1499566923,469717569,,0.784016251865,0.358097586203,0.167791480133,0.644645734977,0.762230045031,0.0501000400413,0.0304503007553,-0.000144257424564,-0.223330101862,0.0127076441447,-0.02259372235,0.0838993785218,-0.317173404345,5.80799865723,1.41452920437,-2.42112803459,-0.320454716682,1.69588947296,-0.00646562874317
2017/07/09/10:22:00.672637,530534,1499566923,479713082,,0.784136307985,0.355733746987,0.168365460254,0.645607166255,0.761434846142,0.0495866273268,0.030814417907,-0.00966363348727,-0.239144197502,0.0118079258912,-0.0406323470044,0.104804576598,-0.312473293286,5.54681444168,1.53320896626,-2.34404969215,-0.460370868444,1.6103464365,-0.0901650488377
2017/07/09/10:22:00.682853,530535,1499566923,489707654,,0.783390274165,0.35410152401,0.167805051531,0.646746121536,0.760567961209,0.0489146537321,0.0293800495275,-0.0259507249731,-0.230793337388,0.0025590170441,-0.044501423015,0.136576948843,-0.294806761912,4.99591302872,1.6043664217,-2.3109357357,-0.538229346275,1.42051684856,-0.103497833014
2017/07/09/10:22:00.692727,530536,1499566923,499714849,,0.783704824712,0.351151417444,0.168730273966,0.648161613437,0.759349898899,0.0485720724091,0.0302490940554,-0.0312257977426,-0.238050748784,-0.00416008607419,-0.0500695787661,0.150892338135,-0.307918695579,5.20989894867,1.5234657526,-2.28726220131,-0.437418550253,1.52468633652,-0.0655192285776
2017/07/09/10:22:00.702606,530537,1499566923,509709860,,0.783262593213,0.348471127746,0.168546004825,0.649396611719,0.758378390512,0.047620319961,0.029640557004,-0.03749558301,-0.236721197586,0.00223079151642,-0.0251851001461,0.158609750083,-0.310675235623,4.64814376831,1.06598412991,-2.03981733322,-0.181681662798,1.36674380302,0.0231532976031
2017/07/09/10:22:00.712488,530538,1499566923,519711278,,0.782585134837,0.346417568535,0.167998190918,0.650513697647,0.757497176392,0.0470065701725,0.028641565822,-0.0263429068241,-0.250945702446,0.00282752729984,-0.0261540334973,0.147745581274,-0.341878990445,4.75688648224,1.0808403492,-2.16815900803,-0.27373495698,1.38587546349,-0.0411013476551
2017/07/09/10:22:00.722381,530539,1499566923,529704862,,0.782203505674,0.342664484368,0.167932772285,0.652441943047,0.755930719615,0.045533495668,0.0285474844416,-0.0613577115646,-0.262947636066,-0.0153276036984,-0.0597714229653,0.230331803694,-0.323637229463,4.74285697937,1.07159924507,-2.10702085495,-0.212867945433,1.37752127647,-0.0324753597379
2017/07/09/10:22:00.732784,530540,1499566923,539713001,,0.781534565885,0.339897415548,0.16800253836,0.653843710571,0.754809532542,0.0444774133575,0.0277980472537,-0.0673271653168,-0.29665934033,-0.0181027690345,-0.0865894505379,0.251485184636,-0.37670260746,4.89849615097,0.955012083054,-2.04105138779,-0.171594396234,1.44618833065,-0.00676488131285
2017/07/09/10:22:00.742885,530541,1499566923,549712988,,0.780374126435,0.338483920158,0.167481296765,0.654573560874,0.754279458211,0.0433455385742,0.0267790330655,-0.0656494987816,-0.283150053345,-0.017335138958,-0.0487336545779,0.248311343123,-0.37235724173,4.94454574585,1.04201102257,-1.94665920734,-0.285673379898,1.45855820179,-0.0831455141306
2017/07/09/10:22:00.752847,530542,1499566923,559711605,,0.779660807552,0.335649111185,0.167091305904,0.65602437372,0.753113517248,0.0423371540203,0.0256830024123,-0.078201177051,-0.279074602584,-0.0273844435204,-0.0518489114734,0.277295570597,-0.360351289382,4.8769865036,1.02938079834,-1.99789512157,-0.306307941675,1.42182207108,-0.0758675038815
2017/07/09/10:22:00.762542,530543,1499566923,569709160,,0.778849504557,0.332778520922,0.167125699291,0.657315439928,0.752072206476,0.0411524976681,0.025105390137,-0.0722448513957,-0.275939230628,-0.0122446258773,-0.0455304125725,0.254928125327,-0.352579022403,4.70210456848,1.04271924496,-1.59383022785,-0.269099533558,1.42924523354,-0.0316183306277
2017/07/09/10:22:00.772714,530544,1499566923,579709173,,0.778723056823,0.330299028093,0.167260836974,0.658785365661,0.75081949115,0.0406336814156,0.0249166136468,-0.0734961426274,-0.279846895661,-0.0133316009543,-0.0489826376888,0.257033853658,-0.352842042245,4.85611104965,0.97607755661,-1.3843870163,-0.268910229206,1.5213009119,-0.0397614724934
2017/07/09/10:22:00.782472,530545,1499566923,589706127,,0.777845596781,0.327076543678,0.167085605966,0.660213243048,0.749665092366,0.0391641795577,0.0242258133223,-0.0816837924176,-0.290742320836,-0.0198266795302,-0.0531653753276,0.278628978266,-0.375247472876,4.33758878708,0.181178227067,-1.1634978056,-0.152270495892,1.39595115185,-0.0605446770787
2017/07/09/10:22:00.792834,530546,1499566923,599732857,,0.776871139986,0.324264388663,0.166853431704,0.661704610449,0.748439973575,0.0380038792997,0.0232447762666,-0.0772591138654,-0.315809780895,-0.0190444261668,-0.0755011747813,0.277056358746,-0.400575429713,4.62183570862,0.246070444584,-1.11094200611,-0.241874948144,1.51267838478,-0.0917150527239
2017/07/09/10:22:00.802881,530547,1499566923,609706522,,0.776478356931,0.321318277396,0.167066478293,0.663075637493,0.747282121623,0.0371676987434,0.0227748070323,-0.0824650950373,-0.314039064068,-0.0151791851734,-0.0667486727426,0.282644735536,-0.413615451615,3.86265873909,0.325418502092,-1.09666514397,-0.246273219585,1.18896949291,-0.0996145904064
2017/07/09/10:22:00.812687,530548,1499566923,619711306,,0.774809075643,0.317740203167,0.166212993297,0.664327324416,0.74631712173,0.0349524389254,0.0214076355555,-0.0864965904248,-0.312582952291,-0.0191551946365,-0.062820689558,0.29732481169,-0.404113650819,3.30086302757,0.412866145372,-1.09547889233,-0.27073776722,0.941600620747,-0.109516352415
2017/07/09/10:22:00.822603,530549,1499566923,629706793,,0.774494689117,0.314673888999,0.166632262508,0.665904082553,0.744956770374,0.0340340906714,0.0212801265092,-0.0854202895981,-0.334901356158,-0.00722987076378,-0.103895545971,0.289048219775,-0.392915544777,3.2269525528,0.690590322018,-0.966295182705,-0.273553699255,0.899980783463,-0.103352829814
2017/07/09/10:22:00.832495,530550,1499566923,639711602,,0.774087505146,0.311653936448,0.166920770377,0.667816148796,0.743286599568,0.0333460410581,0.0208485936118,-0.0980598227055,-0.325649655559,-0.00898599921684,-0.0918562797512,0.308590904517,-0.402373290173,3.04006576538,0.193602368236,-0.931683719158,-0.0231887623668,0.843647658825,-0.0547960177064
2017/07/09/10:22:00.842559,530551,1499566923,649705968,,0.772536711933,0.308275404697,0.166235329118,0.669367240547,0.742002061871,0.0316169162014,0.0195143042999,-0.102730733947,-0.348274000955,-0.0188366732659,-0.0986115698071,0.320068903345,-0.451568235295,2.45898938179,0.0145679190755,-0.809112608433,0.0619994625449,0.685343503952,-0.0389250814915
2017/07/09/10:22:00.852674,530552,1499566923,659704078,,0.7723495196,0.304370518369,0.166465091208,0.670952763403,0.740606241723,0.0305568564091,0.019775300977,-0.0920696260391,-0.35276175534,-0.0147401875339,-0.0913780035479,0.293356325145,-0.448344251917,2.53258180618,0.0287389159203,-0.51598662138,0.0731725394726,0.785757243633,-0.0549921803176
2017/07/09/10:22:00.862600,530553,1499566923,669712074,,0.770969091809,0.300807569306,0.165635254222,0.672867812072,0.738974824824,0.0288522854181,0.0182390070945,-0.0892567316256,-0.350324673361,-0.0053413295762,-0.076686035321,0.273059730567,-0.443686093318,2.67722511292,-0.0777985453606,-0.487835556269,0.0188035219908,0.872825324535,-0.0769227743149
2017/07/09/10:22:00.872879,530554,1499566923,679712490,,0.770636004726,0.297975141079,0.166410136594,0.674436050076,0.737566962509,0.0285342929617,0.0177984352718,-0.0916053049348,-0.335443137501,-0.00269247546646,-0.0639840501505,0.283338271011,-0.424946503093,2.24694252014,-0.154352635145,-0.378117978573,0.118154756725,0.729298174381,-0.0548915974796
2017/07/09/10:22:00.882756,530555,1499566923,689705223,,0.769352198291,0.294433181608,0.165826473008,0.675936367916,0.736276124011,0.0269308840763,0.01679950067,-0.0773366373379,-0.338165405088,-0.00379353817193,-0.0486786633743,0.252878595657,-0.442424011692,1.14979469776,-0.238949581981,-0.490834265947,0.149869978428,0.349386334419,-0.0774451047182
2017/07/09/10:22:00.892728,530556,1499566923,699713315,,0.768494797604,0.291543946795,0.165869810733,0.677796630537,0.734622413249,0.0257461876975,0.0160863732169,-0.0828105702645,-0.357077338718,0.0101431841849,-0.0522024957901,0.253748149443,-0.477394660145,0.891126692295,-0.284237504005,-0.599855065346,0.07121270895,0.245268642902,-0.102455675602
2017/07/09/10:22:00.902886,530557,1499566923,709704298,,0.767847783067,0.288685904388,0.165769241404,0.67913910389,0.733425262945,0.024937737304,0.0153483060714,-0.0891556149276,-0.349292533393,0.00358750682907,-0.0517674987859,0.268021419401,-0.488823187381,0.599350750446,0.235909104347,-0.91436290741,-0.185896813869,0.0683767795563,-0.172223180532
2017/07/09/10:22:00.912529,530558,1499566923,719713067,,0.766976451456,0.284578164898,0.166048683626,0.681055011429,0.731693085555,0.0237860633298,0.0149506905824,-0.0978145518519,-0.348967090344,-0.00608909931432,-0.0587812750486,0.287374381355,-0.472569131049,1.23765444756,1.59841048717,-0.663563072681,-0.845204114914,0.310920059681,-0.236192464828
2017/07/09/10:22:00.923066,530559,1499566923,729704950,,0.765598198476,0.280448794683,0.165377660017,0.682814842986,0.730133970641,0.0218163128536,0.013868078722,-0.0916846558273,-0.352483758045,-0.00395305644553,-0.0640835350098,0.264977971807,-0.47507575977,1.09002387524,2.04142832756,-0.75343477726,-1.10588955879,0.28468760848,-0.293162584305
2017/07/09/10:22:00.932679,530560,1499566923,739704296,,0.765381687228,0.277309090766,0.16576477242,0.684619232953,0.728452888887,0.0214674480111,0.0138579659224,-0.0886328029344,-0.37623525416,-0.00585174427262,-0.0796338600236,0.263077777662,-0.496558770498,0.505403697491,1.82833862305,-0.565836787224,-1.06256568432,0.0610206872225,-0.314290583134
2017/07/09/10:22:00.942593,530561,1499566923,749710809,,0.764321602882,0.273860653314,0.165318509698,0.68622899217,0.726989805931,0.0200900024822,0.0131142738236,-0.0935491801915,-0.371922613508,-0.0107989330412,-0.0958218401058,0.260025061192,-0.477771106126,-0.292434960604,1.15634119511,-0.330355495214,-0.537737846375,-0.174829483032,-0.185141354799
2017/07/09/10:22:00.952830,530562,1499566923,759712131,,0.764230350848,0.268863237485,0.165980354788,0.688419313951,0.724934706003,0.0191552708789,0.0134757489031,-0.0692267627404,-0.392474080344,0.00485024956803,-0.10313170051,0.201600840486,-0.519527155875,-1.36581432819,-0.180586099625,-0.412858396769,0.0294390693307,-0.556506276131,-0.13347440958
2017/07/09/10:22:00.962883,530563,1499566923,769703434,,0.763180922843,0.266455728516,0.165739152712,0.689646905465,0.723806282988,0.0181777440159,0.0126956729239,-0.0721935386568,-0.391614213543,0.00274358422996,-0.109743472491,0.19328841866,-0.481189807417,-1.75810778141,-0.436933338642,-0.204033210874,0.372700750828,-0.628246068954,-0.0828810855746
2017/07/09/10:22:00.972650,530564,1499566923,779714369,,0.762883357766,0.263065530433,0.165602373115,0.691147087612,0.72239238288,0.0175360854045,0.0125472766735,-0.0670683049549,-0.381735469009,-0.00728251237984,-0.0919792242384,0.191471075431,-0.484349131762,-2.18678092957,-0.431494355202,-0.19393286109,0.342510640621,-0.829845368862,-0.0979719460011
2017/07/09/10:22:00.982742,530565,1499566923,789705426,,0.761575162225,0.259097690323,0.165197801507,0.693532444406,0.720151004397,0.0163413764685,0.0113242588366,-0.0887774535661,-0.391253054495,-0.00890069193486,-0.0860648202307,0.231795861407,-0.484567103491,-2.40035772324,-0.186940222979,-0.174243092537,0.148310691118,-0.947268545628,-0.14138635993
2017/07/09/10:22:00.992783,530566,1499566923,799712355,,0.761314949548,0.255769574042,0.165623353181,0.694709419694,0.71902954567,0.0155304906693,0.0115818177237,-0.084424707222,-0.37729348506,-0.0096454323359,-0.0520252443676,0.215412771515,-0.519991832541,-2.61791014671,0.300896883011,-0.0438103824854,-0.0868953540921,-1.0636857748,-0.152621045709
2017/07/09/10:22:01.002887,530567,1499566923,809707283,,0.760424180999,0.252284875508,0.165203886127,0.696463569583,0.717361078282,0.0145817595378,0.0109065071485,-0.0589146317961,-0.372830962741,0.00106036612143,-0.049686682859,0.143822497224,-0.51050941082,-3.43820166588,0.220209121704,-0.109505586326,-0.174994125962,-1.38172578812,-0.146920070052
2017/07/09/10:22:01.012662,530568,1499566923,819712863,,0.760131309259,0.247904685221,0.165666425508,0.698588165304,0.715297797107,0.0140719654326,0.0112078784247,-0.0621689430159,-0.390768843117,-0.00186133559864,-0.0622558183917,0.150009209612,-0.53989116112,-3.35348320007,0.332251429558,0.0333589911461,-0.277097553015,-1.35027849674,-0.191288292408
2017/07/09/10:22:01.022588,530569,1499566923,829707590,,0.759950136193,0.243476089634,0.165639862962,0.700101274343,0.713822295324,0.0134466400337,0.0116242949723,-0.0511359317031,-0.41580445228,0.000715238685344,-0.111967552385,0.105408111368,-0.52551236952,-3.51712965965,-0.0316314697266,0.247901946306,-0.139782935381,-1.38658046722,-0.175431489944
2017/07/09/10:22:01.032462,530570,1499566923,839704342,,0.759465031207,0.240217656052,0.165498727568,0.701576849332,0.712385091229,0.0125287553981,0.0118505934366,-0.046104214046,-0.403086634934,-0.00716379858045,-0.146461938588,0.0921924438702,-0.454705257449,-3.6901204586,-0.0587953329086,0.618299126625,-0.015635073185,-1.43536543846,-0.162561446428
2017/07/09/10:22:01.042591,530571,1499566923,849705961,,0.758705857657,0.235682695188,0.16476595096,0.703470398461,0.71054066791,0.0112074547325,0.0116512099571,-0.0283014488753,-0.412550468734,-0.00703818345598,-0.148378697772,0.0548459156126,-0.473371749761,-3.78567457199,-0.0364935845137,0.57540667057,0.144424319267,-1.42903542519,-0.145190224051
2017/07/09/10:22:01.052744,530572,1499566923,859710693,,0.758516072113,0.231445697969,0.16520308467,0.705168580042,0.708852622909,0.0103963736805,0.0125358737744,-0.0356559959682,-0.433316642798,-0.0123433304879,-0.18663566776,0.0567185424429,-0.490919540245,-4.72399759293,-0.398265302181,0.81398409605,0.298023998737,-1.8573974371,-0.124743290246
2017/07/09/10:22:01.062488,530573,1499566923,869705568,,0.758227559203,0.226940391262,0.164720528208,0.707040839473,0.706990477928,0.00961023890015,0.0128591891219,-0.034734494569,-0.428614350751,-0.00845107019235,-0.17438240269,0.0547925438424,-0.493138179468,-4.64535903931,-0.285127580166,0.680102646351,0.209675267339,-1.83326387405,-0.11569583416
2017/07/09/10:22:01.072517,530574,1499566923,879712114,,0.758398323963,0.22258635858,0.16507883399,0.708581009667,0.705431337036,0.00900735504298,0.0140871935369,-0.0263817989109,-0.443481386385,-0.00992791076332,-0.176935901754,0.0332359618093,-0.503914477829,-5.50593709946,-0.0451027303934,0.771929740906,0.135945856571,-2.15859603882,-0.107282519341
2017/07/09/10:22:01.082802,530575,1499566923,889703354,,0.758273277676,0.219117377682,0.164665888742,0.710084106767,0.703917301181,0.00856172426369,0.0144114985952,-0.0307249218691,-0.428655872747,-0.0156965499242,-0.189603245585,0.0420591013944,-0.473717004337,-5.61664772034,0.317018270493,0.690469920635,-0.0841925367713,-2.22408723831,-0.104399092495
2017/07/09/10:22:01.092752,530576,1499566923,899709120,,0.758210424727,0.214561918792,0.16452909315,0.711462063393,0.702514934328,0.00766089710484,0.0153561080361,-0.0142377810769,-0.459232408594,-0.00307471498121,-0.223757942088,-0.00553597743851,-0.481623234296,-6.18627262115,0.371086388826,0.705660998821,-0.0277858749032,-2.44866108894,-0.0991582721472
2017/07/09/10:22:01.102481,530577,1499566923,909706086,,0.757977774236,0.210705641435,0.164583280657,0.712543360054,0.701406825894,0.00662458701699,0.0163260368639,-0.0132751910501,-0.460807931783,-0.0158425831012,-0.259212762546,-0.0087997451626,-0.441332188396,-7.16328048706,0.251247018576,0.737398564816,0.0840831696987,-2.79073762894,-0.0802838951349
2017/07/09/10:22:01.112665,530578,1499566923,919703683,,0.757790394088,0.2052871406,0.163961830903,0.7145245127,0.699376582057,0.00545813107341,0.0172431443202,-0.0140710039216,-0.460495156781,-0.0140011482268,-0.278890765317,-0.0152435633696,-0.419955820816,-7.46932458878,-0.135074138641,0.561810076237,0.0311618000269,-2.90694952011,-0.110598891973
2017/07/09/10:22:01.122469,530579,1499566923,929704712,,0.757923553059,0.201854496334,0.164429566996,0.715548958708,0.698304233498,0.00485002993558,0.018367427163,-0.0278385605423,-0.476452081257,-0.0177139187468,-0.271466785893,0.01393035258,-0.468659375198,-7.76509284973,0.415311515331,0.460020899773,-0.0751574337482,-3.08608818054,-0.0935054719448
2017/07/09/10:22:01.132838,530580,1499566923,939705087,,0.757266445591,0.19668162048,0.163826864226,0.717517460092,0.696273651095,0.00354502393616,0.0189507271301,-0.0334427755225,-0.446089627776,-0.0276847620809,-0.280019702245,0.0366594218834,-0.410141058917,-7.45684051514,0.0491933971643,0.29260930419,-0.0485786497593,-2.92624902725,-0.0865643471479
2017/07/09/10:22:01.142814,530581,1499566923,949706639,,0.756893887861,0.192665493193,0.163366296242,0.718534100562,0.695206339403,0.00225876931942,0.019793684475,-0.0311732344532,-0.461843302913,-0.0233629079237,-0.29310220756,0.0254834103543,-0.414710610001,-6.87671661377,-0.0575889050961,0.470482259989,0.046171694994,-2.73518419266,-0.0736138597131
2017/07/09/10:22:01.152459,530582,1499566923,959737190,,0.756898478045,0.189031213818,0.163583157604,0.719656558571,0.694014701726,0.00128030324361,0.0208900051765,-0.0341455116016,-0.454212901654,-0.0233764137658,-0.309997837136,0.0407380977134,-0.430282896179,-6.65752601624,0.272624880075,0.794093489647,0.00335985422134,-2.71432852745,-0.0744736120105
2017/07/09/10:22:01.162963,530583,1499566923,969705576,,0.75613145346,0.183881081007,0.162931969673,0.721327200886,0.692262056333,-0.000442203439437,0.0214503864595,-0.0289048758624,-0.44207656944,-0.0107140861101,-0.310932057411,0.0283380278326,-0.409557658249,-6.86622571945,-0.372422724962,0.703928470612,0.186630904675,-2.82800889015,-0.0514446943998
2017/07/09/10:22:01.172718,530584,1499566923,979711640,,0.756316888679,0.179724158958,0.162733442402,0.722652812294,0.690837215967,-0.00115880106947,0.0227048695031,-0.0264564996337,-0.459821908118,-0.0175810098835,-0.321246657816,0.0261081592647,-0.420046072151,-6.9093413353,-0.12483215332,0.518596529961,0.13976046443,-2.92626237869,-0.0639040470123
2017/07/09/10:22:01.182907,530585,1499566923,989707218,,0.756054036593,0.175465504475,0.163021761612,0.723881828771,0.689512004274,-0.00218777817711,0.0237383142461,-0.0278586272555,-0.451485619765,-0.0204436521948,-0.305989965078,0.0267995599373,-0.400904391228,-8.00508785248,-0.50409913063,0.776318788528,0.214431777596,-3.38802742958,-0.0190875083208
2017/07/09/10:22:01.192801,530586,1499566923,999717889,,0.755710391582,0.171356460776,0.162151837684,0.725256302258,0.688032481034,-0.00339950045601,0.024556963838,-0.0286670324126,-0.464307740334,-0.0353162207712,-0.297180695308,0.0329749171546,-0.426338626536,-7.80526781082,0.181938230991,0.465013831854,0.0477293655276,-3.24382591248,0.00170820951462
2017/07/09/10:22:01.202975,530587,1499566924,9712510,,0.755772725614,0.165975133867,0.161850933026,0.7268321328,0.686313771423,-0.00454553772518,0.0258417486114,-0.0129559078336,-0.444685355915,-0.0390381437053,-0.306356927414,0.00816160689996,-0.385179761116,-7.6959066391,-0.586476624012,0.670909881592,0.155886486173,-3.21815824509,0.0285964161158
2017/07/09/10:22:01.212436,530588,1499566924,19707537,,0.755438837216,0.162211481938,0.161497857421,0.727831388578,0.685205864476,-0.00612335546119,0.0267749436192,-0.0354188402498,-0.476436454556,-0.0523227410706,-0.310675891667,0.0578710811351,-0.428386640955,-7.27881860733,0.117675408721,0.76695138216,-0.0717950239778,-3.08214402199,-0.00283794105053
2017/07/09/10:22:01.222509,530589,1499566924,29706264,,0.75529952853,0.158391224281,0.161160146038,0.729163068951,0.683759841731,-0.00689229421476,0.0273165516566,-0.0234929529667,-0.436173089906,-0.041169229468,-0.309521162369,0.0425984395168,-0.396504820518,-8.13019180298,-0.109468191862,0.610376119614,0.0822524800897,-3.47039842606,0.0753227621317
2017/07/09/10:22:01.232605,530590,1499566924,39710770,,0.755018315172,0.154017109268,0.160579865895,0.730445245389,0.682340465634,-0.00817761849332,0.0281843751547,-0.0204994280585,-0.42116173152,-0.037668691096,-0.288466273291,0.0495670705145,-0.391125706009,-8.62213897705,-0.106001198292,0.580402672291,0.129025608301,-3.7598631382,0.119026318192
2017/07/09/10:22:01.242688,530591,1499566924,49710702,,0.754653443644,0.149891157192,0.160538256307,0.731785740426,0.680845615645,-0.00969804851461,0.0290658841456,-0.0439027840062,-0.443666735796,-0.0544280958396,-0.292358107327,0.105247729963,-0.44789449311,-8.67301750183,-0.0887144356966,0.303106367588,0.0875155925751,-3.88591814041,0.141654849052
2017/07/09/10:22:01.252740,530592,1499566924,59708132,,0.754155529525,0.145576957986,0.15949112071,0.73331880733,0.679149203659,-0.0111588979982,0.0295865675716,-0.033503800059,-0.460428719916,-0.0419099746504,-0.340217403207,0.0806186575846,-0.414304966472,-8.63003921509,-0.0586202293634,-0.102648243308,0.0889160260558,-3.96208167076,0.138343408704
2017/07/09/10:22:01.262629,530593,1499566924,69707901,,0.754268285876,0.141622019261,0.159546058365,0.734000103459,0.678330015728,-0.0125359397099,0.0309044996678,-0.0341783723656,-0.440732790553,-0.0501558334516,-0.32935067104,0.0884225347517,-0.392847607963,-8.07231521606,-0.134000271559,0.228810459375,0.197047233582,-3.81249427795,0.181497141719
2017/07/09/10:22:01.272560,530594,1499566924,79709195,,0.753671220771,0.137212481825,0.158467414866,0.735532420049,0.676620281388,-0.0139911335374,0.0313257410669,-0.0283377325588,-0.421395409245,-0.0485258029306,-0.313073246557,0.0945315558534,-0.383051494898,-8.21239852905,-0.137537389994,-0.456978350878,0.0996535420418,-3.86764216423,0.143784657121
2017/07/09/10:22:01.282738,530595,1499566924,89708352,,0.753770801594,0.133673585521,0.158608218929,0.736589468896,0.675400003497,-0.0151032619037,0.0322905724137,-0.0190291108701,-0.397189065442,-0.0499256620066,-0.288495874441,0.0791692815903,-0.376778075407,-8.15748119354,-0.114455670118,-0.0490759499371,0.22460539639,-3.83914327621,0.187050491571
2017/07/09/10:22:01.292640,530596,1499566924,99717308,,0.753122963177,0.13063012344,0.157283591926,0.737716358513,0.674133812926,-0.0168937683492,0.0321368518023,-0.0274662838864,-0.40150075261,-0.0680812739301,-0.274995657059,0.114542229923,-0.401164312257,-8.37956428528,0.420896738768,-0.350973248482,0.0221017822623,-3.88489031792,0.185573801398
2017/07/09/10:22:01.302569,530597,1499566924,109705930,,0.753538485577,0.125704263666,0.157035648641,0.73903476524,0.672585235454,-0.0179617574876,0.0336762837086,-0.0200361113658,-0.377418373905,-0.0720408062592,-0.277190753338,0.114301811624,-0.358795892417,-8.8449640274,-0.492379158735,0.0331017449498,0.204081773758,-4.02676582336,0.216905787587
2017/07/09/10:22:01.312598,530598,1499566924,119718537,,0.753548311012,0.122785470719,0.156160711146,0.740237885025,0.671237964595,-0.0187928230446,0.0336793447245,-0.0285015698736,-0.411583895473,-0.0700278239872,-0.307710957062,0.139158690293,-0.385030891086,-9.08343887329,-0.0550165474415,0.0842154622078,-0.000435009598732,-4.05083370209,0.17634652555
2017/07/09/10:22:01.322864,530599,1499566924,129705316,,0.752555172993,0.119043340667,0.155166495106,0.741045838446,0.670276549131,-0.0211676140946,0.0336503361055,-0.0402159536021,-0.413906528929,-0.0617393642117,-0.309894447831,0.161737296164,-0.3888870215,-9.62264823914,0.165044307709,-0.298661261797,-0.0390605852008,-4.28126239777,0.215921580791
2017/07/09/10:22:01.332932,530600,1499566924,139717617,,0.751771458499,0.115125612065,0.154430764168,0.74206225985,0.669054859009,-0.023434699308,0.0340589637496,-0.0471596257511,-0.394645914845,-0.0717652350644,-0.314147987537,0.205322783263,-0.369165618745,-9.01087093353,-0.156108826399,-0.437246412039,0.114415705204,-4.04232406616,0.220824211836
2017/07/09/10:22:01.343071,530601,1499566924,149710116,,0.751383731391,0.111337383072,0.154443939319,0.743393200481,0.667466907883,-0.0255319044549,0.0346784978666,-0.063390844859,-0.3865987509,-0.0843202150349,-0.297806368096,0.266666399497,-0.375165658373,-7.84449052811,-0.314382582903,-0.340403288603,0.155189588666,-3.68471074104,0.230248481035
2017/07/09/10:22:01.352691,530602,1499566924,159710374,,0.750740157674,0.107575451297,0.153246049415,0.74447646699,0.6661908178,-0.0275295958819,0.0344485954353,-0.0650499541164,-0.397715688569,-0.0689305728614,-0.325667987121,0.27151311383,-0.387257968757,-6.78278160095,-0.0673521906137,-0.583579897881,0.128260910511,-3.40184354782,0.172758027911
2017/07/09/10:22:01.362744,530603,1499566924,169704967,,0.750037542585,0.102788732351,0.152588259446,0.745969292075,0.664375853573,-0.0299060718394,0.0352160096798,-0.0744183153202,-0.406527522349,-0.0782615244111,-0.337276033596,0.308553406304,-0.37781382269,-6.833319664,-0.702887773514,-0.934217691422,0.329452633858,-3.35158395767,0.244704380631
2017/07/09/10:22:01.372626,530604,1499566924,179725675,,0.749288271063,0.100711987496,0.151337934638,0.746185979631,0.664062817495,-0.0321020530484,0.0345906983648,-0.0739315309698,-0.389535646706,-0.0828918460187,-0.341351168335,0.325625714849,-0.362763827041,-6.50988149643,0.638470292091,-1.02996337414,-0.0390843898058,-3.26160430908,0.205768808722
2017/07/09/10:22:01.382894,530605,1499566924,189707776,,0.747846021386,0.0958643031349,0.149886077447,0.747813305277,0.662101199467,-0.0351298644456,0.0341050544506,-0.0826747101066,-0.394167872321,-0.0827291263533,-0.348466416062,0.356024640537,-0.363234538788,-7.1070022583,-0.135326296091,-0.993582844734,-0.0254097804427,-3.41509199142,0.210434049368
2017/07/09/10:22:01.392645,530606,1499566924,199704564,,0.747074192697,0.0930294460477,0.14947066853,0.748483247338,0.661210154339,-0.0375627766984,0.0341027573571,-0.0858724686082,-0.375540237461,-0.0848841708772,-0.325974106955,0.379069970394,-0.346530397967,-6.29083299637,0.326483309269,-0.585743844509,-0.148663878441,-3.05152368546,0.204412296414
2017/07/09/10:22:01.402957,530607,1499566924,209708677,,0.7458065375,0.0893581004488,0.148370618039,0.749640033058,0.65976690893,-0.0404307619733,0.0333586601163,-0.0979803997726,-0.393372220977,-0.068876024637,-0.350840479862,0.406153153716,-0.353096368847,-6.42497682571,0.271417915821,-0.789665579796,-0.20443572104,-2.99050092697,0.135280549526
2017/07/09/10:22:01.412671,530608,1499566924,219721418,,0.745346908719,0.0849915561365,0.148227055261,0.750687515135,0.658368632529,-0.0431022290184,0.034076328676,-0.111041679066,-0.38223693511,-0.081089511309,-0.342633214405,0.453598736171,-0.347114463719,-5.63587999344,0.333309113979,-0.370455741882,-0.220441818237,-2.76931405067,0.128613620996
2017/07/09/10:22:01.422480,530609,1499566924,229717559,,0.744538844374,0.0816158589803,0.14741196284,0.751198552856,0.65760042929,-0.0458438698905,0.0340697692648,-0.106005738789,-0.392440230878,-0.0780391813239,-0.365237830814,0.454984457456,-0.346200595658,-5.12956190109,0.424702197313,-0.875959455967,-0.256040811539,-2.60367131233,0.107939645648
2017/07/09/10:22:01.432791,530610,1499566924,239711759,,0.743098152409,0.0770615884096,0.146966235684,0.752421064875,0.655979212982,-0.0490928725877,0.0338186801871,-0.108378690393,-0.377645542332,-0.0679251369705,-0.344119274211,0.449278745436,-0.356450237024,-4.99619245529,-0.167427122593,-0.679529547691,-0.10295651108,-2.49007701874,0.0862233787775
2017/07/09/10:22:01.442495,530611,1499566924,249703642,,0.742704756932,0.0746926368291,0.146598848496,0.753162803881,0.655011481986,-0.0509087078717,0.0333774291867,-0.116129241467,-0.378381103087,-0.0694179152871,-0.373188835904,0.488785779256,-0.326227802366,-3.82121729851,0.528114199638,-0.760253965855,-0.186050459743,-2.12362957001,0.0410476177931
2017/07/09/10:22:01.452610,530612,1499566924,259712428,,0.741197424287,0.0704257964434,0.145604246509,0.754301189622,0.653441971433,-0.0543895317446,0.0329406153638,-0.101607576359,-0.334927624101,-0.0634879469827,-0.310163555183,0.468433958188,-0.315481372187,-3.58471465111,0.225885361433,-0.70161229372,-0.189265146852,-1.94045817852,0.0109571963549
2017/07/09/10:22:01.462570,530613,1499566924,269703021,,0.740429108176,0.0683711843573,0.14480583567,0.754464307975,0.653077077818,-0.0569244051589,0.0321488804972,-0.105891111856,-0.360382246168,-0.0638700020916,-0.320625083418,0.462505181145,-0.347124959015,-2.9855222702,0.617085814476,-0.901364803314,-0.310703009367,-1.73123085499,-0.0388129204512
2017/07/09/10:22:01.472596,530614,1499566924,279713088,,0.739828122046,0.0647769004259,0.144726640576,0.755570869711,0.651588302856,-0.0591774847739,0.0323012340356,-0.0990504311419,-0.333004572942,-0.0574691134457,-0.319657284726,0.459282164491,-0.293682409925,-2.37814188004,0.259056210518,-0.702304542065,-0.289349377155,-1.45509529114,-0.0843186974525
2017/07/09/10:22:01.482554,530615,1499566924,289704234,,0.738451167044,0.0610044363528,0.143564441961,0.756418464579,0.650344868798,-0.0622977808923,0.0316487688267,-0.10145539781,-0.339763775525,-0.0619443151332,-0.325714532329,0.462350420394,-0.297326921828,-2.37105154991,0.02770575881,-1.19281220436,-0.321879506111,-1.42589867115,-0.0860059559345
2017/07/09/10:22:01.492834,530616,1499566924,299713249,,0.737411986044,0.0582115535275,0.143097917286,0.757118839074,0.649287111369,-0.0650139840723,0.0311527270702,-0.108181088444,-0.35276556639,-0.0586301454309,-0.341203890875,0.472363199332,-0.329397148106,-2.0226495266,0.233104154468,-0.904396295547,-0.265795856714,-1.36525261402,-0.113305807114
2017/07/09/10:22:01.502482,530617,1499566924,309706456,,0.73651680387,0.0548012799092,0.142698338958,0.757933623516,0.648052153374,-0.0678476922286,0.0310116028476,-0.0842231076346,-0.350505178726,-0.0511476749944,-0.34279464898,0.408110800934,-0.316740651014,-1.00459289551,-0.212191641331,-0.517575025558,-0.192883059382,-0.942364811897,-0.187263578176
2017/07/09/10:22:01.512731,530618,1499566924,319713194,,0.736260998283,0.051538391789,0.142322416995,0.758716892018,0.646915772438,-0.0698063364789,0.0312367815996,-0.0710445396021,-0.322171968648,-0.0348838277128,-0.327534735276,0.377379465046,-0.299529470116,-0.220981553197,-0.030017465353,-0.500340938568,-0.101819843054,-0.623271107674,-0.215608388186
2017/07/09/10:22:01.522462,530619,1499566924,329705830,,0.735985842262,0.0487790374519,0.142169989504,0.759505116552,0.645779010023,-0.0717744193804,0.0311429103779,-0.0634420174665,-0.336702727612,-0.0284620504016,-0.334224471072,0.348160828712,-0.306147213538,0.333203554153,0.101915180683,-0.396843552589,-0.0951361358166,-0.407714903355,-0.236528590322
2017/07/09/10:22:01.532877,530620,1499566924,339712070,,0.735422332043,0.0456926758292,0.141838685454,0.759843073566,0.64504641611,-0.0745322492778,0.0316001334578,-0.0717602409464,-0.328121302262,-0.041995933692,-0.347338024642,0.388881916166,-0.283421666932,0.322378456593,0.286290794611,-1.00525975227,-0.172406733036,-0.393346577883,-0.237114802003
2017/07/09/10:22:01.542831,530621,1499566924,349703817,,0.734654071705,0.0423520172793,0.141258249173,0.760809726308,0.64364315603,-0.0768389337574,0.0314297042614,-0.0581054382268,-0.333560709324,-0.0250333379441,-0.351969601648,0.353715010854,-0.274995442144,0.350942611694,0.114461958408,-1.25993835926,-0.189753606915,-0.361079186201,-0.251101493835
2017/07/09/10:22:01.552962,530622,1499566924,359707339,,0.734157493779,0.0397657335963,0.141223202474,0.761416549222,0.64267472868,-0.0790113789,0.0311646224395,-0.0510092333738,-0.318582117756,-0.0184946107082,-0.311818893222,0.326584553981,-0.291788931398,1.6164150238,0.323352068663,-1.09844458103,-0.275773584843,0.114904560149,-0.329177469015
2017/07/09/10:22:01.562625,530623,1499566924,369706869,,0.734064581256,0.0368114028726,0.141331939727,0.762195728237,0.641539350836,-0.0805651679947,0.0315307293255,-0.0550700165301,-0.305669083961,-0.0125409863825,-0.294310848946,0.325037263698,-0.296846498966,2.13507556915,-0.169900149107,-1.01101315022,-0.160167261958,0.259537547827,-0.362345814705
2017/07/09/10:22:01.572571,530624,1499566924,379707459,,0.733536642929,0.034744684676,0.141274602152,0.762919338308,0.640478451056,-0.08243461599,0.0307566424619,-0.0534274910839,-0.29735220656,-0.0164668096473,-0.266798746908,0.328398198328,-0.272571920281,2.154992342,0.160633504391,-0.883119344711,-0.195586264133,0.237917751074,-0.339594483376
2017/07/09/10:22:01.582624,530625,1499566924,389705941,,0.732961897796,0.0308140928506,0.141208899769,0.763565794163,0.639322488914,-0.0851095231006,0.0314706566666,-0.0521865089924,-0.294506416771,-0.00820475080627,-0.275515579943,0.314366377636,-0.291211504045,1.78551530838,-0.0406876504421,-1.24573290348,-0.225957140326,0.122395150363,-0.330783367157
2017/07/09/10:22:01.592813,530626,1499566924,399716563,,0.732239236819,0.0279612054618,0.140390283936,0.76463228985,0.637873599489,-0.0866567906292,0.0307462685734,-0.0400178768491,-0.286123635029,-0.00619924429532,-0.255262525291,0.266424506826,-0.311218132012,1.18267500401,-0.275517731905,-1.25786864758,-0.216420397162,-0.109907649457,-0.261096954346
2017/07/09/10:22:01.602714,530627,1499566924,409715897,,0.732759629063,0.0261670441584,0.140881369568,0.764548779245,0.637774386149,-0.0878913418965,0.031370504407,-0.0309446427115,-0.270744520043,-0.0119764473318,-0.227311322527,0.254362858364,-0.252840296288,2.29670572281,0.0531457662582,-0.672176718712,-0.171108201146,0.250712990761,-0.285669982433
2017/07/09/10:22:01.612573,530628,1499566924,419707089,,0.732144814145,0.0237124203723,0.14050598101,0.765116714119,0.636895300716,-0.0895098599946,0.0308021860489,-0.0324525379415,-0.288080285055,-0.0103471583015,-0.245769393839,0.235028527792,-0.268934707841,2.30097746849,-0.0146225094795,-0.880280971527,-0.160782322288,0.319960922003,-0.316424310207
2017/07/09/10:22:01.622784,530629,1499566924,429712227,,0.731343978055,0.0205295805291,0.140912483672,0.766081784997,0.63544849137,-0.0915340242779,0.0307479415767,-0.032397752837,-0.280546602425,0.00722510708301,-0.222324442226,0.223582678726,-0.250127340664,2.41469573975,-0.234181851149,-0.359881192446,-0.0437374413013,0.420743256807,-0.332722842693
2017/07/09/10:22:01.632607,530630,1499566924,439711020,,0.731741781387,0.0188281509361,0.140960415975,0.766253145613,0.635140489017,-0.092186016324,0.0308935987521,-0.0480888716018,-0.26390224301,-0.00174748110808,-0.210775866158,0.271823094373,-0.218082553939,2.88159298897,0.230362296104,-0.51193344593,-0.187171086669,0.51610827446,-0.35497379303
2017/07/09/10:22:01.642657,530631,1499566924,449706270,,0.730952843847,0.0161915386118,0.140241797682,0.766781956028,0.634217076704,-0.0942613900693,0.0304782195738,-0.0267189749635,-0.251801975319,0.00816487987079,-0.195433704393,0.225004683478,-0.166122872932,3.06295347214,-0.0260696709156,-1.06976950169,-0.143124476075,0.601739525795,-0.355472892523
2017/07/09/10:22:01.652904,530632,1499566924,459712919,,0.730332666148,0.0133331500325,0.140393338416,0.767273539868,0.633478587304,-0.0953853419523,0.0299638279532,-0.0423772198007,-0.25829263403,-0.0100554882344,-0.171578077844,0.247798772124,-0.166478170679,3.10747742653,-0.188933253288,-1.02521109581,-0.126062586904,0.676306962967,-0.365745604038
2017/07/09/10:22:01.662540,530633,1499566924,469704972,,0.730430187825,0.0108901475162,0.141035578663,0.767516921465,0.632979278977,-0.0965533754106,0.0305360990903,-0.0375162569976,-0.25048100341,0.00208028900262,-0.133951938011,0.219315219332,-0.155038543557,2.48330140114,-0.262767314911,-0.44479444623,-0.0462894141674,0.424955129623,-0.301704913378
2017/07/09/10:22:01.672685,530634,1499566924,479707873,,0.730020369367,0.0090191946699,0.14060491192,0.767257396192,0.633113653352,-0.0978434217871,0.0301637985045,-0.0312086821008,-0.24068761203,0.0088544534583,-0.13624803008,0.203151279107,-0.142981039256,3.08159446716,-0.0498501360416,-0.640414535999,-0.074818328023,0.681454122066,-0.330969125032
2017/07/09/10:22:01.682411,530635,1499566924,489707248,,0.72978397021,0.00654770813737,0.14081417398,0.767869061422,0.632232740039,-0.098798882253,0.0299607710014,-0.0329658892326,-0.244109613844,0.00720915790131,-0.125329199574,0.190772137779,-0.116676935223,2.80028486252,-0.45474204421,-0.648615479469,0.082265548408,0.602677345276,-0.267481982708
2017/07/09/10:22:01.692586,530636,1499566924,499708693,,0.729395812042,0.0047603231856,0.140695183189,0.768303122002,0.631628258091,-0.0994755406593,0.0293372308309,-0.0280644295038,-0.221024303894,0.00188532510396,-0.08288411862,0.17926121096,-0.131439189287,3.96299672127,-0.31251937151,-0.903049588203,0.0353952124715,1.02383601665,-0.332769304514
2017/07/09/10:22:01.702760,530637,1499566924,509708642,,0.728821772069,0.00236609280428,0.140710059024,0.769347633865,0.630181506836,-0.100648727291,0.0290743942997,-0.031086491219,-0.241960218249,0.0111197848414,-0.109221129311,0.150114485107,-0.217997376876,3.83099985123,-0.713818013668,-1.2451416254,0.118512056768,1.00417160988,-0.368172347546
2017/07/09/10:22:01.712766,530638,1499566924,519711209,,0.728704660412,0.000541892599815,0.140559925252,0.770017672136,0.629312774429,-0.101050147011,0.0287590738268,-0.0416982939316,-0.242726175274,0.00950813230619,-0.126454040541,0.15144023484,-0.304544644776,4.1069521904,-0.411180436611,-0.95331633091,0.078411012888,1.1036349535,-0.390328973532
2017/07/09/10:22:01.722806,530639,1499566924,529705572,,0.728284234669,-0.00235039946952,0.140890790501,0.771099237607,0.627744520748,-0.102419862288,0.0292053803625,-0.052362609171,-0.232281707895,-0.00343124857901,-0.116457285634,0.158025678566,-0.305605273103,3.2830862999,-0.212580487132,-0.527521371841,0.0261224657297,0.731540024281,-0.312862962484
2017/07/09/10:22:01.732471,530640,1499566924,539712551,,0.727769896927,-0.00407020284628,0.140750005278,0.771582764509,0.627064577434,-0.103107162608,0.0286175865508,-0.0433193253578,-0.224760537202,-0.0100632995911,-0.103544245734,0.142103185553,-0.293762838355,3.54412698746,-0.0956554561853,-0.73934596777,0.0248936787248,0.809884667397,-0.310197502375
2017/07/09/10:22:01.742339,530641,1499566924,549707503,,0.727218813312,-0.00596717674966,0.14064740086,0.772322327808,0.626061098304,-0.103800330437,0.0281285364288,-0.0470650214836,-0.213120939598,-0.00881832204468,-0.0863857101345,0.140417461584,-0.285669127218,4.23625326157,-0.437254399061,-0.657371759415,0.0986799299717,1.07610881329,-0.354916125536
2017/07/09/10:22:01.752863,530642,1499566924,559711368,,0.726482736262,-0.00827680724835,0.140515080349,0.77292666987,0.625152115861,-0.104875557207,0.0277545048299,-0.0611171946326,-0.236971214562,-0.0125540714926,-0.0768726568174,0.150282359051,-0.305658458439,4.61923980713,-0.479704141617,-0.305068284273,0.136315941811,1.18235886097,-0.358350217342
2017/07/09/10:22:01.762650,530643,1499566924,569704381,,0.726212446765,-0.0104262024769,0.140428198381,0.773435310592,0.624484743819,-0.105185465074,0.0274343398762,-0.0609198782977,-0.230880425305,-0.00755926604761,-0.0498367604757,0.153427873722,-0.19994675909,4.99243879318,-0.728754281998,-0.60352653265,0.164116337895,1.32388007641,-0.364914506674
2017/07/09/10:22:01.772860,530644,1499566924,579726490,,0.725718803113,-0.0122875112218,0.140420769669,0.773381755206,0.624441838097,-0.105930699322,0.0270506652467,-0.0584110387654,-0.22370271049,-0.00883582293632,-0.0388767107021,0.158336013911,-0.132531711537,4.75475692749,-0.445520877838,-0.813367903233,0.10060928762,1.2420617342,-0.347170948982
2017/07/09/10:22:01.782277,530645,1499566924,589704755,,0.724935007058,-0.0146558732961,0.140227545314,0.773936995855,0.623627951306,-0.106763650615,0.026668852679,-0.0783117183366,-0.206497959,-0.0208825924752,-0.0144424665255,0.208810447146,-0.0933117809593,5.19431591034,-0.619119524956,-0.904612720013,0.103240460157,1.37714445591,-0.385224759579
2017/07/09/10:22:01.792657,530646,1499566924,599712840,,0.724909560661,-0.0162775235781,0.140285886883,0.773799769929,0.623704805111,-0.107266098585,0.0268368447003,-0.0762885529135,-0.229143700631,-0.0124585612138,-0.0223624716968,0.170118157357,-0.152790785815,4.96968507767,-0.811184465885,-0.936382055283,0.126362919807,1.29150235653,-0.358139693737
2017/07/09/10:22:01.802842,530647,1499566924,609707749,,0.723326834826,-0.0186973634182,0.139587523004,0.774274786077,0.622983595749,-0.108390774059,0.0253265704739,-0.0830274616107,-0.222954412638,-0.028667207599,-0.0107229075251,0.179862411805,-0.16968240818,4.9469499588,-0.781236231327,-1.09739398956,0.136751994491,1.37182950974,-0.392928183079
2017/07/09/10:22:01.812665,530648,1499566924,619708791,,0.722065019131,-0.020893068253,0.139222846355,0.775173790507,0.621783487532,-0.109069740111,0.0243860807642,-0.0963963091998,-0.192034520107,-0.0293899516314,0.0210766015046,0.22054785877,-0.13345454313,4.14295148849,-0.816695332527,-0.928322732449,0.0945333465934,1.11729764938,-0.338206857443
2017/07/09/10:22:01.822462,530649,1499566924,629706510,,0.720691777306,-0.0224718058945,0.138379726304,0.775564096482,0.621180398691,-0.110037558257,0.0229560515576,-0.100407746026,-0.17610141605,-0.026605176405,0.0281598281894,0.227966282075,-0.141700207002,3.61501932144,-0.715735435486,-0.724178433418,0.0211134552956,0.914172947407,-0.313738942146
2017/07/09/10:22:01.832534,530650,1499566924,639709531,,0.719980074778,-0.0247652294075,0.138783764852,0.775960501147,0.620617048921,-0.110474335948,0.0226980251338,-0.118383935092,-0.211736965757,-0.0174541749334,0.0377103545116,0.215244106249,-0.198767840503,3.11077094078,-0.457799732685,-0.2369569242,0.0349550619721,0.670919775963,-0.278024405241
2017/07/09/10:22:01.843099,530651,1499566924,649711318,,0.719434370385,-0.025879946023,0.138362916596,0.775854681071,0.620753242807,-0.110629295071,0.021819360141,-0.114730502834,-0.220982874894,-0.0196053467006,0.0535395347297,0.184314868655,-0.223794587504,3.15818691254,0.514099597931,-0.389064848423,-0.190687179565,0.625556230545,-0.252938508987
2017/07/09/10:22:01.852872,530652,1499566924,659704036,,0.718067025176,-0.027608038685,0.13811132455,0.776632993801,0.619697839605,-0.111307132263,0.0206519450668,-0.100088888263,-0.178496585757,-0.0311904300916,0.0741690156973,0.184396576386,-0.148192869573,2.99689555168,-0.0140239149332,-0.611255884171,-0.13595533371,0.712010741234,-0.265494167805
2017/07/09/10:22:01.862566,530653,1499566924,669710907,,0.717090348127,-0.0303268114614,0.137685816223,0.77685996701,0.619309737524,-0.111982336718,0.0200996748476,-0.116811618056,-0.185830934543,-0.038287422697,0.0912300292088,0.21150559772,-0.124818905735,3.19174933434,-0.466772824526,-0.710503578186,-0.0700758546591,0.822479903698,-0.299774706364
2017/07/09/10:22:01.872503,530654,1499566924,679705010,,0.715296391668,-0.0317845291159,0.137561543679,0.776778339641,0.619334216795,-0.112709456734,0.0183607552908,-0.112174469602,-0.177594959247,-0.0409609733561,0.114134236504,0.204815951932,-0.0708590099382,3.15453958511,-0.872701644897,-0.623571753502,0.103382945061,0.824509143829,-0.302057683468
2017/07/09/10:22:01.882436,530655,1499566924,689706672,,0.714902725481,-0.0327081753447,0.137265368978,0.776377964604,0.619897908836,-0.112506468605,0.017496663124,-0.12825091157,-0.200819061413,-0.0315113486588,0.120006548874,0.211215253662,-0.0567115261569,3.23537683487,0.0231191515923,-0.899943709373,-0.0196129083633,0.834438681602,-0.261869549751
2017/07/09/10:22:01.892446,530656,1499566924,699714406,,0.713378102492,-0.0350649368414,0.136450114412,0.776628433714,0.619504420732,-0.113122314375,0.0163061531838,-0.128521760415,-0.189635843647,-0.0457718010176,0.126448273044,0.214073795053,-0.037782248382,2.4345676899,-0.771575808525,-0.547197043896,0.110639616847,0.574954390526,-0.266113400459
2017/07/09/10:22:01.902989,530657,1499566924,709705939,,0.712713513994,-0.0364880684555,0.136515373117,0.777155822077,0.618798774036,-0.113388255391,0.0161247946601,-0.127025695912,-0.206472055945,-0.0467941466423,0.0917259517053,0.180303815481,-0.126174164599,2.92744350433,0.20889608562,-0.497150033712,-0.134937733412,0.741240382195,-0.266088843346
2017/07/09/10:22:01.912683,530658,1499566924,719731625,,0.711162330092,-0.0387208225423,0.135492010931,0.777406188248,0.618387482699,-0.114086919234,0.0148564657891,-0.123375032075,-0.17807111199,-0.0570879086077,0.0804514338551,0.193829900378,-0.109359778345,2.72022438049,-0.196107923985,-0.578289568424,-0.0275765061378,0.664100348949,-0.252116113901
2017/07/09/10:22:01.922670,530659,1499566924,729704511,,0.709678862668,-0.0411784520986,0.134805746198,0.777783891576,0.617786760428,-0.114865055176,0.0140625653569,-0.133107601757,-0.205608015408,-0.0532900994915,0.0676556369499,0.19124788874,-0.133521540478,1.42727911472,-0.493631929159,-0.370542645454,-0.0242413431406,0.249905765057,-0.198320448399
2017/07/09/10:22:01.932512,530660,1499566924,739710896,,0.708418841983,-0.0431974376598,0.134324228965,0.778093378187,0.617390631731,-0.115016333151,0.0130669729414,-0.135763636476,-0.198685111077,-0.0741617712553,0.080907076943,0.195542521168,-0.121783368752,0.908274888992,-0.34073549509,-0.732533693314,-0.123561538756,0.108105324209,-0.20113158226
2017/07/09/10:22:01.942427,530661,1499566924,749707742,,0.70737887302,-0.044679821774,0.133702358154,0.778589897931,0.616759642251,-0.115136370191,0.0122037203046,-0.145579782939,-0.211861961604,-0.0701680871285,0.0677268358974,0.184511457473,-0.19645295329,1.53909683228,0.509403407574,-0.474943965673,-0.261977165937,0.19868260622,-0.229515448213
2017/07/09/10:22:01.953017,530662,1499566924,759708807,,0.706348654404,-0.0463581341051,0.13278431771,0.779222994483,0.615979296461,-0.115104405851,0.0114894278977,-0.137334209533,-0.196950760116,-0.0724305314211,0.0641698693604,0.15753207654,-0.213533887429,1.98814749718,0.451912105083,-0.725182056427,-0.275263249874,0.411719083786,-0.253231853247
2017/07/09/10:22:01.963059,530663,1499566924,769706174,,0.705213576135,-0.048272580954,0.132249853239,0.779987331936,0.614916547104,-0.115651228242,0.0110542084345,-0.11462348607,-0.171806561644,-0.0746699005038,0.0842900925476,0.114365143965,-0.209418581104,2.06672716141,0.173334360123,-0.755492806435,-0.174778148532,0.457764744759,-0.274840533733
2017/07/09/10:22:01.972756,530664,1499566924,779711408,,0.703360936981,-0.0505583506908,0.13102171423,0.780986256093,0.613600147535,-0.116028415572,0.00962982444567,-0.116296118638,-0.196771605546,-0.0672351087895,0.0614345425129,0.0878828969203,-0.244640627397,1.02723455429,0.191981613636,-0.519200384617,-0.274694234133,0.106414802372,-0.22177284956
2017/07/09/10:22:01.982376,530665,1499566924,789710268,,0.702392289213,-0.0520217531549,0.130682040506,0.781197791957,0.61324622779,-0.11650179408,0.00929547839327,-0.113362625366,-0.199876097374,-0.0701848462245,0.0681783962069,0.0665044126886,-0.241209055662,0.0819319337606,0.227346390486,-0.253057330847,-0.139810025692,-0.207871630788,-0.176877766848
2017/07/09/10:22:01.992594,530666,1499566924,799711774,,0.701358924947,-0.0536163259041,0.129309034367,0.781669024418,0.612707954095,-0.116247650848,0.00830559607524,-0.120238722684,-0.178610299687,-0.0872300879347,0.0802760440845,0.117218786433,-0.202829173511,-0.0535663664341,-0.0807650387287,-0.0155808776617,-0.0793157964945,-0.281585156918,-0.198912262917
2017/07/09/10:22:02.002956,530667,1499566924,809704248,,0.700336529301,-0.0553118508497,0.128835343963,0.781860590745,0.612359504701,-0.116818318999,0.00795826536227,-0.147205514042,-0.212848163603,-0.0895646469508,0.0829257564457,0.141771123028,-0.232949444045,0.265671730042,0.434431105852,-0.0446989834309,-0.25688290596,-0.202270925045,-0.206491798162
2017/07/09/10:22:02.012694,530668,1499566924,819703887,,0.698719134731,-0.0571506364845,0.127945142043,0.782555954026,0.611512924653,-0.11669502469,0.00635554972373,-0.131106810978,-0.174581651287,-0.0973878836738,0.105369100486,0.149604873612,-0.15143145535,0.642281830311,-0.286300063133,0.101697042584,-0.0492286533117,0.0284390300512,-0.261955052614
2017/07/09/10:22:02.022573,530669,1499566924,829709292,,0.697567018549,-0.0591057009247,0.126853723308,0.782950394768,0.610957395394,-0.116996142732,0.00562520508249,-0.13228785282,-0.193389612959,-0.0796088987431,0.0836540629571,0.134671581134,-0.157843142768,0.67749273777,-0.0672306418419,-0.164546132088,-0.212093040347,0.0206710845232,-0.280629634857
2017/07/09/10:22:02.032572,530670,1499566924,839712620,,0.696739355374,-0.0605813594066,0.126761435223,0.783145446154,0.610718346431,-0.11696101466,0.00514125959044,-0.127407866516,-0.161530958723,-0.0889486365937,0.125666992112,0.145962028859,-0.12016575213,1.11105203629,-0.0546753108501,0.418544560671,-0.163143724203,0.099791996181,-0.294347673655
2017/07/09/10:22:02.042533,530671,1499566924,849706310,,0.695035464995,-0.0621296353263,0.125438164207,0.783190675368,0.610530129624,-0.117692418982,0.00371770796075,-0.128460801623,-0.168117963157,-0.0839057137753,0.115844195355,0.148438935019,-0.108896874936,0.917406141758,0.189220964909,-0.157275915146,-0.144470497966,0.0631432086229,-0.25729393959
2017/07/09/10:22:02.052948,530672,1499566924,859703723,,0.694023121431,-0.0641114018095,0.125142550883,0.783269455526,0.61044248262,-0.117636496767,0.00325424040903,-0.136120315739,-0.17282318403,-0.089125252482,0.106332282956,0.17037197648,-0.071578697101,0.783648014069,-0.511834800243,0.215863913298,-0.0867358595133,0.032510176301,-0.33523017168
2017/07/09/10:22:02.062214,530673,1499566924,869704945,,0.69274555481,-0.0662371429892,0.124354373502,0.783350015429,0.610274192073,-0.117990432016,0.00253412110315,-0.109030437886,-0.170926402,-0.0844612537423,0.105217582087,0.12124292331,-0.0098845874899,1.09028482437,-0.345973372459,-0.36308658123,-0.194249913096,0.193671822548,-0.370756924152
2017/07/09/10:22:02.072537,530674,1499566924,879714034,,0.69160942723,-0.0681887198813,0.122928317789,0.782806837147,0.610949302201,-0.118116673007,0.00169038859084,-0.117506430333,-0.183642010861,-0.0627352753942,0.108375179699,0.12127692413,0.0100299271815,0.685790419579,-0.248760163784,-0.439798206091,-0.152632847428,-0.0115419477224,-0.320515573025
2017/07/09/10:22:02.082452,530675,1499566924,889708394,,0.690345057394,-0.069296692254,0.122353215341,0.78247533394,0.611315457427,-0.118429722485,0.000405114287933,-0.117010596445,-0.161091093737,-0.0895256239262,0.130061150164,0.156935411848,0.0970371969912,0.821820139885,-0.459084630013,-0.325011014938,-0.100268512964,0.126110345125,-0.344746142626
2017/07/09/10:22:02.092524,530676,1499566924,899711734,,0.689901829551,-0.069824717624,0.121508327227,0.782085861866,0.611820916764,-0.118392785207,-0.000137445912875,-0.114713199729,-0.158268772017,-0.104895425816,0.156323834511,0.14154433161,0.0799744509683,1.49222910404,0.394853293896,-0.352882057428,-0.198423936963,0.266735285521,-0.285439580679
2017/07/09/10:22:02.102680,530677,1499566924,909709210,,0.68883673366,-0.0720714514627,0.120829651397,0.781636415842,0.612449253367,-0.118108673217,-0.000875665738719,-0.094208252212,-0.154061201279,-0.0868403549814,0.122064993364,0.116442129845,0.138304429289,0.0251022577286,-0.63917195797,-0.344402372837,-0.0698699653149,-0.196072161198,-0.239711582661
2017/07/09/10:22:02.112577,530678,1499566924,919708555,,0.687662232252,-0.0736335393037,0.119974289267,0.780934251961,0.613226187913,-0.118713302248,-0.00157747941306,-0.115093044866,-0.180119819732,-0.0824792435073,0.13498059814,0.129882049584,0.138359908704,-0.39080953598,-0.14762994647,-0.139349639416,-0.0294734686613,-0.409331977367,-0.130151927471
2017/07/09/10:22:02.122761,530679,1499566924,929704683,,0.685814191874,-0.0751834819489,0.118491686211,0.780132064168,0.614139532127,-0.119228508496,-0.00334070306882,-0.105098557303,-0.165410781157,-0.0879275622128,0.141665222905,0.126480946988,0.214010861352,-0.601239800453,-0.00478538870811,-0.581117033958,-0.13380292058,-0.404652506113,-0.131255596876
2017/07/09/10:22:02.132359,530680,1499566924,939716130,,0.686092303858,-0.0770486364691,0.118398190203,0.779776961018,0.614739850963,-0.118466722233,-0.00290558557925,-0.104931639854,-0.165836940103,-0.0892709267447,0.159269650339,0.128836517034,0.234671020423,0.311138272285,-0.340178817511,-0.230115041137,-0.12126365304,-0.182384848595,-0.184310719371
2017/07/09/10:22:02.142461,530681,1499566924,949706796,,0.684126923105,-0.0786317408135,0.117114003423,0.778600669546,0.616132085064,-0.118916842848,-0.0045864610706,-0.108738509289,-0.168425986058,-0.0896406719131,0.158427172361,0.135126735799,0.222201759162,-0.169414535165,-0.315808743238,-0.411335229874,-0.0623487085104,-0.29880926013,-0.137212067842
2017/07/09/10:22:02.153000,530682,1499566924,959736001,,0.683702626933,-0.080031484446,0.11668624697,0.777890677095,0.617098967478,-0.118529970331,-0.00506013428692,-0.103344188568,-0.160169983335,-0.0950162248246,0.147119331518,0.14477485213,0.277973228862,1.68541264534,-0.236487954855,-0.27163001895,-0.147564664483,0.323226124048,-0.262858778238
2017/07/09/10:22:02.162809,530683,1499566924,969711841,,0.682343135587,-0.0810779919994,0.11526867902,0.776836974149,0.618304954758,-0.119094182659,-0.00631460000304,-0.0934129208179,-0.154374284939,-0.0849349970666,0.170495617266,0.111349569589,0.25780702114,-0.187879174948,-0.15812638402,-0.53193372488,-0.136441349983,-0.230073750019,-0.0902033895254
2017/07/09/10:22:02.172736,530684,1499566924,979711147,,0.681216330795,-0.083173914525,0.114459644851,0.776411707144,0.61887769772,-0.118836437969,-0.00729090422318,-0.0972226844332,-0.144950187379,-0.0839758107594,0.155834668357,0.128818813965,0.264233743527,-0.596270561218,0.0499246418476,-0.72301286459,-0.290814995766,-0.382734358311,-0.0685916319489
2017/07/09/10:22:02.182447,530685,1499566924,989710019,,0.680985900857,-0.0841918575581,0.113711399552,0.775711730609,0.619825036827,-0.118461325251,-0.00742624655053,-0.104888392632,-0.159786815708,-0.103506281564,0.154801686814,0.133323538518,0.234739959367,0.0367232859135,0.148568287492,-0.586939811707,-0.194761961699,-0.259375572205,-0.0785188525915
2017/07/09/10:22:02.192657,530686,1499566924,999711361,,0.679900258486,-0.0859514742862,0.112614074483,0.775525857227,0.619993876243,-0.118761827302,-0.00792884408634,-0.105901476476,-0.156898015286,-0.11182089578,0.143401219624,0.119430518609,0.139030734294,-0.599381446838,0.204356536269,-0.194001317024,-0.198199182749,-0.548061728477,-0.0511794537306
2017/07/09/10:22:02.202766,530687,1499566925,9705009,,0.679285992852,-0.0872927458504,0.111425073558,0.774974231934,0.620747703723,-0.1183887433,-0.00844592331098,-0.0856496821812,-0.154973039919,-0.101483573272,0.100844104152,0.0596862185083,0.0800680827921,-0.435290336609,0.00295861065388,-0.106305547059,-0.127292007208,-0.502950370312,-0.0464814305305
2017/07/09/10:22:02.212711,530688,1499566925,19706480,,0.678524551479,-0.0889100010109,0.110760712108,0.775153603242,0.620522651218,-0.118373100977,-0.00873725767407,-0.0839067806179,-0.167189101368,-0.10252404197,0.0932224573964,0.0367790343145,0.0168055281343,-0.0479291975498,-0.186016321182,0.0732942074537,-0.0684498101473,-0.324093550444,-0.0835490003228
2017/07/09/10:22:02.222467,530689,1499566925,29707986,,0.677872597252,-0.0908579330422,0.109932722092,0.775147443903,0.620629769386,-0.117837209292,-0.00891749233662,-0.07583497818,-0.161532820259,-0.0882896229948,0.0698275344638,0.0229909724258,0.0401015363041,-1.09226071835,-0.644179940224,0.150142177939,-0.0345605239272,-0.630747973919,-0.0646807104349
2017/07/09/10:22:02.232342,530690,1499566925,39712830,,0.677242553527,-0.0922798261609,0.109405292177,0.774303759319,0.621678019156,-0.117823479386,-0.00936784432651,-0.0989740107587,-0.181736552779,-0.1026430569,0.121844685798,0.0428312173049,0.029431101572,0.953724086285,-0.743333756924,-0.100662499666,0.174454748631,0.121370978653,-0.148947834969
2017/07/09/10:22:02.242599,530691,1499566925,49712404,,0.675666617681,-0.0931162638558,0.10750148229,0.773502603977,0.622628338406,-0.117903613063,-0.0112433038329,-0.0845328164989,-0.155357840932,-0.106031414087,0.161721624582,0.0644737206254,0.210953592489,0.130632653832,-0.395253390074,-0.184851884842,0.0827939137816,-0.0334380753338,-0.0799875408411
2017/07/09/10:22:02.252964,530692,1499566925,59707323,,0.674569921509,-0.0949821918067,0.106817207755,0.772744874043,0.623496550014,-0.118220052742,-0.0118924720063,-0.101287442568,-0.147363875192,-0.11436388851,0.162647037883,0.132806775474,0.256415223704,0.0763784721494,-0.145934671164,-0.596666932106,-0.109995082021,-0.0652459785342,-0.0641513094306
2017/07/09/10:22:02.262468,530693,1499566925,69705828,,0.673599676178,-0.0957846413961,0.105562756362,0.772009267777,0.624409435623,-0.118073369935,-0.0131615532452,-0.106712295394,-0.142343424156,-0.116292190729,0.166652828065,0.158506420994,0.265128470197,-0.13298587501,0.0287281796336,-0.367200046778,-0.087068207562,-0.14217813313,-0.0460706502199
2017/07/09/10:22:02.272726,530694,1499566925,79705923,,0.672197956935,-0.0977798103466,0.104442872843,0.771297560507,0.625155042219,-0.118683123491,-0.0139843677578,-0.116726072501,-0.141574579249,-0.104732924854,0.17154792213,0.161217656861,0.211565337007,-1.05795013905,0.798403143883,-0.484009176493,-0.343121320009,-0.51747906208,0.0452417358756
2017/07/09/10:22:02.282282,530695,1499566925,89706440,,0.67113938771,-0.0994851519154,0.103345336441,0.770720405305,0.625883628192,-0.118487129087,-0.0148506245193,-0.112266167041,-0.127295039336,-0.103075193158,0.174421157902,0.162733819394,0.21954545116,-1.2856554985,0.389724612236,-0.601903498173,-0.271371483803,-0.558077156544,0.030051112175
2017/07/09/10:22:02.292504,530696,1499566925,99703602,,0.670225874037,-0.0997652682709,0.102252494895,0.770122015423,0.626615067997,-0.11833633429,-0.0161910440219,-0.121928321001,-0.125631209619,-0.108893414046,0.186561738355,0.173880661405,0.180514386319,-1.16655898094,0.517703175545,-0.483914375305,-0.361543416977,-0.534777760506,0.00586199387908
2017/07/09/10:22:02.302718,530697,1499566925,109703579,,0.669255439207,-0.10052388654,0.10099075186,0.769571598159,0.627264376418,-0.118311094392,-0.0173620945501,-0.135062324873,-0.131308649337,-0.112775180272,0.170863873322,0.192296744849,0.117744328616,-0.102016866207,0.580070674419,-0.578836023808,-0.2872608006,-0.151245057583,-0.0360552147031
2017/07/09/10:22:02.312587,530698,1499566925,119704970,,0.667588527789,-0.102166482942,0.100313999422,0.768841446501,0.627960218336,-0.119204308671,-0.0184154045318,-0.132495941869,-0.110446293867,-0.114374132683,0.183224109602,0.2062644755,0.14132506532,-0.404526233673,0.30195119977,-0.537326276302,-0.230573832989,-0.241163119674,-0.0331805981696
2017/07/09/10:22:02.322540,530699,1499566925,129706361,,0.666388912092,-0.102704461119,0.0988721288216,0.768259197524,0.628623891823,-0.119229049586,-0.0198555227671,-0.12355577843,-0.0946295204791,-0.111371634941,0.203044902429,0.191106094967,0.147771445781,-0.647120714188,0.571374833584,-0.996933162212,-0.236931174994,-0.377463877201,0.00846410170197
2017/07/09/10:22:02.332615,530700,1499566925,139711808,,0.665389095662,-0.104151081908,0.0982451285546,0.768478839594,0.628358169913,-0.119075659875,-0.020670525537,-0.132067811885,-0.100373360666,-0.116476509018,0.189070265825,0.206909467665,0.124441762301,-0.785737514496,-0.0756953507662,-0.190510094166,-0.0809849277139,-0.482077777386,-0.029649078846
2017/07/09/10:22:02.342695,530701,1499566925,149708097,,0.664040421507,-0.10531463543,0.0973743924029,0.767862888113,0.629040555337,-0.119238471091,-0.0218346470567,-0.136927881828,-0.129905405372,-0.104150468393,0.162728379535,0.180340387049,0.0855504486794,-0.828622758389,0.184368401766,-0.00667913630605,-0.118870720267,-0.537666678429,-0.022239126265
2017/07/09/10:22:02.353015,530702,1499566925,159709077,,0.663063754173,-0.105558771643,0.0957771840907,0.766790525611,0.630224150256,-0.119636249126,-0.0231727892567,-0.133192266249,-0.105453454296,-0.116797651858,0.181780031302,0.197432085588,0.10959057065,-0.249707251787,-0.0248560383916,0.0170398056507,-0.0346156470478,-0.281801819801,-0.0616586953402
2017/07/09/10:22:02.362931,530703,1499566925,169709726,,0.661430034785,-0.10712341127,0.0950227016758,0.766732218157,0.630143129322,-0.120246208871,-0.0241286439817,-0.119832027901,-0.0991936258218,-0.111812703729,0.171760144588,0.170825822489,0.104038121717,0.442415028811,-0.167370378971,0.474459081888,0.0375672578812,-0.0246642008424,-0.134740322828
2017/07/09/10:22:02.372689,530704,1499566925,179709240,,0.660338820888,-0.108008628135,0.093888130615,0.766912628094,0.629938203298,-0.119909424321,-0.0253891877596,-0.127242230895,-0.10647532878,-0.117464729358,0.164540829946,0.175643843013,0.0739964896642,-0.247460663319,-0.41248434782,0.0122614316642,-0.0256309509277,-0.17857991159,-0.102955758572
2017/07/09/10:22:02.382438,530705,1499566925,189703442,,0.659648497588,-0.109472209702,0.0929782680687,0.766681315704,0.630199983395,-0.119962260656,-0.0256280529318,-0.113682158259,-0.0916744518825,-0.114803936416,0.182624424404,0.146676136631,0.0333141856614,0.27923232317,-0.263382762671,0.426491558552,0.0555666908622,-0.105331689119,-0.129381656647
2017/07/09/10:22:02.392556,530706,1499566925,199703566,,0.658555415078,-0.110106070035,0.0920506693574,0.76604102056,0.630907258937,-0.120063955741,-0.0268669308186,-0.119149363866,-0.0974329195714,-0.100298027532,0.148500654021,0.164517216129,0.0368458039615,-0.423904925585,0.072951734066,0.439233988523,-0.105111859739,-0.365254282951,-0.0565760135651
2017/07/09/10:22:02.403006,530707,1499566925,209706714,,0.657908346593,-0.110634251442,0.091271637145,0.766025604566,0.631001989483,-0.119459556783,-0.0277610646497,-0.117316383656,-0.106672503095,-0.102304549178,0.140616228944,0.154143585154,0.0299189148796,0.175177142024,0.10333751142,0.524526894093,-0.137209832668,-0.13174046576,-0.103593461215
2017/07/09/10:22:02.412642,530708,1499566925,219705176,,0.65645756898,-0.111599954805,0.0900866467524,0.765741887484,0.631204533951,-0.119892912372,-0.0290841474831,-0.0978059007483,-0.0920163499297,-0.094115594445,0.136197671476,0.13595730152,0.0686737342502,-0.281608760357,-0.142690375447,-0.178094491363,-0.0177363306284,-0.197267949581,-0.105535335839
2017/07/09/10:22:02.422613,530709,1499566925,229704044,,0.655084347347,-0.11225990734,0.088895694655,0.765377383082,0.631500342791,-0.12035141054,-0.0303367187088,-0.0955194499283,-0.0966125890201,-0.0852693866831,0.13208688575,0.120769122258,0.0542188666987,-1.10240447521,0.359145104885,-0.414836168289,-0.230681657791,-0.485106438398,-0.0312540046871
2017/07/09/10:22:02.432440,530710,1499566925,239704828,,0.65354724424,-0.113546733814,0.0879030248264,0.765197981675,0.631517227733,-0.121117077929,-0.0314434945754,-0.0991334149459,-0.0827022477891,-0.0968733568676,0.159931654281,0.129131446283,0.0792907475233,-1.01825654507,0.0924456045032,-0.67228770256,-0.105547785759,-0.425325393677,-0.0513970404863
2017/07/09/10:22:02.442440,530711,1499566925,249709710,,0.653616680229,-0.114167832634,0.0874289793609,0.764736634284,0.632249279036,-0.120123278177,-0.0317667653904,-0.0953184882267,-0.0655165529302,-0.107687791582,0.170717807051,0.144499168455,0.107915527273,-0.7342466712,-0.0327799767256,-0.377031475306,-0.0996744707227,-0.293149441481,-0.0633527636528
2017/07/09/10:22:02.453046,530712,1499566925,259708397,,0.652470058122,-0.114930972179,0.0864542213382,0.764395087451,0.632559529398,-0.120419032331,-0.032677954339,-0.089154895956,-0.0835163773084,-0.0944884847908,0.152979435106,0.0988000973105,0.0538125593282,-0.468274354935,0.175061374903,-0.240207493305,-0.0894869565964,-0.207033991814,-0.115175157785
2017/07/09/10:22:02.463003,530713,1499566925,269708175,,0.651725816324,-0.115102992504,0.085464457451,0.764233083284,0.632780664615,-0.11994980793,-0.0338890613806,-0.102175764797,-0.0927378199897,-0.0861989735453,0.114606133879,0.134209641012,0.0626714708241,0.139434322715,0.183870434761,-0.358451396227,-0.061304345727,0.055144932121,-0.127201497555
2017/07/09/10:22:02.472533,530714,1499566925,279709994,,0.651066691667,-0.115782853087,0.0844324116213,0.763559681772,0.633521036896,-0.120161709712,-0.0344800188853,-0.0811252571655,-0.0687079687391,-0.0934581248686,0.149403190648,0.0937504759445,0.0459162872218,-0.214322090149,0.411240756512,-0.120379179716,-0.0685975253582,-0.12786257267,-0.112861648202
2017/07/09/10:22:02.482445,530715,1499566925,289708253,,0.649992745119,-0.116450220654,0.0838934807019,0.763565110475,0.633474306329,-0.120092256749,-0.0354467933035,-0.0793549078238,-0.0472306706074,-0.0938266655601,0.181607039409,0.0919871171027,0.0439659731418,-0.974740862846,0.33344399929,0.0775062888861,-0.0638072639704,-0.403512477875,-0.0722403898835
2017/07/09/10:22:02.492505,530716,1499566925,299712076,,0.649842150143,-0.117105695828,0.0830126421287,0.76384572626,0.633216172631,-0.119604459161,-0.035661723757,-0.0983568889983,-0.0689682377184,-0.0960604204854,0.158132637467,0.110669056834,-0.0320573239875,-0.476151764393,0.383065968752,0.293448656797,-0.0972174033523,-0.268596857786,-0.07552408427
2017/07/09/10:22:02.502946,530717,1499566925,309707192,,0.648405018597,-0.117187204231,0.0820236554146,0.763612978487,0.633306751441,-0.120155455987,-0.0371543276394,-0.0740887109487,-0.0528362770934,-0.0778547160823,0.131111616845,0.0812799193345,-0.0320933545563,-0.961836516857,0.413363009691,0.260945230722,-0.104324072599,-0.374475896358,-0.0593129917979
2017/07/09/10:22:02.512739,530718,1499566925,319712127,,0.647915607838,-0.117736971656,0.0813391569588,0.764151816917,0.632700026921,-0.119765037756,-0.037669780562,-0.0603104869813,-0.0402114301283,-0.0751816746532,0.122079863151,0.0498159199394,-0.0734598095405,-0.88669615984,0.343117266893,0.469983905554,-0.0589281730354,-0.357774138451,-0.0709450170398
2017/07/09/10:22:02.522881,530719,1499566925,329707670,,0.647960549805,-0.118324503641,0.0811112198953,0.764697031604,0.632154530438,-0.119167891696,-0.0376578423668,-0.0613908544399,-0.0480636016815,-0.0837544819675,0.101125381471,0.0519403069808,-0.107070028805,-0.431560218334,0.0594288110733,0.672239482403,0.0453663393855,-0.220911413431,-0.117675535381
2017/07/09/10:22:02.532533,530720,1499566925,339710800,,0.646674955447,-0.11899325553,0.080158487082,0.765144983965,0.631450871579,-0.119744311134,-0.0385259684698,-0.0766689432048,-0.0366561813476,-0.0851499272173,0.143902957577,0.0751839661691,-0.141567595819,-0.302899003029,0.121097654104,0.632471501827,0.102605953813,-0.23351123929,-0.105252951384
2017/07/09/10:22:02.542296,530721,1499566925,349710261,,0.645583761818,-0.119060951778,0.0788044315829,0.765423276758,0.63110974465,-0.119236887209,-0.0401280741364,-0.0758622582364,-0.0377877350543,-0.0689975754932,0.115934250261,0.0768143401305,-0.154358127506,-0.78852891922,0.308799415827,0.0158545300364,-0.0471510998905,-0.266167253256,-0.0946068316698
2017/07/09/10:22:02.552873,530722,1499566925,359707811,,0.645619796822,-0.118907605141,0.0786120242466,0.766086089715,0.630408131816,-0.118583136435,-0.0404441619779,-0.0657549044684,-0.0246507542316,-0.0800093395259,0.14673457008,0.0487171008381,-0.161122712007,-0.46406006813,0.237850055099,0.618530511856,-0.0106554552913,-0.278220236301,-0.103630676866
2017/07/09/10:22:02.562472,530723,1499566925,369707730,,0.645520612606,-0.119275540188,0.0776591361623,0.765714006873,0.630839596457,-0.118647070403,-0.0405750650604,-0.0445967046286,-0.0131262575726,-0.0725095038945,0.130456047754,0.0313588611747,-0.0919807826948,-0.936623573303,0.404519796371,0.476319819689,-0.137323349714,-0.471820652485,-0.0409300401807
2017/07/09/10:22:02.572716,530724,1499566925,379716143,,0.644601395976,-0.119279345788,0.0771395593326,0.766313568302,0.630105798067,-0.11828592803,-0.0416969724175,-0.0369373336795,-0.0148252426068,-0.0654254578006,0.127253079831,0.0104146492205,-0.0981174793936,-1.11373448372,0.605863690376,0.381251305342,-0.261030882597,-0.496285498142,-0.0355248339474
2017/07/09/10:22:02.582401,530725,1499566925,389705728,,0.644011258964,-0.119856391808,0.07654435514,0.766593045226,0.629753627742,-0.118163004207,-0.0422252980335,-0.0574174442751,-0.0439069796112,-0.060796448432,0.0983216443579,0.0248973667003,-0.168268787514,-0.535285234451,0.387247979641,0.25449103117,-0.125452429056,-0.31314817071,-0.0785804986954
2017/07/09/10:22:02.592471,530726,1499566925,399709859,,0.643807369224,-0.120032435566,0.0759296186352,0.767082979198,0.62921975744,-0.117708057174,-0.0425560001543,-0.0488827494589,-0.0324704929106,-0.0548047527365,0.0609170862461,0.0422497238454,-0.118236708512,-0.0343308821321,0.349826544523,0.05705370754,-0.0711444318295,-0.162672579288,-0.112773045897
2017/07/09/10:22:02.603144,530727,1499566925,409707369,,0.644023116842,-0.120335717099,0.0758769085052,0.767429299315,0.628931262587,-0.117022227493,-0.0424680558278,-0.0327800735691,-0.0200258157286,-0.0597491259902,0.093659879159,0.00510549171437,-0.0945731176789,0.118805333972,-0.226625964046,0.529898583889,0.17741382122,-0.104745365679,-0.140159964561
2017/07/09/10:22:02.612830,530728,1499566925,419709476,,0.643544489764,-0.120044862029,0.075320835727,0.767446816891,0.628811532829,-0.11730551691,-0.0431376300655,-0.036397747692,-0.0182611006162,-0.0555824351532,0.0932867973565,0.0188981217035,-0.093846330983,-0.31787353754,0.219876274467,0.568159103394,0.0536122620106,-0.234308958054,-0.110029965639
2017/07/09/10:22:02.622647,530729,1499566925,429705968,,0.64320469828,-0.120453598421,0.0748737021283,0.767427946867,0.628820010497,-0.117334071641,-0.0432718892312,-0.0254661771261,-0.00739837540432,-0.0481359398739,0.071346965079,0.0197915981026,-0.0654962471475,-0.6425999403,0.533566176891,0.62536752224,-0.0893810614944,-0.328922182322,-0.0799269676208
2017/07/09/10:22:02.632487,530730,1499566925,439712569,,0.642427586027,-0.121118205673,0.0743314750828,0.767790372873,0.628311091596,-0.117477134177,-0.043843339816,-0.0387360691334,-0.0276600908748,-0.0417674254018,0.0485126859063,0.0381778483901,-0.0887434181976,-0.570419728756,0.179742574692,0.568862020969,-0.0245887562633,-0.299461752176,-0.0780342817307
2017/07/09/10:22:02.642297,530731,1499566925,449707552,,0.642709428813,-0.120762452329,0.0739088075344,0.768075601205,0.627998639274,-0.117263722996,-0.0438953206276,-0.0306872154458,-0.0290101187543,-0.0390980960979,0.0633582482959,0.00101395957538,-0.100727404081,-0.964479088783,0.656331896782,0.371373832226,-0.134686842561,-0.451154768467,-0.0485038086772
2017/07/09/10:22:02.652719,530732,1499566925,459708822,,0.64203776122,-0.121153654224,0.0734861020381,0.768113355278,0.627855793315,-0.117591985217,-0.0443970861404,-0.0347836884361,-0.00947268547466,-0.0487220637341,0.0560649715569,0.0556453982815,-0.0472715204978,-0.566392481327,0.43729031086,0.522203445435,-0.0414962619543,-0.334054291248,-0.0556931011379
2017/07/09/10:22:02.662532,530733,1499566925,469705725,,0.641854108022,-0.121609345078,0.0735373008275,0.76829768724,0.627679204464,-0.117293499093,-0.0444939898844,-0.0237477413006,-0.0127560693337,-0.0335120710633,0.0271490110712,0.0359084149897,-0.0444949365945,-1.21321713924,0.341114908457,0.671238958836,-0.120910197496,-0.507851779461,-0.0665012821555
2017/07/09/10:22:02.672735,530734,1499566925,479725226,,0.641793326734,-0.121097909928,0.0731793217475,0.768547407659,0.6273729583,-0.117144021296,-0.044892445338,-0.0215838368055,-0.00308700770374,-0.0327823815377,0.0458412845975,0.0336428740292,-0.0142943164981,-1.05869841576,0.377286553383,0.426187992096,-0.0367827676237,-0.416803240776,-0.0758661925793
2017/07/09/10:22:02.682662,530735,1499566925,489706579,,0.641159745257,-0.121652964985,0.0728824227413,0.768287457761,0.62759598031,-0.117552318044,-0.0451566193153,-0.0429405330307,-0.0249082095985,-0.0305277670752,0.0385808528385,0.0509037527799,-0.0644288994509,-0.580163180828,0.482493907213,0.395967334509,-0.0237542390823,-0.342093616724,-0.0758558362722
2017/07/09/10:22:02.692641,530736,1499566925,499730249,,0.641208872716,-0.121680913816,0.0727511359188,0.768437900147,0.627416534847,-0.117526471254,-0.045157656865,-0.034928235506,-0.0178782072459,-0.0334968546728,0.015617531438,0.0554073281491,-0.0605101678264,-0.55869436264,0.235155105591,0.380014419556,0.00515810400248,-0.29623773694,-0.0959803238511
2017/07/09/10:22:02.703140,530737,1499566925,509705675,,0.641128912847,-0.121713274483,0.0723365456196,0.768457849054,0.627451787666,-0.117127633842,-0.0453641463344,-0.0151674132623,0.00578013159364,-0.0295909336193,0.0305725838929,0.0345006700127,0.00167004492932,0.40806645155,0.290266335011,0.224688470364,0.035658441484,0.0634183138609,-0.139046370983
2017/07/09/10:22:02.712469,530738,1499566925,519718882,,0.640630242747,-0.121144658441,0.0720681397147,0.76831211512,0.627465331182,-0.117719448637,-0.0461073024272,-0.0147894518174,0.00501438421077,-0.0174650568267,0.0112553051624,0.0433674485038,0.0067291991362,-0.451653182507,0.565243721008,0.344880193472,-0.0668764263391,-0.257077097893,-0.0877363309264
2017/07/09/10:22:02.722433,530739,1499566925,529726460,,0.640767984555,-0.121516274504,0.0721459068131,0.768370867986,0.627450872804,-0.117521851816,-0.0458282204872,-0.0107063319386,0.021285238268,-0.0244596972687,0.0497520279125,0.0345819698155,-0.00073252556469,0.366202294827,-0.0623599588871,0.280868858099,0.230506002903,-0.0581514686346,-0.119360655546
2017/07/09/10:22:02.732569,530740,1499566925,539732238,,0.640340182681,-0.122325554002,0.0720287925679,0.768797063138,0.626885320563,-0.117781694783,-0.045753064893,-0.023531707332,-0.0127262075284,-0.0164780270011,0.024166956735,0.0233360167816,-0.0474344388467,-0.0521711818874,-0.558708846569,0.481755584478,0.276464343071,-0.146116763353,-0.160866513848
2017/07/09/10:22:02.742531,530741,1499566925,549706466,,0.64049488,-0.121476915783,0.0717724311244,0.768712087315,0.626983283394,-0.117630121634,-0.046226006153,0.00775921331474,-0.00800529626312,-0.0104595832611,-0.0029061988472,-0.017683798879,-0.011815991799,-0.226028770208,-0.0276932120323,0.294341295958,0.109448984265,-0.216436177492,-0.125461339951
2017/07/09/10:22:02.752902,530742,1499566925,559738327,,0.640562191842,-0.121564869227,0.0715733051271,0.768376090837,0.627406290851,-0.117591633423,-0.0461707372593,-0.000749581069233,-0.0120156841735,-0.00179903660702,0.000929071477421,-0.00809817507032,-0.0182304011495,-0.610277414322,0.275142073631,0.191264733672,0.082206569612,-0.354091465473,-0.0824535936117
2017/07/09/10:22:02.762605,530743,1499566925,569708640,,0.641061551888,-0.121280226351,0.0720066449012,0.768563743965,0.627268835611,-0.117174344086,-0.0459755633059,-0.00942621373626,0.00533596975346,-0.0219976098481,0.0156040261366,0.0293810073579,0.0193972828122,0.175170063972,0.658050119877,0.565477013588,0.00603082031012,-0.140157461166,-0.0978861376643
2017/07/09/10:22:02.772822,530744,1499566925,579718513,,0.640570271122,-0.120936644379,0.0713180978498,0.768290961222,0.627503987132,-0.117422010884,-0.0466885039121,-0.00383159756516,0.0120282623002,-0.0109067333253,0.0247866008305,0.0215797751837,0.0223054329331,-0.969231784344,0.450218081474,0.350769162178,-0.0271526351571,-0.510172486305,-0.0557780116796
2017/07/09/10:22:02.782560,530745,1499566925,589720563,,0.640767520627,-0.121250647018,0.0716853712584,0.768455648144,0.627328686506,-0.11746460397,-0.0462244820117,-0.0168980904204,-0.0010478631153,-0.0195918900657,0.0170810650424,0.0367333892332,0.00103056458229,-0.310458421707,0.27782830596,0.495099842548,0.0580956786871,-0.280349195004,-0.125339180231
2017/07/09/10:22:02.792526,530746,1499566925,599711369,,0.640263349756,-0.120957082129,0.070605832342,0.768152391397,0.627563843201,-0.117966470192,-0.0467914330754,0.00189218619544,0.0225395442775,-0.00872263054574,0.020107310965,0.0174985338045,0.0178404154949,-0.759802401066,0.572858035564,0.0967314988375,0.0121718049049,-0.421036332846,-0.0701480284333
2017/07/09/10:22:02.802845,530747,1499566925,609707542,,0.640246653033,-0.120968196967,0.0708208296769,0.768378937055,0.627301378385,-0.117818433515,-0.0469638849538,-0.0138543235623,0.00505392421879,-0.0029701530048,-0.0140456580523,0.0445098557691,-0.00129797538271,-0.374835461378,0.364627540112,0.252836883068,0.000127121806145,-0.309370845556,-0.131611973047
2017/07/09/10:22:02.812833,530748,1499566925,619717386,,0.639891631124,-0.12036347246,0.0705767766125,0.768046694482,0.627621789212,-0.118038397661,-0.0475615546262,0.00899585750523,0.0104542389818,-0.00023771138368,0.0100197130689,-0.0144211008473,-0.004815263146,-0.0642509385943,0.126712620258,0.2419308424,0.187015146017,-0.184763759375,-0.14369559288
2017/07/09/10:22:02.822838,530749,1499566925,629706363,,0.641273051527,-0.120826813236,0.0716996723527,0.768294810375,0.627582245557,-0.117262247163,-0.045969281079,0.00576097186425,0.0227160988534,0.00313608701536,0.0150714712463,0.0117805222914,0.0407847284796,0.562778115273,-0.4595708251,0.594365894794,0.381218075752,-0.0918416231871,-0.167950987816
2017/07/09/10:22:02.832464,530750,1499566925,639711646,,0.640420971926,-0.120516448315,0.0711048782718,0.768184315367,0.627579947745,-0.117603195927,-0.0469654673212,0.0144481443271,0.0082407181749,0.00126174381164,-0.00603904788261,-0.0221760119401,0.00421825192272,-0.30050432682,-0.426303893328,0.53292965889,0.306969344616,-0.27275171876,-0.15951564908
2017/07/09/10:22:02.842358,530751,1499566925,649706358,,0.640935564373,-0.12007019311,0.0711074811012,0.767849819509,0.628021131678,-0.117543636225,-0.0466862552405,0.00436763294997,0.0143985100835,-0.00574819145537,0.0105329737854,0.0084454273016,0.0189408185636,-0.358964383602,-0.38851994276,0.539746940136,0.282504081726,-0.335380643606,-0.133585199714
2017/07/09/10:22:02.852965,530752,1499566925,659715618,,0.641027537369,-0.120300659304,0.0714405125943,0.768044482529,0.627777110045,-0.11762731859,-0.0465552025307,0.0202253776756,0.00723970035923,0.00157142496423,-0.0110814432812,-0.0284306537191,0.0306977215462,-0.959015250206,-0.085106536746,0.366972416639,0.153252184391,-0.501546680927,-0.109465271235
2017/07/09/10:22:02.862804,530753,1499566925,669710527,,0.640761226688,-0.120272813431,0.0708636546296,0.76785138213,0.62797329485,-0.11770597793,-0.0468945484618,-0.00488401122952,0.0110767268825,0.00599330383762,0.0071189604653,0.0275108240583,0.00471732527221,-2.05751919746,0.290825128555,0.274235039949,-0.0319825187325,-0.989464879036,-0.0446900613606
2017/07/09/10:22:02.872760,530754,1499566925,679718846,,0.641386462646,-0.119847903383,0.0714956297312,0.767931160347,0.627966905128,-0.117371880945,-0.0465095752979,0.0189498441677,0.0068967835195,0.0142011969455,-0.0114877872003,-0.0262307603293,0.0139486356852,-1.78679466248,0.0938108116388,0.144079074264,0.118469491601,-0.934556543827,-0.0441573597491
2017/07/09/10:22:02.882755,530755,1499566925,689704944,,0.640909082825,-0.120139762554,0.0715107221851,0.767794565708,0.628077378308,-0.11760276262,-0.0466894201258,-0.00324020766057,0.00110865085224,0.00470241454545,-0.00670253795437,0.0124782489425,0.00348073148288,-0.515981793404,-0.126758500934,0.0038059130311,0.208691745996,-0.462231636047,-0.137484610081
2017/07/09/10:22:02.892450,530756,1499566925,699703122,,0.640975786097,-0.119703309583,0.0715052191899,0.767647148508,0.628225141508,-0.117699989539,-0.0468800536271,-0.00379131946203,0.0106683634737,0.00437692187178,0.0021412641042,0.0234501709541,0.0142501825158,-0.830308556557,-0.248932287097,0.00913173705339,0.274178832769,-0.532581746578,-0.117445282638
2017/07/09/10:22:02.902824,530757,1499566925,709706685,,0.641445678872,-0.119790129713,0.0717853349219,0.767675808763,0.628247803845,-0.117585445788,-0.0463919447991,0.0267344437422,0.0290025804012,0.00360854867331,0.0119669209992,-0.0318336051559,0.0409624387671,-0.0819856673479,-0.0579664111137,0.183671191335,0.214779645205,-0.278837412596,-0.160577908158
2017/07/09/10:22:02.912655,530758,1499566925,719718263,,0.641588461939,-0.119212778228,0.0715007876544,0.767836792857,0.628074664998,-0.11733616335,-0.04670224291,0.0143861320221,-0.000656622725909,0.0139793348224,-0.00264462519539,-0.0302671688459,0.0076244796541,-1.26986932755,-0.253741919994,0.263351738453,0.204083308578,-0.729525387287,-0.0963559448719
2017/07/09/10:22:02.922673,530759,1499566925,729714266,,0.641692883478,-0.119188864252,0.0712109140265,0.767800317848,0.628181060557,-0.117052828281,-0.046581782512,0.0138553837026,0.00736750646789,0.00282958801021,0.0128938821555,-0.0334110505198,-0.0161724277883,-1.38372147083,-0.138021945953,-0.392161309719,0.176092982292,-0.680516004562,-0.0852601528168
2017/07/09/10:22:02.932582,530760,1499566925,739732105,,0.641690157646,-0.11985439977,0.0718052832806,0.767986185509,0.627947380615,-0.117232798855,-0.0462144665526,0.0115068871235,0.0159635089108,-0.00956681265976,0.0270351029765,-0.0173910459619,0.00649382093025,-1.59218931198,0.0858267694712,0.406270414591,0.101770699024,-0.83019477129,-0.0663020759821
2017/07/09/10:22:02.942401,530761,1499566925,749706600,,0.641819182933,-0.118907870768,0.0712777756928,0.767805418446,0.628167966753,-0.117048962634,-0.046683886904,0.0183803468551,0.0187589832756,-0.00254783259497,0.00893370960889,-0.0202744787111,0.0223522811911,-2.13022661209,0.145488709211,0.024721916765,-0.0415213704109,-0.949611365795,-0.0460059866309
2017/07/09/10:22:02.952629,530762,1499566925,759704558,,0.641657335778,-0.119175838192,0.0716702248987,0.767817342251,0.628117520594,-0.117249884058,-0.0466623397263,0.0176976495704,0.0277955187882,-0.00413743788207,0.0170523415245,-0.00179047203838,0.0315977962613,-2.12267422676,0.588562488556,-0.247864916921,-0.118136286736,-0.945371627808,-0.0153658390045
2017/07/09/10:22:02.962749,530763,1499566925,769712444,,0.64129839007,-0.118527690773,0.0706696724132,0.767590332695,0.628348909979,-0.117123748828,-0.0475894520012,-0.00221742861468,0.0239817637801,-0.00317784515251,0.0379774665026,0.016391581432,-0.0243667008561,-2.77244496346,0.837708294392,-0.524016976357,-0.199639290571,-1.15576004982,0.0323691144586
2017/07/09/10:22:02.972580,530764,1499566925,779711767,,0.641976501703,-0.11886943646,0.0711280210251,0.767704303072,0.628320517275,-0.116816918636,-0.0468747067984,0.0260905842963,0.0211218046478,-0.000463942324498,0.0241068028108,-0.044373653582,0.0280725244145,-3.3475818634,0.400978416204,-0.0616188980639,-0.0907314419746,-1.41780626774,0.0364812463522
2017/07/09/10:22:02.982599,530765,1499566925,789710803,,0.64245113375,-0.118351899756,0.0715746461361,0.76758372959,0.628533971392,-0.116606326647,-0.0465105306494,0.0236011158416,0.0175457819454,-0.00544546545231,0.0160696919601,-0.0368266943876,0.0491595936696,-2.50523853302,0.677441418171,0.0209695138037,-0.0355017520487,-1.10928583145,0.026880774647
2017/07/09/10:22:02.992548,530766,1499566925,799712472,,0.641684908016,-0.117944511385,0.0711226777077,0.76708444249,0.62893234589,-0.117419670464,-0.0473094427256,0.008667208805,0.0361875483484,-0.0201160797479,0.0221960233028,0.0219195390594,0.049622540525,-3.01817464828,0.40463757515,0.324253767729,-0.0530382543802,-1.21973216534,-0.0113473981619
2017/07/09/10:22:03.002845,530767,1499566925,809708476,,0.642522899592,-0.118025081137,0.0711093730216,0.767281136652,0.628841433547,-0.116971266402,-0.0464309339653,0.00394630268121,0.0111000284599,-0.0184198173982,0.00931455518546,0.0146441895738,0.0271095790331,5.13441753387,0.285221129656,-1.44646728039,-0.21571610868,2.09319090843,-0.299753755331
2017/07/09/10:22:03.012572,530768,1499566925,819712870,,0.642656353145,-0.117951963416,0.0702554085059,0.767197073157,0.628990273208,-0.116600835874,-0.0467347004019,0.0336534638925,0.0193319682559,-0.00988328038613,-0.0100289905385,-0.0393882480577,0.0517590137223,4.50138473511,0.535345077515,-1.18299007416,-0.25810995698,1.85718119144,-0.236883983016
2017/07/09/10:22:03.022653,530769,1499566925,829708061,,0.642460211385,-0.117915310362,0.0701038404349,0.766916300943,0.629258633721,-0.116918764711,-0.0469357187478,0.00401731490857,-0.00979417297299,-0.0103287611225,-0.0164586350295,-0.0171242746675,-0.0191103763942,2.54796123505,0.518217206001,-0.682366490364,-0.176943093538,1.08249509335,-0.212541490793
2017/07/09/10:22:03.032491,530770,1499566925,839712134,,0.642849535693,-0.117525248176,0.0706643172518,0.76723724583,0.628953142967,-0.116571637744,-0.0466476777249,0.0119428891642,0.0206750816852,-0.0169477783748,0.0107932563171,-0.0119227000179,0.0165432649071,2.10793113708,0.558242976665,-0.197638899088,-0.20037715137,0.965490996838,-0.188599526882
2017/07/09/10:22:03.042316,530771,1499566925,849703355,,0.642717009376,-0.117440945785,0.0697343228131,0.767164246595,0.629061552298,-0.116319634535,-0.0470140913861,0.015949459422,0.0200556774012,-0.0145618073573,0.00879528306137,-0.0118753899217,0.0417159578634,2.78922486305,0.0961698517203,-0.262535870075,-0.0289593860507,1.23961019516,-0.250482559204
2017/07/09/10:22:03.052953,530772,1499566925,859709008,,0.642657485465,-0.117534433339,0.0696212035558,0.767205289457,0.628992073596,-0.116473409465,-0.0468930705962,0.00641072223639,0.000207569672812,-0.0251869322467,0.00753294103004,-0.0169656524984,0.0130184159467,1.53306162357,0.676166772842,-0.0481910221279,-0.289143383503,0.78405469656,-0.154560223222
2017/07/09/10:22:03.062899,530773,1499566925,869707190,,0.64326668736,-0.117049917755,0.0695379768562,0.766886737937,0.629463481422,-0.116124474845,-0.0466429316663,0.0356180031063,0.0236530334491,-0.021212417821,0.0214749633853,-0.0730321093741,0.0279207855676,2.10126185417,0.395591557026,0.195902258158,-0.118059448898,0.948462665081,-0.172269582748
2017/07/09/10:22:03.072761,530774,1499566925,879704427,,0.643570123147,-0.11635249951,0.0690786540451,0.766850959352,0.629610015783,-0.115429304894,-0.0469777579062,0.0260859226813,0.0403847261216,-0.0242573310037,0.0525611531096,-0.0480275742605,0.0415419688402,3.87611436844,-0.514836370945,0.124193668365,0.117329291999,1.60568082333,-0.282172620296
2017/07/09/10:22:03.082678,530775,1499566925,889707057,,0.643666064596,-0.116147442834,0.0691021773666,0.76699029245,0.629508818591,-0.115022666447,-0.0470566127998,0.0139339149214,0.0404363029397,-0.0318154371321,0.0612122336821,-0.0134548698916,0.0212415779333,3.34676527977,-0.274039328098,0.129140362144,-0.172644346952,1.39266109467,-0.259995281696
2017/07/09/10:22:03.092479,530776,1499566925,899711555,,0.643567138509,-0.116281044531,0.0689309150684,0.766750305124,0.629711494792,-0.115564125794,-0.0469290501511,0.00861900274727,0.00873380004404,-0.0132758182334,0.00722980093806,-0.0177845905147,-0.00154027835892,2.79480028152,-0.252724170685,0.19102704525,-0.0496327020228,1.02159833908,-0.196718513966
2017/07/09/10:22:03.102902,530777,1499566925,909704293,,0.643399527961,-0.116042975273,0.0688241839337,0.766868559272,0.629509487562,-0.115726357264,-0.0473056878611,0.00682249029865,0.0142347551622,-0.0119120225643,0.00196092611755,0.000610507682578,0.0136214550873,2.65359711647,-0.720449924469,0.0799996927381,0.144202083349,0.86258405447,-0.198742568493
2017/07/09/10:22:03.112745,530778,1499566925,919712061,,0.64419181415,-0.11620147738,0.0692666202616,0.766437295624,0.630149078011,-0.115507655139,-0.0463032716211,0.0175317998146,0.0263884037723,-0.0180695432827,0.00270255218151,-0.00373153822209,0.0372723165154,2.0396053791,-1.05721008778,0.176500022411,0.352000951767,0.610368788242,-0.239660590887
2017/07/09/10:22:03.122684,530779,1499566925,929707789,,0.644202887601,-0.116064015537,0.0682272556441,0.766483896902,0.63009355904,-0.115409954682,-0.0465304739591,0.0291604190548,0.0144731620943,-0.0209655089655,0.0143429109977,-0.0591366397151,0.0366376979322,0.8695089221,-1.47417676449,0.239468097687,0.579091370106,0.159437343478,-0.229028657079
2017/07/09/10:22:03.132595,530780,1499566925,939711676,,0.644720544774,-0.116059108513,0.068298821186,0.766688034352,0.630000339585,-0.114724310694,-0.0461233415835,0.022650764918,0.00024671540544,-0.0230574937246,0.00420808015095,-0.0673637495057,0.0296559219203,1.13082027435,-1.47256219387,0.468689322472,0.626559078693,0.334202349186,-0.238261699677
2017/07/09/10:22:03.142308,530781,1499566925,949706093,,0.644801781564,-0.115755670306,0.0679277791818,0.766464437842,0.630354345537,-0.114218351815,-0.04625832568,0.0263508970802,0.0145436329907,-0.0270460921965,0.00570066024645,-0.0580450636569,0.0363456020416,1.78461575508,-1.8488689661,0.638336122036,0.790963828564,0.65176564455,-0.299670547247
2017/07/09/10:22:03.152949,530782,1499566925,959711927,,0.644987083313,-0.115868581443,0.0679424514263,0.766646897835,0.630117679788,-0.114478134432,-0.0458148490801,0.0484513918962,0.0134002234073,-0.00558564497075,0.00919972247901,-0.124619606951,0.0176279995164,2.11520934105,-2.25954675674,0.858176469803,0.923338532448,0.831763982773,-0.333837628365
2017/07/09/10:22:03.162676,530783,1499566925,969709611,,0.644994755096,-0.115641012438,0.0678641511369,0.766690806934,0.630106893445,-0.114127631405,-0.0461019863674,0.0298447746685,0.0152891795336,-0.00581787444958,0.0213465731127,-0.0645139365196,0.00697749715146,2.08085203171,-2.1633515358,0.819057941437,0.79136043787,0.836930274963,-0.335489034653
2017/07/09/10:22:03.172677,530784,1499566925,979712000,,0.645371415186,-0.115885506192,0.0681922097803,0.766704326509,0.630192654206,-0.113739234485,-0.0456626853745,0.00358498262227,0.0272020241758,-0.0136532467524,0.0622109726099,-0.00991321541991,-0.0179394356403,1.61411571503,-2.12352967262,0.757829785347,0.753703653812,0.616960942745,-0.313833296299
2017/07/09/10:22:03.182384,530785,1499566925,989715901,,0.645921478201,-0.115312902052,0.0681861383605,0.766695507722,0.630280549352,-0.113382027819,-0.0454856385558,-0.00199233749253,0.0102412846185,0.00320245858052,0.0223938181246,0.00264392829636,-0.00658224726848,1.81856751442,-1.97012984753,0.716970205307,0.639160275459,0.735776185989,-0.306194663048
2017/07/09/10:22:03.192209,530786,1499566925,999708035,,0.645777109575,-0.114690481499,0.0681483706305,0.766200931468,0.630819841784,-0.11351086273,-0.0460189512258,-0.00285096782202,0.0113049915418,-0.00411232424609,0.0124167414502,0.0111840760933,0.0152343669778,2.02793455124,-1.85009741783,0.779913127422,0.605100989342,0.819511592388,-0.29404142499
2017/07/09/10:22:03.203002,530787,1499566926,9704289,,0.645171679847,-0.114976458475,0.0677464376209,0.766360833361,0.630527488364,-0.113905976864,-0.0463852125347,0.0027104679729,-0.00275263464433,-0.00271033822951,-0.00615909138864,-0.006826354328,-0.0109734164606,2.1312789917,-1.83639740944,0.822808563709,0.568111598492,0.890507936478,-0.31084421277
2017/07/09/10:22:03.212751,530788,1499566926,19727025,,0.644968610305,-0.115291751183,0.0676336786077,0.766523019541,0.63031158089,-0.114049823974,-0.0462861659765,0.0147476318094,0.00140760200157,0.000535650874316,-0.0213652102723,-0.0193454501608,0.00547685466171,1.91894328594,-1.70950126648,0.804555118084,0.513851702213,0.814235031605,-0.31586587429
2017/07/09/10:22:03.222865,530789,1499566926,29708137,,0.645313908669,-0.115348599937,0.0678246345035,0.766782086329,0.630071601958,-0.113733737809,-0.0460396065918,0.00667318838828,-0.00635088261501,0.00898799366035,-0.0175579759638,-0.0155534222825,-0.000900682133602,1.55060482025,-1.65346932411,0.871539592743,0.58337032795,0.649462401867,-0.266360133886
2017/07/09/10:22:03.232657,530790,1499566926,39705654,,0.645399220887,-0.115040911947,0.0678992767953,0.766367140578,0.630572196591,-0.113691323619,-0.046199498519,-0.000883405711589,-0.0208721052363,0.00917789405215,-0.022151757208,-0.015432966801,-0.0164695636957,1.17812311649,-1.1137830019,0.786141633987,0.340373456478,0.500744223595,-0.210032448173
2017/07/09/10:22:03.242812,530791,1499566926,49707935,,0.644972227707,-0.115792090162,0.0675522879834,0.766669461106,0.630145128467,-0.114137107023,-0.0459105138044,-0.00944570488584,-0.0138741123799,-0.00191346421608,0.00445593871263,0.00513541346734,-0.0309726771657,1.70014226437,-1.3765963316,0.729485213757,0.438856840134,0.719307541847,-0.240338414907
2017/07/09/10:22:03.252875,530792,1499566926,59708992,,0.645645866809,-0.115842656037,0.0684981588938,0.766768628629,0.630139762275,-0.113747216375,-0.0452915104362,-0.00704544969578,-0.00896583964963,-0.00908769882408,0.00971873966692,-0.0058356014828,-0.0299847662029,1.00256216526,-1.09809732437,0.807645976543,0.327732145786,0.489553570747,-0.251354157925
2017/07/09/10:22:03.262766,530793,1499566926,69705984,,0.645825546229,-0.115393007893,0.0681648246351,0.766727874808,0.63026329857,-0.113202707934,-0.0456255124345,0.00673297070621,-0.00766758592664,0.00926949232479,-0.0122772070234,-0.0245440424426,-0.00172454319928,1.46092057228,-1.21830916405,0.755773544312,0.331851363182,0.669511973858,-0.252424955368
2017/07/09/10:22:03.272683,530794,1499566926,79735387,,0.645171626829,-0.115740928974,0.0677160536753,0.766900993961,0.629909387496,-0.113851446708,-0.0459877928203,0.00100571933392,0.000943765409415,0.000887067441629,-0.00346910962031,-0.000740075967803,-0.0176797370246,1.48991882801,-1.04430627823,0.591740548611,0.255068302155,0.64124506712,-0.23902118206
2017/07/09/10:22:03.282624,530795,1499566926,89740618,,0.64520880616,-0.115486055343,0.0679905895698,0.766772639766,0.630080525315,-0.113777819875,-0.0459658376428,-0.0263124698653,-0.00321428232311,-0.00220035245714,0.0107749506366,0.0522480984724,-0.00572555179529,1.54604387283,-1.04424154758,0.58159828186,0.293465465307,0.61045384407,-0.241551011801
2017/07/09/10:22:03.292741,530796,1499566926,99704294,,0.645366278972,-0.115563373558,0.0680847779551,0.766772222075,0.630083500811,-0.113847742551,-0.0457584197238,-0.00283881150477,-0.0043743063225,0.0111720419137,0.00318692910172,-0.00476058519798,-0.00138116990471,2.24219942093,-1.2615647316,0.537526845932,0.364695161581,0.904900610447,-0.250216007233
2017/07/09/10:22:03.303007,530797,1499566926,109704358,,0.644379238547,-0.116399809964,0.0679176615258,0.767256729496,0.629365938212,-0.114377649113,-0.0461885293667,-0.00962679985873,-0.0143648288592,-0.00219012955614,-0.00960446585632,0.00651815994689,-0.0186720009838,2.52827954292,-1.30951535702,0.432759344578,0.320894986391,1.0712621212,-0.286652773619
2017/07/09/10:22:03.313288,530798,1499566926,119707013,,0.645299819405,-0.115299697137,0.0684721783909,0.766895206067,0.629937363824,-0.11369226147,-0.0460947963662,0.000490297922945,-0.0251496829216,0.00991422663521,-0.0371003952351,-0.0128225811695,-0.0214396001771,3.2624900341,-1.59079837799,0.372358232737,0.451418757439,1.34212315083,-0.314533054829
2017/07/09/10:22:03.322518,530799,1499566926,129707764,,0.645271668691,-0.115580373609,0.0684955741147,0.766811968438,0.630046902715,-0.113782056228,-0.0457596888127,0.0183186388522,0.0109473651445,0.00554815334324,-0.00198883299059,-0.0270804960627,0.0189931473498,2.66428232193,-1.23330569267,-0.00903568416834,0.310748815536,1.12238502502,-0.282464176416
2017/07/09/10:22:03.332616,530800,1499566926,139711432,,0.645036087841,-0.115860655421,0.0676357911743,0.766772582334,0.630018309189,-0.114068454754,-0.0460990747872,0.0146794259165,0.0111925354291,-0.0021257559657,0.0145411671813,-0.0241574746652,0.0184611595903,2.16414666176,-0.905363738537,-0.0506059639156,0.174881264567,0.952594697475,-0.267275452614
2017/07/09/10:22:03.342836,530801,1499566926,149709082,,0.644891266369,-0.115913035463,0.0677458246159,0.766895399394,0.629886545729,-0.113932120989,-0.0461936976726,0.00445529724308,-0.00805494324585,-0.00143644365264,-0.00642993469996,-0.0176351572314,-0.0271130355198,1.94338297844,-0.964861512184,-0.116563104093,0.243704408407,0.877241671085,-0.223481923342
2017/07/09/10:22:03.352772,530802,1499566926,159705197,,0.645748393636,-0.116095380076,0.0683460892923,0.767657814389,0.629181417787,-0.113036719073,-0.0453312658027,-0.00805289603458,-0.00818206242595,-0.00601861945573,0.00348144839075,0.00596435562772,-0.0121172230106,2.26709413528,-0.868220508099,-0.302949905396,0.222935706377,1.03116464615,-0.233146697283
2017/07/09/10:22:03.362791,530803,1499566926,169704799,,0.645141500459,-0.116335375309,0.0680498858258,0.766802319991,0.63005411765,-0.113829390689,-0.0457042744501,-0.00913952449576,-0.0183055422056,-0.0035813484979,0.00719204956217,-0.00553396434827,-0.0260183425355,2.52692270279,-1.07501411438,-0.523079395294,0.260713398457,1.19865393639,-0.282021939754
2017/07/09/10:22:03.372450,530804,1499566926,179713798,,0.645518271925,-0.11573500722,0.0683395644672,0.766925664366,0.629943952279,-0.113631282022,-0.0456461835288,-0.00596786768355,-0.00518084965045,-0.00464929742397,0.00823542933436,0.0130543686584,0.0166693559064,2.29291653633,-0.982549071312,-0.491041332483,0.257219552994,1.03616523743,-0.248217865825
