24 22 27 34 39 36 35 28 
25 20 28 34 34 37 33 28 
20 20 26 34 29 39 28 28 
22 20 22 33 32 38 40 31 
26 21 22 30 31 34 40 31 
25 21 22 31 29 33 39 30 
25 23 20 31 30 32 40 27 
25 23 22 27 31 31 41 28 
23 21 24 28 27 32 31 24 
21 23 24 30 28 32 28 26 
23 23 24 28 28 34 32 28 
21 21 25 29 26 31 30 31 
21 20 21 30 24 33 28 31 
23 19 20 31 31 29 28 31 
23 17 20 29 30 28 28 30 
24 19 20 30 27 25 26 27 
24 19 20 30 30 27 26 24 
24 18 24 37 30 29 27 25 
24 19 24 36 22 29 30 24 
25 21 27 36 25 33 30 26 
23 23 26 38 26 29 27 28 
23 23 25 38 24 29 27 28 
21 24 24 27 26 26 34 27 
22 24 24 28 28 28 33 28 
20 24 20 32 30 28 36 26 
21 21 19 29 30 29 39 24 
20 20 23 28 30 29 39 24 
22 20 23 33 31 32 32 25 
21 21 22 36 33 33 31 25 
20 18 23 33 30 31 26 26 
18 20 26 31 33 30 23 29 
22 25 24 31 32 31 22 28 
20 24 24 28 33 31 22 28 
20 25 24 27 31 30 20 31 
24 26 27 27 34 30 21 27 
25 24 27 29 32 30 25 24 
24 20 26 32 34 31 28 25 
24 22 26 32 33 28 30 26 
23 19 26 33 37 28 32 24 
20 20 26 35 37 30 31 26 
20 25 29 37 35 32 28 26 
23 25 27 35 35 29 31 27 
25 25 28 37 35 35 29 24 
24 26 28 34 30 36 29 23 
24 26 30 37 27 33 30 24 
26 22 27 33 26 31 31 26 
22 23 29 34 26 31 27 25 
20 25 29 31 25 25 29 29 
23 24 30 32 26 29 28 29 
24 23 26 27 26 28 27 30 
22 23 22 28 27 31 30 28 
23 23 26 28 29 31 35 30 
24 22 25 29 28 31 35 26 
23 21 25 30 34 30 35 26 
22 21 29 29 34 33 36 24 
23 22 30 28 35 33 35 25 
21 23 26 28 32 37 34 23 
21 21 27 27 34 38 40 26 
21 26 27 26 27 36 42 48 
29 27 24 31 60 104 110 142 
32 27 25 36 107 142 114 167 
36 28 28 47 120 154 129 181 
54 32 28 51 121 168 284 254 
55 30 31 51 125 188 306 264 
57 30 31 49 153 261 334 250 
76 80 43 66 202 328 384 363 
91 159 78 60 202 347 449 377 
91 194 93 61 205 353 436 352 
112 233 98 65 207 359 539 375 
113 238 100 64 182 299 522 378 
105 230 97 46 96 218 508 273 
96 184 72 45 82 183 456 251 
88 148 50 41 74 162 420 233 
62 73 38 35 64 140 337 196 
59 59 34 37 57 131 337 177 
83 94 34 37 42 110 349 185 
82 99 37 39 42 109 373 221 
86 101 39 40 40 115 405 293 
86 103 40 39 41 102 374 295 
126 200 82 42 46 151 549 323 
113 189 91 43 50 162 583 363 
115 211 118 50 61 172 602 380 
127 220 120 52 62 177 605 347 
147 262 134 53 68 178 621 340 
125 214 126 55 65 144 491 320 
130 243 125 56 68 162 506 325 
146 244 104 55 59 168 499 295 
141 265 167 55 63 161 489 280 
119 224 162 55 63 165 476 285 
112 212 158 52 66 179 536 305 
129 290 170 57 71 191 526 268 
111 288 178 64 74 224 523 249 
110 312 187 66 71 249 549 252 
127 313 188 68 68 260 619 348 
150 322 190 75 83 303 667 348 
176 418 226 100 150 398 702 386 
212 425 231 115 172 404 715 401 
214 415 187 114 175 418 808 428 
210 431 191 123 197 468 806 385 
196 434 189 119 197 469 808 399 
173 319 143 98 154 408 817 373 
128 312 136 72 130 388 805 382 
131 291 142 73 158 382 777 358 
132 265 135 68 158 387 714 336 
131 256 132 77 175 366 621 301 
116 210 120 80 180 336 556 343 
141 201 113 87 184 365 566 390 
132 209 100 83 161 356 436 402 
122 212 94 79 182 335 521 406 
138 212 94 69 172 352 634 449 
151 214 188 60 168 352 606 406 
134 208 189 61 171 350 593 345 
138 187 192 79 212 451 657 344 
154 182 192 84 199 423 615 437 
156 219 204 85 198 416 479 405 
148 214 119 86 193 422 467 418 
142 209 113 82 188 428 479 445 
146 204 102 76 188 461 409 480 
146 208 102 64 167 458 419 468 
167 240 167 64 161 442 430 465 
164 244 173 64 162 437 424 441 
172 240 181 62 169 417 397 503 
188 242 184 57 132 274 364 510 
179 242 204 65 128 252 311 489 
176 221 175 93 126 241 283 552 
209 216 192 107 134 237 326 594 
214 234 183 108 137 217 337 531 
213 247 183 116 133 221 331 487 
246 328 239 125 174 268 338 472 
231 307 243 112 195 293 344 398 
214 290 239 102 212 304 327 439 
224 286 244 106 205 296 307 434 
218 295 263 95 200 256 267 450 
191 210 214 100 247 317 312 474 
206 193 180 98 237 317 325 496 
219 280 219 97 218 305 307 422 
226 321 287 101 220 306 280 463 
212 308 280 105 235 317 294 520 
212 303 283 87 156 246 269 487 
192 323 301 81 151 221 268 487 
197 282 275 113 157 225 257 521 
180 239 240 112 152 227 259 524 
182 239 229 107 117 227 259 437 
179 256 221 107 101 220 190 408 
177 244 209 106 108 225 154 392 
143 206 197 72 116 232 166 340 
122 190 136 59 117 237 170 248 
123 189 132 60 125 228 160 263 
111 176 110 61 121 186 171 330 
112 146 73 63 151 202 221 323 
142 137 61 56 136 190 250 400 
182 217 117 56 143 178 254 528 
186 224 113 52 146 173 247 544 
191 213 116 58 182 226 312 582 
198 219 117 60 196 281 370 627 
173 241 162 71 208 297 350 608 
156 218 220 79 222 328 365 517 
154 223 248 82 221 350 374 522 
150 222 254 79 198 320 325 444 
163 223 265 94 159 258 212 435 
162 202 319 106 157 240 225 405 
152 140 278 102 140 193 187 410 
166 126 259 112 141 152 175 427 
163 122 283 118 149 196 161 424 
166 131 292 112 145 221 167 394 
182 128 221 103 187 237 145 390 
216 129 215 113 196 259 159 388 
222 117 237 117 196 254 160 432 
230 118 235 112 201 238 171 442 
224 100 258 109 212 237 185 445 
208 97 260 100 167 220 190 432 
175 101 260 92 159 217 194 419 
151 99 275 100 178 247 216 364 
149 109 283 101 191 272 278 393 
143 111 278 105 193 284 278 389 
168 113 282 115 195 300 289 422 
167 117 300 128 220 363 312 463 
170 116 289 122 231 374 304 501 
166 112 259 123 217 357 235 480 
173 100 225 124 210 366 251 501 
163 95 222 117 224 358 245 577 
154 96 241 106 229 315 229 606 
213 121 290 94 206 298 213 566 
211 114 318 100 200 301 253 575 
202 119 314 96 226 295 256 537 
195 118 305 107 221 294 241 435 
207 108 263 104 183 275 229 427 
146 89 245 114 196 320 253 425 
158 130 339 128 211 315 268 449 
164 140 368 127 198 336 258 448 
158 139 370 124 215 379 301 449 
137 142 373 125 230 386 322 420 
174 136 336 116 212 335 309 410 
160 109 294 98 215 354 302 375 
148 94 266 103 203 309 289 369 
159 93 261 104 192 318 281 363 
160 91 261 101 190 319 259 325 
131 91 259 105 207 339 264 342 
129 79 171 102 194 317 233 340 
132 79 158 106 203 323 229 377 
120 83 162 97 188 277 216 409 
121 80 166 99 183 271 209 406 
99 74 152 89 165 248 203 390 
98 71 128 83 161 250 187 372 
117 79 163 74 146 234 193 368 
114 74 155 80 160 247 177 330 
121 74 147 87 205 353 272 338 
124 74 153 89 205 360 291 406 
132 67 141 93 207 360 309 410 
110 59 91 89 202 371 307 372 
113 71 111 82 199 363 306 446 
105 68 108 69 155 253 229 427 
98 68 102 66 152 236 196 348 
89 79 98 67 153 243 168 366 
96 82 131 77 149 223 181 379 
104 74 132 84 160 287 236 297 
113 96 164 91 148 287 276 363 
116 101 165 95 165 322 280 363 
120 99 167 89 154 306 282 368 
129 98 149 84 157 311 276 349 
123 106 152 82 130 223 222 329 
116 88 116 76 134 204 156 260 
115 83 109 78 137 144 154 268 
119 90 198 85 152 153 149 271 
109 92 197 79 163 158 149 272 
127 104 196 86 175 170 166 288 
131 108 200 89 174 179 173 300 
130 107 203 85 171 254 187 292 
125 102 124 78 150 243 184 240 
136 124 129 81 140 238 185 248 
129 111 103 72 141 259 262 270 
127 109 99 72 146 270 272 308 
127 120 95 70 132 211 259 306 
132 116 125 83 199 293 329 306 
137 111 134 86 199 287 328 336 
127 122 149 82 185 259 274 356 
135 139 148 81 173 243 269 332 
134 137 163 81 167 232 276 345 
127 179 188 66 74 116 200 372 
112 173 185 60 65 119 204 390 
115 167 177 59 100 151 189 347 
111 152 177 51 96 149 168 321 
113 158 195 61 97 142 153 334 
115 110 145 68 97 139 136 378 
124 125 129 73 100 141 119 344 
123 137 125 74 62 114 106 396 
120 137 125 75 58 103 111 394 
129 134 75 65 63 105 109 381 
125 144 89 66 73 113 111 320 
109 124 89 63 84 132 123 320 
107 145 90 62 84 119 108 242 
120 188 92 62 85 122 108 344 
120 190 110 58 82 117 108 342 
123 189 99 60 72 111 109 347 
135 198 98 59 55 83 95 387 
136 176 95 60 52 85 99 410 
118 127 97 60 51 80 94 342 
108 113 64 63 49 83 96 413 
103 102 60 53 49 75 87 392 
82 84 65 47 43 71 80 338 
74 71 63 42 41 61 74 325 
97 98 51 42 42 60 67 368 
102 158 52 36 46 57 57 284 
102 162 47 34 44 51 54 304 
107 157 38 38 44 48 65 323 
104 166 37 38 43 52 65 319 
82 153 37 35 39 53 74 251 
73 88 35 35 32 55 83 265 
75 78 37 35 37 63 84 247 
81 93 40 35 37 61 84 256 
86 104 40 38 39 57 83 240 
88 107 39 38 38 55 73 269 
104 116 39 40 39 54 84 284 
109 123 35 41 33 55 87 302 
100 116 37 37 31 51 81 295 
109 109 46 36 29 53 82 315 
112 101 49 35 35 62 84 299 
104 91 48 34 36 61 76 287 
109 90 51 31 37 56 79 271 
109 86 47 32 40 60 82 290 
94 67 36 31 42 67 79 271 
90 67 40 35 41 59 81 280 
83 64 42 41 40 62 78 265 
71 50 40 44 51 72 76 253 
76 58 40 43 50 78 82 215 
88 70 39 43 49 74 85 218 
90 74 34 40 46 73 88 205 
87 77 35 32 47 81 86 191 
84 88 34 30 41 80 82 198 
83 93 34 31 41 72 71 190 
87 85 35 33 41 69 85 278 
91 86 34 34 42 72 85 272 
102 97 28 35 45 66 87 284 
97 90 29 33 43 58 90 295 
93 79 31 34 41 61 91 286 
86 78 30 32 46 66 82 245 
90 79 30 31 44 63 79 247 
87 87 29 28 39 57 75 234 
94 94 36 28 35 55 71 214 
118 120 33 28 35 54 82 237 
115 124 34 31 32 59 82 189 
108 124 33 35 33 59 78 205 
107 111 35 38 38 90 86 215 
104 104 30 38 43 92 90 217 
103 78 32 37 43 91 91 238 
100 82 31 36 40 85 91 225 
107 81 37 34 39 86 91 236 
100 78 35 31 35 56 84 223 
100 75 35 36 33 54 80 221 
74 67 35 36 33 66 69 200 
72 60 36 36 35 72 67 266 
66 79 37 38 36 72 69 250 
75 104 40 37 35 74 83 274 
78 111 42 33 36 76 99 300 
76 115 41 33 40 67 100 289 
82 112 41 33 39 63 104 257 
83 100 37 31 44 65 121 352 
77 79 35 32 47 66 111 334 
74 92 30 30 48 66 97 316 
75 94 32 31 45 66 96 319 
79 94 31 32 48 62 88 343 
83 98 31 36 51 69 73 275 
79 97 31 39 48 65 72 281 
79 84 35 40 48 62 72 279 
91 89 34 37 48 60 71 274 
89 90 37 38 46 59 69 242 
80 84 40 33 41 51 67 234 
81 82 43 32 41 54 62 233 
89 84 44 30 37 71 59 226 
96 75 46 32 37 77 66 227 
91 76 45 29 42 82 71 218 
94 71 42 28 41 86 73 177 
100 72 40 28 41 84 77 178 
96 61 35 35 47 74 78 182 
82 69 32 36 46 68 76 182 
82 68 33 36 44 72 77 187 
87 77 35 43 44 65 66 207 
88 87 33 42 44 62 62 204 
89 99 33 38 39 57 62 207 
95 92 36 36 41 62 68 211 
99 91 35 39 40 53 82 256 
98 90 39 31 40 51 83 234 
91 83 39 30 48 58 91 232 
84 66 39 30 46 58 90 228 
75 64 40 33 45 55 86 223 
71 102 42 33 44 58 84 196 
63 105 38 35 49 61 95 216 
66 105 37 36 40 61 96 240 
68 106 37 38 50 80 101 245 
72 107 34 38 52 80 104 260 
80 78 30 36 57 81 96 248 
81 71 30 40 56 82 84 228 
85 74 32 41 57 79 76 209 
104 87 33 41 51 62 71 209 
125 110 32 39 48 61 64 194 
120 107 31 40 44 64 56 172 
123 111 37 38 39 68 57 171 
126 117 36 40 39 65 62 180 
112 110 37 39 36 64 64 181 
