time,.header.seq,.header.stamp.secs,.header.stamp.nsecs,.header.frame_id,.ch0,.ch1,.ch2,.ch3,.ch4,.ch5,.ch6,.ch7
2017/07/09/09:29:42.783533,59662,1499563782,783328056,0,504,137,76,71,75,337,202,209
2017/07/09/09:29:42.798452,59663,1499563782,798285961,0,454,167,91,59,72,333,207,241
2017/07/09/09:29:42.821720,59664,1499563782,821250915,0,470,187,95,60,71,337,205,232
2017/07/09/09:29:42.836221,59665,1499563782,836009025,0,513,193,96,53,66,333,200,228
2017/07/09/09:29:42.858739,59666,1499563782,858375072,0,592,214,106,70,92,299,142,227
2017/07/09/09:29:42.889478,59667,1499563782,889301061,0,638,225,113,84,120,319,165,245
2017/07/09/09:29:42.895875,59668,1499563782,895771026,0,623,196,101,91,122,323,159,242
2017/07/09/09:29:42.918449,59669,1499563782,918334960,0,630,175,94,93,124,319,161,251
2017/07/09/09:29:42.941244,59670,1499563782,940927982,0,623,173,92,95,125,321,162,255
2017/07/09/09:29:42.956606,59671,1499563782,956213951,0,612,172,86,84,101,230,141,261
2017/07/09/09:29:42.978454,59672,1499563782,978364944,0,607,182,76,71,77,188,122,248
2017/07/09/09:29:43.001146,59673,1499563783,930070,0,636,182,90,75,82,213,136,223
2017/07/09/09:29:43.016384,59674,1499563783,16109943,0,648,184,91,72,83,221,145,233
2017/07/09/09:29:43.038815,59675,1499563783,38595914,0,649,171,85,70,83,213,144,223
2017/07/09/09:29:43.060717,59676,1499563783,60622930,0,663,170,79,68,80,181,142,243
2017/07/09/09:29:43.076132,59677,1499563783,75872898,0,663,161,84,66,75,163,128,257
2017/07/09/09:29:43.098750,59678,1499563783,98560094,0,707,192,75,58,76,196,134,302
2017/07/09/09:29:43.121336,59679,1499563783,121094942,0,716,220,84,71,99,210,194,321
2017/07/09/09:29:43.136140,59680,1499563783,135921955,0,730,244,90,74,99,214,199,340
2017/07/09/09:29:43.174233,59681,1499563783,174053907,0,681,238,97,78,101,212,200,328
2017/07/09/09:29:43.189589,59682,1499563783,189485073,0,653,238,93,76,99,212,201,365
2017/07/09/09:29:43.195862,59683,1499563783,195650100,0,633,233,91,72,94,175,201,322
2017/07/09/09:29:43.218794,59684,1499563783,218493938,0,586,206,84,59,68,152,136,313
2017/07/09/09:29:43.241546,59685,1499563783,241107940,0,651,210,92,69,80,165,161,335
2017/07/09/09:29:43.263628,59686,1499563783,263401031,0,649,220,95,93,94,218,196,384
2017/07/09/09:29:43.278687,59687,1499563783,278443098,0,691,255,114,128,127,264,218,384
2017/07/09/09:29:43.301085,59688,1499563783,300853013,0,714,317,159,136,128,245,224,459
2017/07/09/09:29:43.323426,59689,1499563783,323260068,0,738,343,182,141,136,247,231,467
2017/07/09/09:29:43.338490,59690,1499563783,338273048,0,654,331,184,146,135,253,223,440
2017/07/09/09:29:43.361425,59691,1499563783,361187934,0,678,334,185,147,144,301,212,434
2017/07/09/09:29:43.383491,59692,1499563783,383300065,0,650,315,178,129,129,274,189,418
2017/07/09/09:29:43.398672,59693,1499563783,398374080,0,666,239,137,135,135,271,171,414
2017/07/09/09:29:43.421704,59694,1499563783,421355009,0,673,213,119,178,159,270,164,442
2017/07/09/09:29:43.443518,59695,1499563783,443330049,0,647,212,109,179,162,289,153,464
2017/07/09/09:29:43.458469,59696,1499563783,458296060,0,607,211,111,186,179,291,190,471
2017/07/09/09:29:43.481086,59697,1499563783,480891942,0,659,232,117,190,178,285,261,562
2017/07/09/09:29:43.503717,59698,1499563783,503402948,0,590,264,133,193,179,289,278,567
2017/07/09/09:29:43.518745,59699,1499563783,518542051,0,590,261,123,166,164,286,279,580
2017/07/09/09:29:43.541265,59700,1499563783,540930032,0,631,264,127,173,175,291,315,584
2017/07/09/09:29:43.563846,59701,1499563783,563590049,0,675,274,143,173,157,219,297,610
2017/07/09/09:29:43.578476,59702,1499563783,578327894,0,624,251,136,164,149,217,276,575
2017/07/09/09:29:43.601043,59703,1499563783,600857973,0,598,221,129,159,152,216,285,524
2017/07/09/09:29:43.623876,59704,1499563783,623617887,0,564,211,128,148,166,349,367,520
2017/07/09/09:29:43.638860,59705,1499563783,638612985,0,602,219,142,145,156,332,341,530
2017/07/09/09:29:43.668509,59706,1499563783,668340921,0,607,263,156,161,166,341,399,633
2017/07/09/09:29:43.691744,59707,1499563783,691634893,0,577,257,167,191,271,361,402,612
2017/07/09/09:29:43.698811,59708,1499563783,698525905,0,615,264,168,187,282,361,441,653
2017/07/09/09:29:43.722573,59709,1499563783,722111940,0,632,279,177,187,268,250,423,691
2017/07/09/09:29:43.745292,59710,1499563783,745119094,0,618,344,188,198,274,270,501,720
2017/07/09/09:29:43.758626,59711,1499563783,758418083,0,537,298,163,190,381,312,474,603
2017/07/09/09:29:43.781178,59712,1499563783,780884981,0,527,300,156,181,351,307,463,593
2017/07/09/09:29:43.803724,59713,1499563783,803467035,0,550,293,155,183,346,311,422,615
2017/07/09/09:29:43.818433,59714,1499563783,818228960,0,550,286,144,189,428,481,382,573
2017/07/09/09:29:43.841171,59715,1499563783,840970993,0,465,179,111,187,565,498,531,611
2017/07/09/09:29:43.863473,59716,1499563783,863302946,0,585,208,120,185,602,502,592,651
2017/07/09/09:29:43.878464,59717,1499563783,878160953,0,662,400,194,188,622,500,618,676
2017/07/09/09:29:43.901380,59718,1499563783,901237964,0,623,412,197,263,829,604,676,644
2017/07/09/09:29:43.923423,59719,1499563783,923294067,0,593,413,201,302,917,547,764,728
2017/07/09/09:29:43.939721,59720,1499563783,939608097,0,593,413,204,305,894,542,626,692
2017/07/09/09:29:43.968979,59721,1499563783,968647003,0,530,408,202,297,826,507,685,697
2017/07/09/09:29:43.983729,59722,1499563783,983558893,0,525,237,140,311,870,546,773,808
2017/07/09/09:29:43.998498,59723,1499563783,998305082,0,526,238,169,303,736,504,786,823
2017/07/09/09:29:44.021229,59724,1499563784,20962953,0,548,324,211,269,612,466,770,787
2017/07/09/09:29:44.043404,59725,1499563784,43267011,0,612,332,222,319,715,622,936,934
2017/07/09/09:29:44.058867,59726,1499563784,58643102,0,604,350,228,341,767,667,969,1020
2017/07/09/09:29:44.080844,59727,1499563784,80739974,0,556,364,241,347,762,665,885,911
2017/07/09/09:29:44.103916,59728,1499563784,103648900,0,647,365,221,304,726,608,855,899
2017/07/09/09:29:44.119033,59729,1499563784,118768930,0,702,360,235,304,703,592,841,880
2017/07/09/09:29:44.140918,59730,1499563784,140793085,0,716,450,263,241,522,399,697,737
2017/07/09/09:29:44.164333,59731,1499563784,163710117,0,684,437,260,242,558,372,528,555
2017/07/09/09:29:44.178807,59732,1499563784,178576946,0,747,518,274,206,476,309,560,588
2017/07/09/09:29:44.201201,59733,1499563784,200973033,0,680,526,276,199,443,315,581,640
2017/07/09/09:29:44.225178,59734,1499563784,225008010,0,616,477,229,188,462,299,544,591
2017/07/09/09:29:44.246363,59735,1499563784,246129035,0,558,391,182,184,449,297,491,567
2017/07/09/09:29:44.270175,59736,1499563784,270061969,0,552,388,183,137,322,222,517,608
2017/07/09/09:29:44.287322,59737,1499563784,287125110,0,460,279,139,120,300,227,472,564
2017/07/09/09:29:44.306578,59738,1499563784,306266069,0,421,307,145,115,304,216,425,460
2017/07/09/09:29:44.321449,59739,1499563784,321171998,0,389,313,148,107,246,212,388,455
2017/07/09/09:29:44.343614,59740,1499563784,343316078,0,357,324,153,95,260,197,371,444
2017/07/09/09:29:44.366615,59741,1499563784,366022109,0,346,303,135,76,246,200,308,394
2017/07/09/09:29:44.381199,59742,1499563784,381012916,0,306,272,125,69,229,210,404,439
2017/07/09/09:29:44.403415,59743,1499563784,403253078,0,307,208,102,67,210,205,360,438
2017/07/09/09:29:44.427145,59744,1499563784,426832914,0,310,205,105,69,206,181,352,436
2017/07/09/09:29:44.441469,59745,1499563784,441144943,0,310,188,98,75,251,197,370,374
2017/07/09/09:29:44.463448,59746,1499563784,463265895,0,358,199,102,84,230,182,380,385
2017/07/09/09:29:44.486019,59747,1499563784,485881090,0,401,196,104,88,216,174,283,345
2017/07/09/09:29:44.501164,59748,1499563784,501055002,0,438,174,101,89,215,181,317,390
2017/07/09/09:29:44.524829,59749,1499563784,524689912,0,443,177,94,91,224,186,351,451
2017/07/09/09:29:44.546246,59750,1499563784,545991897,0,448,174,88,99,160,166,333,452
2017/07/09/09:29:44.561514,59751,1499563784,561239957,0,447,188,88,104,217,190,357,445
2017/07/09/09:29:44.583496,59752,1499563784,583302974,0,444,228,88,105,216,171,368,498
2017/07/09/09:29:44.606132,59753,1499563784,605854988,0,382,262,101,112,222,161,337,473
2017/07/09/09:29:44.621496,59754,1499563784,621275901,0,376,254,94,113,230,148,330,406
2017/07/09/09:29:44.643913,59755,1499563784,643604040,0,405,251,90,112,282,190,316,405
2017/07/09/09:29:44.665907,59756,1499563784,665743112,0,394,253,99,99,242,166,267,382
2017/07/09/09:29:44.681156,59757,1499563784,680912971,0,436,317,102,93,236,164,287,371
2017/07/09/09:29:44.703944,59758,1499563784,703666925,0,441,296,91,85,247,171,295,376
2017/07/09/09:29:44.726189,59759,1499563784,725917100,0,453,301,91,81,255,199,277,381
2017/07/09/09:29:44.740976,59760,1499563784,740819931,0,458,334,103,70,183,157,296,399
2017/07/09/09:29:44.763942,59761,1499563784,763653039,0,478,333,100,68,173,150,302,403
2017/07/09/09:29:44.794129,59762,1499563784,793896913,0,392,236,90,72,176,143,253,331
2017/07/09/09:29:44.800994,59763,1499563784,800779104,0,378,225,88,77,176,134,253,371
2017/07/09/09:29:44.831991,59764,1499563784,831733942,0,365,218,87,72,142,91,236,360
2017/07/09/09:29:44.846028,59765,1499563784,845850944,0,356,164,79,76,158,133,234,378
2017/07/09/09:29:44.861035,59766,1499563784,860866069,0,298,141,82,78,154,154,257,389
2017/07/09/09:29:44.883634,59767,1499563784,883229017,0,324,123,83,82,158,156,266,388
2017/07/09/09:29:44.906332,59768,1499563784,906207084,0,325,121,83,77,151,166,255,331
2017/07/09/09:29:44.921536,59769,1499563784,921112060,0,335,115,83,78,140,168,271,351
2017/07/09/09:29:44.943570,59770,1499563784,943348884,0,301,115,81,67,117,134,265,314
2017/07/09/09:29:44.966461,59771,1499563784,966273069,0,291,106,70,69,128,146,240,270
2017/07/09/09:29:44.989451,59772,1499563784,989207029,0,242,98,58,65,136,155,231,277
2017/07/09/09:29:45.003513,59773,1499563785,3307104,0,259,94,55,67,122,162,244,294
2017/07/09/09:29:45.026077,59774,1499563785,25787115,0,253,113,57,69,130,161,235,284
2017/07/09/09:29:45.041057,59775,1499563785,40949106,0,234,120,56,68,132,165,211,271
2017/07/09/09:29:45.064282,59776,1499563785,64143896,0,227,122,49,64,123,144,202,302
2017/07/09/09:29:45.086002,59777,1499563785,85830926,0,237,134,52,62,107,158,218,304
2017/07/09/09:29:45.101506,59778,1499563785,101222038,0,223,139,54,54,112,137,195,273
2017/07/09/09:29:45.123587,59779,1499563785,123397111,0,314,147,59,56,111,141,182,316
2017/07/09/09:29:45.146041,59780,1499563785,145867109,0,344,139,57,54,106,136,176,344
2017/07/09/09:29:45.168771,59781,1499563785,168370962,0,360,140,60,64,105,136,157,314
2017/07/09/09:29:45.184930,59782,1499563785,184768915,0,360,133,59,61,111,113,141,304
2017/07/09/09:29:45.205909,59783,1499563785,205770969,0,362,126,59,71,103,113,176,325
2017/07/09/09:29:45.228471,59784,1499563785,228286027,0,295,100,56,65,92,127,173,265
2017/07/09/09:29:45.243931,59785,1499563785,243604898,0,253,93,55,66,98,128,176,222
2017/07/09/09:29:45.266158,59786,1499563785,265942096,0,228,82,49,58,104,120,195,211
2017/07/09/09:29:45.288697,59787,1499563785,288499116,0,254,80,49,61,95,118,190,214
2017/07/09/09:29:45.303593,59788,1499563785,303376913,0,279,86,41,48,78,118,156,182
2017/07/09/09:29:45.325928,59789,1499563785,325795888,0,253,78,34,51,88,118,157,198
2017/07/09/09:29:45.350587,59790,1499563785,348484039,0,314,82,34,53,93,167,164,199
2017/07/09/09:29:45.363355,59791,1499563785,363207101,0,313,89,39,55,86,190,153,211
2017/07/09/09:29:45.386425,59792,1499563785,386145114,0,293,91,39,57,81,204,166,282
2017/07/09/09:29:45.408488,59793,1499563785,408319950,0,284,95,40,57,82,203,176,288
2017/07/09/09:29:45.423449,59794,1499563785,423321008,0,283,101,47,59,81,203,195,294
2017/07/09/09:29:45.446951,59795,1499563785,446307897,0,209,99,49,55,74,165,193,304
2017/07/09/09:29:45.469367,59796,1499563785,469214916,0,235,95,48,51,71,136,184,300
2017/07/09/09:29:45.483717,59797,1499563785,483498096,0,272,87,48,44,74,118,182,228
2017/07/09/09:29:45.506350,59798,1499563785,506094932,0,249,78,51,46,74,130,172,228
2017/07/09/09:29:45.528921,59799,1499563785,528419017,0,254,76,48,48,71,109,234,269
2017/07/09/09:29:45.543420,59800,1499563785,543307065,0,264,79,48,52,75,111,239,255
