time,.header.seq,.header.stamp.secs,.header.stamp.nsecs,.header.frame_id,.pose.position.x,.pose.position.y,.pose.position.z,.pose.orientation.x,.pose.orientation.y,.pose.orientation.z,.pose.orientation.w,.twist.linear.x,.twist.linear.y,.twist.linear.z,.twist.angular.x,.twist.angular.y,.twist.angular.z,.wrench.force.x,.wrench.force.y,.wrench.force.z,.wrench.torque.x,.wrench.torque.y,.wrench.torque.z
2017/07/09/09:33:04.319674,236898,1499563987,118926162,,0.806391770647,0.544062693314,0.256581579604,0.607670987872,0.782902277446,0.0854999233218,0.102419517577,0.129917293701,-0.347505856103,0.00168843233779,-0.0123868670429,-0.00310887388115,-0.463722645606,3.58460378647,2.33869886398,1.33467233181,-0.782109081745,1.73952865601,-0.380301892757
2017/07/09/09:33:04.329626,236899,1499563987,128930324,,0.808274315232,0.5393690521,0.256317529611,0.609831345885,0.781214083037,0.0850349694143,0.102855918729,0.143841830694,-0.360658535989,0.0111548560297,-0.0132013187126,-0.0281292183788,-0.449870426566,3.2743833065,2.13863182068,1.19283998013,-0.692392766476,1.62230873108,-0.374871432781
2017/07/09/09:33:04.339587,236900,1499563987,138922227,,0.809575414358,0.535831598743,0.256292129871,0.611470479922,0.779941124832,0.0847576024543,0.103013799106,0.131194697568,-0.338098987382,0.0130542520905,0.017851271758,-0.0159898808728,-0.457888068547,3.14304924011,2.03346896172,1.29397428036,-0.709853410721,1.55632698536,-0.392855495214
2017/07/09/09:33:04.349850,236901,1499563987,148924229,,0.810561335344,0.533577162863,0.256352966483,0.612829635991,0.778847942671,0.0848590002266,0.103124534078,0.140830629838,-0.360948013908,0.00364150941984,0.0172250538397,-0.0166745166691,-0.477886773063,2.87279081345,1.66172301769,1.28609704971,-0.495297133923,1.52941930294,-0.331194490194
2017/07/09/09:33:04.359735,236902,1499563987,158923544,,0.812390950018,0.529599397071,0.256729580267,0.615125394723,0.776930051658,0.0850498794183,0.103763970665,0.135466576262,-0.338719577463,0.00287773236432,0.0411107954306,-0.0140410459853,-0.465698705895,3.46788334846,1.7615326643,1.37876605988,-0.530743062496,1.79308199883,-0.329064816236
2017/07/09/09:33:04.369581,236903,1499563987,168935429,,0.813243335434,0.526634814583,0.256304886999,0.616199064683,0.776142736873,0.0845395585011,0.103702592692,0.130173738815,-0.345541732825,-0.00415316430394,0.0149466235364,-0.00686498328,-0.453950860555,3.04983234406,1.51009607315,1.36059975624,-0.444784611464,1.64704060555,-0.328758448362
2017/07/09/09:33:04.379742,236904,1499563987,178929821,,0.814733627674,0.522398441635,0.256157879456,0.618497744965,0.774306736573,0.0842112089154,0.104010045011,0.136010968368,-0.370090223517,-0.00385454658365,0.00326856181684,-0.0112289933342,-0.486621502491,3.16955375671,1.85428166389,1.4742859602,-0.608056426048,1.68750214577,-0.394889652729
2017/07/09/09:33:04.389880,236905,1499563987,188926309,,0.8158954675,0.519408234402,0.256365339141,0.620618588251,0.772618648003,0.0845452197155,0.103658566932,0.132289299051,-0.361920261345,-0.00428226785493,0.00550990948797,-0.0156003502235,-0.469058532425,3.27889871597,2.07669448853,1.5101749897,-0.694336414337,1.73838555813,-0.408106207848
2017/07/09/09:33:04.399366,236906,1499563987,198923158,,0.817752481662,0.516434126717,0.256234138119,0.621873136167,0.771485167315,0.0846761142732,0.104471980929,0.145224800641,-0.405239138288,-0.00601088923294,-0.0184589283307,-0.00707444798588,-0.522354493058,2.96200227737,2.1232213974,1.58115541935,-0.801174342632,1.60525202751,-0.506665349007
2017/07/09/09:33:04.409655,236907,1499563987,208923039,,0.818841452021,0.511692018292,0.256643348706,0.624190487092,0.769677227708,0.0840185247667,0.104518364262,0.135228939314,-0.382957037792,-0.00218833724443,-0.00431480236104,-0.0112833366381,-0.485736547683,2.84106087685,1.96510529518,1.60491001606,-0.705648541451,1.58009088039,-0.456038981676
2017/07/09/09:33:04.419763,236908,1499563987,218967071,,0.820394323382,0.507291035226,0.256340446093,0.62638611914,0.767876967936,0.0834772031916,0.105056881779,0.131239270123,-0.408675734713,-0.00972164876749,-0.00886215998711,0.0136136116841,-0.520763915389,2.06425952911,1.64152657986,1.54385209084,-0.573630392551,1.27428603172,-0.437901943922
2017/07/09/09:33:04.429758,236909,1499563987,228939760,,0.821586492357,0.504071204709,0.256300913003,0.627611047292,0.766857421213,0.0835698543027,0.105119685595,0.136486038379,-0.41340670755,-0.00616279131789,-0.0112391556093,-0.00431052776861,-0.528894485726,2.25846815109,1.68068242073,1.62298953533,-0.612592577934,1.3468028307,-0.449888080359
2017/07/09/09:33:04.439727,236910,1499563987,238935919,,0.822604377669,0.499960228381,0.256205744654,0.629785817779,0.765121962517,0.082838483043,0.105337514327,0.120856191723,-0.379790533702,-0.00102653681489,0.0187766175504,0.00630144285338,-0.490084285306,2.33446884155,1.6952316761,1.84633886814,-0.588283240795,1.43270051479,-0.440655887127
2017/07/09/09:33:04.449495,236911,1499563987,248923769,,0.823260160203,0.496162616563,0.255535815284,0.631431094667,0.763899007202,0.0819681138397,0.105044313495,0.111868809561,-0.391016188459,-0.00681953755109,0.00445840255235,0.0267832439227,-0.507636616927,2.26582217216,1.43770635128,1.85116422176,-0.534372091293,1.35492801666,-0.426952242851
2017/07/09/09:33:04.459618,236912,1499563987,258929721,,0.82471973226,0.49265514463,0.255376824221,0.632903993988,0.762640799898,0.0821681898902,0.105166217463,0.111886521118,-0.392820507484,-0.0179176767528,-0.00781346790106,0.0305697143823,-0.489577670225,2.26991987228,1.14737927914,1.99081742764,-0.361637890339,1.39921534061,-0.348002374172
2017/07/09/09:33:04.469549,236913,1499563987,268922073,,0.825355523701,0.489914953957,0.25549698242,0.634779793234,0.761164448602,0.0822462678729,0.10449329025,0.117458418568,-0.39744217211,-0.0172577234849,-0.00306045315266,0.0253025778272,-0.473171537191,2.49841380119,1.53810381889,1.98675560951,-0.561087608337,1.45730340481,-0.460138291121
2017/07/09/09:33:04.479721,236914,1499563987,278927170,,0.826631755372,0.4863005217,0.255539863999,0.635639902661,0.760378350862,0.0817897964318,0.105342806516,0.0935178152405,-0.374021295522,-0.0237210785181,0.00229849999286,0.0605215040437,-0.422774678702,2.10366988182,1.35379767418,2.06730747223,-0.469519376755,1.34681487083,-0.41702875495
2017/07/09/09:33:04.489723,236915,1499563987,288924368,,0.827899326385,0.481643416469,0.255635268386,0.637175520922,0.759083398365,0.0812862688599,0.105793630996,0.10607234238,-0.377038574996,-0.0102799613684,0.00397181101012,0.0270473092063,-0.397815989127,1.99759101868,1.54203152657,2.02667665482,-0.571566402912,1.29664111137,-0.483117878437
2017/07/09/09:33:04.499664,236916,1499563987,298935730,,0.829197135577,0.477662735659,0.255763672853,0.638723725976,0.757742942075,0.0813312094589,0.106032400607,0.126129403557,-0.403517664959,-0.00133959814896,-0.0191496507033,-0.0235878039663,-0.367206860552,1.6236512661,1.37007594109,2.10299634933,-0.532497346401,1.20186173916,-0.444760739803
2017/07/09/09:33:04.509857,236917,1499563987,308930180,,0.830272628903,0.473607683186,0.255217270917,0.640252796145,0.756482790193,0.0808607712115,0.106168172488,0.106001959467,-0.396302718161,-0.0309881211376,-0.0403698583992,0.0348574716888,-0.329839851995,2.16971278191,1.33447551727,2.09132909775,-0.473871409893,1.43562471867,-0.378734350204
2017/07/09/09:33:04.519673,236918,1499563987,318931701,,0.831171128943,0.470713906385,0.255289028805,0.641150828621,0.75574620371,0.0807866412263,0.106050974236,0.104291018758,-0.406903052816,-0.0183877140384,-0.0299615191952,0.0319869229391,-0.334194495799,1.68351387978,0.990904569626,2.10925459862,-0.369616925716,1.21023201942,-0.350789070129
2017/07/09/09:33:04.529755,236919,1499563987,328925030,,0.83196338222,0.466509973209,0.254914868476,0.642339029609,0.754824051716,0.080186008558,0.105884021566,0.105753890183,-0.391025938684,-0.00692853487694,0.00171901634996,0.0131990968743,-0.310237631131,1.75894796848,0.996511340141,2.0589492321,-0.350483953953,1.17667400837,-0.28898447752
2017/07/09/09:33:04.539665,236920,1499563987,338935370,,0.832951930188,0.462181693586,0.254572331021,0.643221696155,0.754092604894,0.0794353674,0.106302470553,0.101653637176,-0.407175177966,-0.0176770392725,-0.0310158893732,0.0273331133188,-0.287758285353,1.82304060459,0.948358893394,1.80743324757,-0.300647497177,1.09587657452,-0.326544493437
2017/07/09/09:33:04.549665,236921,1499563987,348936105,,0.834176824597,0.458430412966,0.254497515271,0.64410107178,0.75331375542,0.0795790311178,0.106392542186,0.114471200662,-0.425675588706,-0.0148316019466,-0.0612907407862,-0.00402242922833,-0.271714813754,1.29641413689,0.665709257126,1.71714758873,-0.172436207533,0.907009005547,-0.243761897087
2017/07/09/09:33:04.559699,236922,1499563987,358923596,,0.835265842849,0.455017068226,0.254753211834,0.644392684304,0.752996976772,0.0796081781199,0.106846428881,0.117714071158,-0.403418899378,-0.00325089952123,-0.0486928136086,-0.0439202087702,-0.212693144221,1.09692800045,0.666257619858,1.79273808002,-0.175870805979,0.893202662468,-0.223520427942
2017/07/09/09:33:04.569610,236923,1499563987,368926173,,0.836688781118,0.450891253179,0.254638253007,0.645532744681,0.751945992161,0.0796327358122,0.10734676429,0.115263520097,-0.40011812204,-0.00536523410451,-0.0625158840429,-0.042824259547,-0.173287454595,1.41678237915,0.667593717575,1.87806689739,-0.198747456074,1.02736854553,-0.215879186988
2017/07/09/09:33:04.579630,236924,1499563987,378921071,,0.837688301106,0.4476406488,0.254142954498,0.645595196584,0.751878503568,0.0794647225403,0.107568191819,0.129788807459,-0.377382759987,0.00281249719451,-0.00979877912631,-0.0832566367304,-0.168620505131,1.51629292965,0.639518618584,1.94644570351,-0.179372563958,1.10050415993,-0.167539924383
2017/07/09/09:33:04.589639,236925,1499563987,388929809,,0.839151919565,0.442909834084,0.254570151303,0.647124184233,0.75047369313,0.0797802244931,0.107956666678,0.134714513762,-0.389611240288,-0.00879913930685,0.0168574638458,-0.0718254860194,-0.213645000239,1.86576962471,0.787774324417,1.86432361603,-0.275675296783,1.22238004208,-0.191624626517
2017/07/09/09:33:04.599453,236926,1499563987,398929536,,0.839959538558,0.440468533205,0.253778596915,0.647588204575,0.750127302912,0.0800669796269,0.107367711601,0.109944369351,-0.379324757069,-0.00509037346499,0.0378400909482,-0.0359210930159,-0.206106586334,0.764998078346,0.548570811749,1.59545660019,-0.226188823581,0.717078149319,-0.167261749506
2017/07/09/09:33:04.609566,236927,1499563987,408929709,,0.84147780071,0.43633692678,0.254310005447,0.649663957078,0.748209863153,0.0808596056812,0.107612581626,0.111794075295,-0.385395504516,-0.00480560552056,0.0784282836455,-0.0417648750954,-0.315854210933,1.17440569401,0.459274888039,1.55641937256,-0.120669923723,0.871583640575,-0.112000204623
2017/07/09/09:33:04.619592,236928,1499563987,418932012,,0.84263563089,0.432639363254,0.254387709049,0.651102221925,0.746861488431,0.0810452223868,0.108145668572,0.109289783652,-0.368707329677,-0.0169612822427,0.105345505917,-0.0442244505863,-0.403244909484,1.75242614746,0.786940872669,1.61607527733,-0.219620451331,1.10457372665,-0.141236200929
2017/07/09/09:33:04.629546,236929,1499563987,428921614,,0.843530889836,0.42872363554,0.253597443161,0.652295045673,0.745838646991,0.0808764521481,0.10814289405,0.111610201113,-0.37992543695,-0.0122090725408,0.0986963764374,-0.0563213372487,-0.421661997258,1.95684671402,0.811141848564,1.77815926075,-0.248851716518,1.19562709332,-0.174358993769
2017/07/09/09:33:04.639585,236930,1499563987,438929006,,0.844728630542,0.425187837811,0.253497208332,0.653766972222,0.744519608908,0.0813116690324,0.108017176702,0.106238610197,-0.36157868787,-0.0138378201987,0.104751022122,-0.0575309261706,-0.336704447495,1.69500946999,0.695758342743,1.70628881454,-0.221104994416,1.08206892014,-0.134419322014
2017/07/09/09:33:04.649631,236931,1499563987,448922454,,0.84553697929,0.421857129612,0.253349206341,0.654994996231,0.74341405434,0.0815687838076,0.107998297353,0.118770497251,-0.400356318056,-0.0298227343525,0.0933083945568,-0.057979749212,-0.389937443248,1.66886806488,0.33155426383,1.4692414999,-0.144732326269,1.01836466789,-0.085834890604
2017/07/09/09:33:04.659880,236932,1499563987,458930314,,0.846864439682,0.417937448583,0.253480618486,0.655886254976,0.742543934903,0.0820926567835,0.108178190841,0.123755717394,-0.357473894055,-0.000434561751309,0.107824764942,-0.103217798031,-0.286070390447,1.79646360874,0.435033619404,1.47395288944,-0.265638828278,1.04233193398,-0.0723538994789
2017/07/09/09:33:04.669686,236933,1499563987,468929207,,0.847780573424,0.415093990691,0.253654941233,0.656288618562,0.742087380903,0.0824563137103,0.108593391054,0.110589488283,-0.384297811761,-0.00840636586889,0.0342854218832,-0.0727426129901,-0.253945939999,1.62388801575,0.721037745476,1.25373649597,-0.44598659873,0.901161730289,-0.162914514542
2017/07/09/09:33:04.679518,236934,1499563987,478921036,,0.84875650503,0.410096729282,0.253426623174,0.657612498734,0.740879845478,0.0819135983834,0.109238356237,0.104604333556,-0.381577583297,-0.00493929902224,0.00570692770092,-0.0829659243714,-0.223407733982,1.9263150692,0.593841314316,1.31808269024,-0.411375284195,1.00035500526,-0.172194957733
2017/07/09/09:33:04.689575,236935,1499563987,488923621,,0.850126862195,0.407024235744,0.253490915838,0.658010986866,0.740393964194,0.0825185809525,0.109676810435,0.105829217834,-0.377865041746,-0.011533846077,-0.0144476541934,-0.0829495911543,-0.215118520237,2.08972406387,0.851023077965,1.28694701195,-0.523295998573,1.04710865021,-0.236928403378
2017/07/09/09:33:04.699562,236936,1499563987,498922771,,0.850865237873,0.403161644323,0.253377246881,0.659055090817,0.739431162818,0.0823737589906,0.110011392826,0.112270662814,-0.382006342277,0.00448927073074,-0.0223280384846,-0.111988676563,-0.231409315819,2.58052349091,0.708568096161,1.38614165783,-0.486552923918,1.23927390575,-0.25243383646
2017/07/09/09:33:04.709667,236937,1499563987,508934267,,0.852265550049,0.399507053821,0.25354729367,0.658997522907,0.739321869606,0.0825214406491,0.110975897189,0.097051768036,-0.385377929149,-0.0123138139717,-0.0500606522575,-0.0686000464448,-0.182683970352,2.33863925934,0.480924129486,1.5558488369,-0.326707601547,1.22092032433,-0.180862307549
2017/07/09/09:33:04.719545,236938,1499563987,518929080,,0.853208581249,0.394249877391,0.252660390452,0.659860150658,0.738554872681,0.0817626976073,0.111517455556,0.103467713098,-0.399965597503,-0.0146781665107,-0.0884562034535,-0.077669075326,-0.0966032429083,2.30542016029,0.544881463051,1.49427771568,-0.390836507082,1.22991669178,-0.21897944808
2017/07/09/09:33:04.729565,236939,1499563987,528926780,,0.854519378297,0.390568860276,0.253478540456,0.659697081277,0.738492002403,0.0819801856889,0.112732304581,0.0941367316034,-0.412400903231,-0.0218812574046,-0.12395519689,-0.0461450321477,-0.0259223162837,2.69308614731,0.795534789562,1.36228823662,-0.497900694609,1.32274162769,-0.291142553091
2017/07/09/09:33:04.739663,236940,1499563987,538930183,,0.855034900889,0.387364326871,0.253141878221,0.659802275799,0.738391689649,0.0817150717303,0.11296599736,0.105371646381,-0.42689373875,-0.00441985365968,-0.14141048931,-0.0937426551119,-0.0625739018069,2.12594199181,0.589740276337,1.42392778397,-0.385661274195,1.16081416607,-0.208860903978
2017/07/09/09:33:04.749340,236941,1499563987,548922125,,0.856121072317,0.382532077368,0.253454236187,0.661536563886,0.73674285042,0.0816783058776,0.113613385418,0.0987945203878,-0.428156634657,-0.00515410106625,-0.0817904234285,-0.0820217641285,-0.231973017835,2.46880578995,0.873141348362,1.46832287312,-0.543976902962,1.27509701252,-0.318202584982
2017/07/09/09:33:04.759645,236942,1499563987,558930116,,0.856898550723,0.379875840129,0.253198006775,0.662642717591,0.735688978777,0.0819747782682,0.113782648316,0.0859603682103,-0.400656475799,-0.0176585236693,-0.0187939325895,-0.051241608823,-0.362097644935,2.1703851223,0.785047292709,1.3440207243,-0.449432104826,1.13795721531,-0.2389870435
2017/07/09/09:33:04.769682,236943,1499563987,568929028,,0.857394635134,0.376834737382,0.252709680071,0.663953509281,0.734546310116,0.0817121917209,0.113712679733,0.0740382633515,-0.370847547411,-0.0154297995911,0.0154122652684,-0.0414083984098,-0.41866683727,1.86678445339,0.379944205284,1.24807298183,-0.284197032452,0.987071275711,-0.197439879179
2017/07/09/09:33:04.779933,236944,1499563987,578927991,,0.858178703468,0.372026116274,0.252176145967,0.665874824623,0.73278662134,0.0811496521119,0.1142331803,0.0741501986744,-0.380948507923,-0.0154989496499,0.0330095046848,-0.0394513680737,-0.459068343327,1.93298482895,0.530741155148,1.32288777828,-0.30817759037,0.985410571098,-0.213821232319
2017/07/09/09:33:04.789654,236945,1499563987,588932655,,0.859473281397,0.36785240638,0.253428891515,0.667272187204,0.731297527785,0.0819401831848,0.115054597562,0.0813579532587,-0.45298029998,-0.00335332152977,-0.0362756598088,-0.0516174778031,-0.480170019457,1.66967737675,0.27451145649,1.45624172688,-0.210103303194,0.96104580164,-0.170547142625
2017/07/09/09:33:04.799698,236946,1499563987,598925336,,0.859483878015,0.363841474841,0.252397936797,0.668217448233,0.730581152435,0.0807208409142,0.114981596036,0.0693479117409,-0.418086095277,-0.00998901728237,-0.0469233453309,-0.0352390836897,-0.344322046195,1.73140740395,0.576823890209,1.60022509098,-0.332440853119,1.0440518856,-0.27899825573
2017/07/09/09:33:04.809652,236947,1499563987,608929997,,0.860545126727,0.360045111485,0.252562623641,0.669797406276,0.728996715803,0.0810631613329,0.115602710908,0.0792308257035,-0.403895853946,-0.00415388942866,-0.0291834828571,-0.0656589714217,-0.348133554838,1.72593414783,0.598229587078,1.82082295418,-0.386424362659,1.14297127724,-0.306118249893
2017/07/09/09:33:04.819598,236948,1499563987,618928333,,0.860944607952,0.356395834093,0.251745570928,0.671701497819,0.727344208621,0.0807588409306,0.115175994135,0.0749930799951,-0.387064532761,-0.00325230344844,0.00410737868506,-0.0651204760218,-0.417752390446,0.886088609695,0.607357740402,1.76735043526,-0.426740437746,0.854588031769,-0.310389876366
2017/07/09/09:33:04.829773,236949,1499563987,628923109,,0.86198758586,0.352345676014,0.252299729458,0.673405696024,0.725559752033,0.0809684607926,0.11632679463,0.0723523024317,-0.40323830024,-0.00722658384165,-0.000594259033918,-0.0591930464468,-0.500514178181,0.960773587227,0.585291683674,1.6747430563,-0.432219713926,0.846199393272,-0.330437242985
2017/07/09/09:33:04.839717,236950,1499563987,638926274,,0.862078381937,0.348881443862,0.251993022064,0.674843371803,0.724295153183,0.0805485558338,0.116167485819,0.0637832750128,-0.403785969284,-0.014618141943,0.00764224067447,-0.0444238058076,-0.501214643,0.185027122498,0.271854400635,1.37687754631,-0.235303923488,0.469635248184,-0.253800183535
2017/07/09/09:33:04.849556,236951,1499563987,648927187,,0.863111204114,0.344245034588,0.251961514315,0.676907433968,0.722256392743,0.0804807868302,0.116896843124,0.0635647515147,-0.390115932297,-0.00433743844426,0.0246914590859,-0.0505132477636,-0.491294687257,0.387233883142,0.247446194291,1.41051721573,-0.18686671555,0.518176138401,-0.210584253073
2017/07/09/09:33:04.859887,236952,1499563987,658936986,,0.863716818301,0.341528618972,0.252394103799,0.678123813663,0.721032172767,0.0811097769447,0.116969668129,0.0673881635833,-0.401181578401,0.00197162241224,0.0269150961287,-0.0709850422592,-0.497850532387,0.377835690975,0.379780590534,1.38607251644,-0.25146907568,0.464319616556,-0.249971419573
2017/07/09/09:33:04.869654,236953,1499563987,668927896,,0.864456455687,0.337175101338,0.252500847479,0.680248567746,0.718943055545,0.0810622812912,0.117523085029,0.0523432971769,-0.416114136011,-0.0131405437569,0.0244325939012,-0.032819543179,-0.532879869642,0.937749266624,0.56508910656,1.61325871944,-0.365336060524,0.696049690247,-0.319360733032
2017/07/09/09:33:04.879723,236954,1499563987,678927352,,0.865033766617,0.333596280984,0.252122300116,0.681415328113,0.717781667959,0.080623921656,0.118162646431,0.0682776508141,-0.398909669408,-0.00839388750159,0.0144837332049,-0.0768271910294,-0.488213873175,0.954506158829,0.545346617699,1.70698750019,-0.301769942045,0.763359427452,-0.308458536863
2017/07/09/09:33:04.889643,236955,1499563987,688929783,,0.865958997089,0.329314949914,0.252242010581,0.683524401953,0.715635848991,0.0813628632684,0.118489695984,0.0815519807255,-0.405936189378,0.0105572185617,0.0177372221488,-0.124344906854,-0.485858112144,0.328477025032,0.427624285221,1.58555686474,-0.289287090302,0.555004656315,-0.328994899988
2017/07/09/09:33:04.899661,236956,1499563987,698930792,,0.866770487817,0.324789927048,0.252099191152,0.685348137843,0.713772336043,0.080959127021,0.119467995748,0.0776465410896,-0.398959665299,0.00798448137181,0.0207502149064,-0.125818457692,-0.473371653265,-0.192954853177,0.422595411539,1.46331834793,-0.266827613115,0.414364159107,-0.314239144325
2017/07/09/09:33:04.909705,236957,1499563987,708924314,,0.867075964351,0.321560820382,0.251612646335,0.686739363309,0.712454825781,0.0809954133511,0.119318527985,0.071645725279,-0.417998330076,-0.00748535658903,-9.00359378895e-05,-0.104430280028,-0.507277809225,-0.684703171253,0.395819276571,1.51668441296,-0.294044613838,0.298755049706,-0.339542508125
2017/07/09/09:33:04.919625,236958,1499563987,718930267,,0.86777460057,0.31849453949,0.251391120381,0.688157075508,0.711015913755,0.081682105594,0.119265432715,0.0729239402083,-0.379476366914,0.00346828736306,0.0499378258791,-0.128668815573,-0.481248090977,-0.442538797855,0.328716993332,1.68098163605,-0.241391450167,0.424300849438,-0.324490129948
2017/07/09/09:33:04.929786,236959,1499563987,728930060,,0.868935910497,0.314110136848,0.252172304338,0.690068877657,0.708871446339,0.0821670655462,0.120643234348,0.0712383851868,-0.396456947667,-0.0159969178436,0.0427643613339,-0.110004424244,-0.476696604534,0.799765348434,0.484233796597,1.69705212116,-0.363356471062,0.844736993313,-0.397246181965
2017/07/09/09:33:04.939719,236960,1499563987,738931338,,0.869019371686,0.310232579427,0.251161119132,0.691507931337,0.707577298227,0.0813089114813,0.120581959042,0.0693722241008,-0.396611599756,-0.00872632105642,0.0413141026286,-0.111714427773,-0.470126671057,0.0524289906025,0.289625108242,1.40359115601,-0.188104391098,0.446221411228,-0.316867291927
2017/07/09/09:33:04.949716,236961,1499563987,748923597,,0.869837758865,0.307746880838,0.251940242084,0.692574521184,0.706308556,0.082620795692,0.121006447955,0.059402863801,-0.364138668269,0.00305717830132,0.0421977429883,-0.110838958984,-0.433844679433,0.449380487204,0.449802607298,1.31692433357,-0.355142235756,0.485597670078,-0.375069737434
2017/07/09/09:33:04.959630,236962,1499563987,758929759,,0.870711368166,0.303551353495,0.251794597019,0.694554621432,0.704222314338,0.0828451487651,0.121661379089,0.0679678724719,-0.380268414333,-0.00347230136404,0.0405735230397,-0.131959117995,-0.475351878172,0.391034305096,0.564024806023,1.24137461185,-0.41374206543,0.427271455526,-0.433009147644
2017/07/09/09:33:04.969670,236963,1499563987,768959897,,0.871658259966,0.298775984009,0.251701879831,0.696406107579,0.702185551122,0.0830224062775,0.122724346317,0.082618611959,-0.391177859768,0.0138431438739,0.0319033342567,-0.188561214822,-0.47912257537,0.607252597809,0.598352491856,1.42525422573,-0.483612984419,0.570388138294,-0.457501471043
2017/07/09/09:33:04.979795,236964,1499563987,778928748,,0.872076712915,0.297035617017,0.25199653949,0.696924846534,0.701539373479,0.0838372065659,0.122921066289,0.0807016152498,-0.392327129636,-0.00370669288964,0.018245390705,-0.166350882429,-0.463207024687,1.06659686565,0.809584975243,1.41247820854,-0.564392328262,0.781969130039,-0.501960992813
2017/07/09/09:33:04.989784,236965,1499563987,788929279,,0.873139883575,0.292639111729,0.251593241823,0.698622849991,0.699663840508,0.0843282580244,0.123634010913,0.0771403439219,-0.379213271302,-0.00896746279634,0.0350748654406,-0.161111693737,-0.425485252446,0.568760037422,0.716695785522,1.29258537292,-0.493989646435,0.625817239285,-0.461917459965
2017/07/09/09:33:04.999740,236966,1499563987,798933082,,0.873627422923,0.289559042412,0.2512876623,0.699679504717,0.698506172154,0.0846299917471,0.123997913848,0.0806247981615,-0.393628960037,0.00164120152227,0.0101001547018,-0.185013840306,-0.427488501562,0.328269302845,0.34813529253,1.37549340725,-0.362457603216,0.584218025208,-0.387469112873
2017/07/09/09:33:05.009424,236967,1499563987,808923116,,0.874826136667,0.285404776054,0.251822369243,0.700939631509,0.696910759509,0.0851303357459,0.125506383089,0.0859366120593,-0.406882856502,0.0083230989988,-0.00765137006924,-0.205891791666,-0.399862528362,0.0257116705179,0.441951900721,1.0889210701,-0.412029534578,0.393263757229,-0.423994004726
2017/07/09/09:33:05.019820,236968,1499563987,818928057,,0.87497809297,0.28311761643,0.251645189375,0.701320089917,0.696525195947,0.0854980999517,0.125271137119,0.0653497756218,-0.35523776514,-0.00550572164881,-0.013755479868,-0.156083326106,-0.303162623424,-0.260370790958,0.431207180023,0.815480649471,-0.383176892996,0.205163389444,-0.370319753885
2017/07/09/09:33:05.029639,236969,1499563987,828923066,,0.875750070465,0.27733164079,0.251752365292,0.703012377827,0.694579369173,0.0851308701231,0.126829931383,0.0614820094728,-0.370795793242,-0.00163756503029,-0.0178540013892,-0.155126275294,-0.283439040333,-0.151903763413,0.579347789288,0.623764336109,-0.469231307507,0.155972510576,-0.428685188293
2017/07/09/09:33:05.039664,236970,1499563987,838929989,,0.876309495824,0.273938780702,0.25126218085,0.703484347722,0.69397378934,0.0852172269975,0.127468335054,0.0579679500738,-0.386289492588,-0.00599429859268,-0.048486013431,-0.145507969005,-0.272108319173,0.113669469953,0.605860710144,0.711137056351,-0.434511005878,0.215915560722,-0.428064823151
2017/07/09/09:33:05.049662,236971,1499563987,848930153,,0.876680914324,0.271074514205,0.250839578879,0.704221270938,0.693165397165,0.0854313180013,0.127654313032,0.0433470768994,-0.349889262054,-0.0424010666094,-0.0287622507895,-0.087041504388,-0.224559857401,0.514468610287,0.589255094528,0.829999566078,-0.423563718796,0.384607553482,-0.456277251244
2017/07/09/09:33:05.059881,236972,1499563987,858930166,,0.877523216381,0.267473587516,0.251317240342,0.704535233315,0.692545312666,0.0857328419077,0.129077398257,0.0491129779526,-0.322107580011,-0.0305812345649,-0.0365393360049,-0.108261642466,-0.132967854468,0.371861428022,0.718023777008,0.775640845299,-0.51049810648,0.365478754044,-0.529544591904
2017/07/09/09:33:05.069781,236973,1499563987,868924658,,0.877431012177,0.264447385746,0.250382073737,0.704451128452,0.692676083395,0.0853269456833,0.129103692651,0.0442107004205,-0.341987680223,-0.0288981090494,-0.0549229964178,-0.100840700429,-0.12155900861,0.0670525282621,0.751281261444,0.927502810955,-0.485373169184,0.339532583952,-0.483267724514
2017/07/09/09:33:05.079680,236974,1499563987,878930269,,0.877964288317,0.26042147858,0.25007685791,0.70492893362,0.692023122475,0.0851954729357,0.130080467009,0.034816791374,-0.361077948163,-0.0375309218879,-0.103806579482,-0.0806289097241,-0.110182997472,-0.401682198048,0.495788991451,0.863081395626,-0.42182675004,0.165521636605,-0.466673582792
2017/07/09/09:33:05.089685,236975,1499563987,888937399,,0.877930717149,0.258653665945,0.249812145142,0.704538991715,0.692433818722,0.0854276239937,0.129855061133,0.0173263599405,-0.36553211058,-0.058358900348,-0.100793972974,-0.0248947003023,-0.0827642873217,0.0584214031696,0.496106207371,0.910096824169,-0.396411240101,0.370362609625,-0.422518968582
2017/07/09/09:33:05.099398,236976,1499563987,898929520,,0.878126455442,0.25396063529,0.249321195932,0.704702204366,0.692185917093,0.0845814904387,0.130841242789,0.00963313215613,-0.356136075621,-0.0441976074042,-0.0927748683281,-0.0252502085238,-0.0339232455368,-0.145236551762,0.606135845184,0.863726198673,-0.362488478422,0.268309623003,-0.408304333687
2017/07/09/09:33:05.109621,236977,1499563987,908925228,,0.877583140714,0.251218033305,0.248338333674,0.704503613879,0.692544791369,0.0838911185473,0.130455548781,-0.000952322266068,-0.343283202241,-0.045782667056,-0.129846007578,3.50083415721e-05,0.0315327863164,-0.566601753235,0.366102874279,0.620408535004,-0.351276695728,0.0114388167858,-0.43058693409
2017/07/09/09:33:05.119543,236978,1499563987,918929731,,0.877561977585,0.24805240981,0.248103972562,0.70381156099,0.693192589811,0.0834136620127,0.131055259478,-0.00566165172494,-0.356085138452,-0.0477411324148,-0.158235091296,0.0153622037811,0.0622779855898,-2.03167963028,-2.67151618004,0.219666287303,0.328456193209,-0.529072642326,-0.156605243683
2017/07/09/09:33:05.129570,236979,1499563987,928921386,,0.877452796802,0.243992483118,0.246845542672,0.703446855507,0.693601959159,0.0825025417005,0.13142364453,-0.0219517233918,-0.363060311806,-0.0727764532767,-0.181159714176,0.0685348902599,0.105427506987,-2.13301610947,-1.67728996277,0.136935129762,0.085331171751,-0.611089527607,-0.23746971786
2017/07/09/09:33:05.139961,236980,1499563987,938927576,,0.877190977104,0.240999179724,0.246248620663,0.702669578181,0.694427817263,0.0817654463111,0.131680986859,-0.0366589021929,-0.343306884254,-0.085449288872,-0.192436314997,0.104459240415,0.188599671599,-1.94524073601,-1.01526331902,0.248411625624,0.116533324122,-0.516820907593,-0.157421454787
2017/07/09/09:33:05.149749,236981,1499563987,948938055,,0.877144010102,0.238282270194,0.246101689242,0.701182294844,0.695882360325,0.0815257867394,0.132078295272,-0.0234266815853,-0.334580631564,-0.0822379375871,-0.193348677491,0.0780397559885,0.261095871849,-1.23601424694,-1.7425391674,1.338509202,0.463057935238,-0.103177130222,-0.0388692319393
2017/07/09/09:33:05.159697,236982,1499563987,958930120,,0.876671102691,0.234620108325,0.244945581427,0.700131654178,0.697017193612,0.0801189926775,0.132527905137,-0.0211814164325,-0.335731050115,-0.0692882381144,-0.225799207729,0.0646392863901,0.305131749122,-2.08588647842,-1.51748371124,0.942880511284,0.380715727806,-0.381532907486,-0.00782173871994
2017/07/09/09:33:05.169617,236983,1499563987,968926756,,0.876324545842,0.230782561097,0.244077760143,0.698989564204,0.698212176571,0.0787991270406,0.133056541361,-0.0299421986427,-0.346117014597,-0.0642138896477,-0.272157688854,0.0901139275484,0.344404055697,-1.89003002644,-1.40097057819,0.61771351099,0.132747322321,-0.42138749361,-0.138247400522
2017/07/09/09:33:05.179783,236984,1499563987,978932737,,0.876235951755,0.227863692708,0.243343000914,0.697354436075,0.699878621681,0.0780310452321,0.133333646842,-0.0433210054518,-0.340872261214,-0.0885710464719,-0.287202485119,0.140985457907,0.382543568626,-0.725910246372,0.942103624344,0.109554424882,-1.28549516201,-0.134026050568,-0.811729073524
2017/07/09/09:33:05.189736,236985,1499563987,988924066,,0.875688546744,0.224379950256,0.242357522182,0.696105175085,0.701233082202,0.0766082083044,0.133569951958,-0.0356665516739,-0.316988602484,-0.095392395139,-0.273515510721,0.148286870817,0.4191987968,0.0968423634768,2.99977588654,-0.0900253728032,-2.16127586365,0.078988596797,-1.13353145123
2017/07/09/09:33:05.199739,236986,1499563987,998926448,,0.87528229196,0.222106596988,0.241461907918,0.694253363321,0.703200715943,0.0756213325756,0.133425764654,-0.0472727369475,-0.32047716041,-0.0968040703947,-0.276059225028,0.178770701637,0.427632169263,-0.557180345058,3.06185913086,-0.251932233572,-2.05717086792,-0.156166672707,-1.01215839386
2017/07/09/09:33:05.209848,236987,1499563988,8930770,,0.874144929585,0.217457857081,0.240213305653,0.693146272408,0.704496432504,0.0730070469201,0.133802065517,-0.0501366695131,-0.330674545305,-0.087958633452,-0.279020648918,0.180873137233,0.433723179012,-0.505924403667,1.01061797142,0.138769328594,-1.09220659733,-0.000997755676508,-0.539134323597
2017/07/09/09:33:05.219686,236988,1499563988,18925153,,0.874025744374,0.213795232661,0.240287319774,0.691094427004,0.706451114734,0.0716477161896,0.13484035086,-0.0600603880349,-0.37556265284,-0.0778009223015,-0.36982883704,0.196280472579,0.455073743751,-0.501063644886,-0.739189147949,0.366718143225,-0.380901217461,-0.00684994831681,-0.259836643934
2017/07/09/09:33:05.229519,236989,1499563988,28930668,,0.873458929012,0.211030999428,0.239736596394,0.68894527918,0.708609910517,0.0702685516533,0.135235822405,-0.0495231804268,-0.389218757709,-0.064550157768,-0.436032316078,0.178583279055,0.493929645876,-1.35882997513,-0.750024855137,0.231098160148,-0.109731085598,-0.322758644819,-0.0948572829366
2017/07/09/09:33:05.239483,236990,1499563988,38923367,,0.872604777753,0.207735751664,0.238986604741,0.686527617091,0.711065804388,0.0677942716668,0.135901396357,-0.0596856508775,-0.366437248651,-0.0658056098091,-0.472179874094,0.205260469259,0.553521335345,-1.97386467457,-0.201161667705,0.371425062418,-0.164266780019,-0.529989600182,-0.0802337229252
2017/07/09/09:33:05.249632,236991,1499563988,48922893,,0.871944705749,0.204780709724,0.237572636565,0.68464339192,0.713054645894,0.0658661184388,0.13593436766,-0.0619840388588,-0.335916805451,-0.0634459884372,-0.501483120197,0.210923079941,0.605336219123,-2.61761856079,-0.0668549388647,-0.0813104882836,-0.459030091763,-0.861873745918,-0.185592442751
2017/07/09/09:33:05.259723,236992,1499563988,58923348,,0.871567638668,0.201589723155,0.237002412664,0.683283694873,0.714368421664,0.064297579673,0.136627126508,-0.0605732634635,-0.345765719349,-0.0793089501595,-0.432849433406,0.218689610071,0.494331170291,-1.85652816296,-0.165204495192,0.196242421865,-0.288890719414,-0.551993012428,-0.173737734556
2017/07/09/09:33:05.269676,236993,1499563988,68939286,,0.871187003098,0.197742759219,0.236302432874,0.683126353778,0.714561110734,0.0630588730724,0.136983146144,-0.0588394176719,-0.326221519229,-0.084893443854,-0.326097416865,0.198938417038,0.338669641161,-1.18576169014,-0.00740097463131,0.0731695368886,-0.219329953194,-0.264887958765,-0.178158521652
2017/07/09/09:33:05.281319,236994,1499563988,78922885,,0.871065426846,0.194876148209,0.236502442488,0.682400523885,0.715168444513,0.0622695981433,0.13779012345,-0.0562806246824,-0.318239606575,-0.0818513615491,-0.251291033496,0.175530180363,0.15436317213,-1.16347265244,-0.24440985918,0.617361485958,0.097832262516,-0.149595677853,-0.0377384237945
2017/07/09/09:33:05.289749,236995,1499563988,88929966,,0.870745833424,0.192093330768,0.235281999952,0.680679711707,0.716909142863,0.0610194667234,0.137815222783,-0.0308569784553,-0.319724607589,-0.04999108769,-0.217371936689,0.0969760194856,0.144234071596,-1.71420991421,-0.3016705513,0.317442119122,0.161317363381,-0.335976421833,0.0667015165091
2017/07/09/09:33:05.299584,236996,1499563988,98929750,,0.869828463666,0.188848918149,0.234004902976,0.679147451924,0.718579884451,0.0592827134628,0.137430884786,-0.0438703142196,-0.325289660779,-0.0744899923475,-0.262597553447,0.166605388489,0.335134669354,-3.03017711639,-0.218772605062,-0.276934593916,0.0909922420979,-0.791407644749,0.120875388384
2017/07/09/09:33:05.309971,236997,1499563988,108926265,,0.869817314419,0.186012275169,0.233809116247,0.677929188792,0.719677176703,0.058566345387,0.138009997842,-0.0576546263419,-0.315414142316,-0.0871913499199,-0.292111321508,0.219322364404,0.411322274133,-3.34840869904,0.204753369093,-0.0797070488334,-0.100299485028,-1.0604506731,0.0792711526155
2017/07/09/09:33:05.319716,236998,1499563988,118929865,,0.869199936965,0.184250665149,0.232831058215,0.676130867765,0.721548999288,0.0575061298902,0.137503222898,-0.04742873162,-0.27572488156,-0.0740051518899,-0.236559156039,0.187875939782,0.414469823862,-4.65321159363,0.137777239084,0.351258456707,0.0135474279523,-1.4488414526,0.167809128761
2017/07/09/09:33:05.329622,236999,1499563988,128931041,,0.868798461369,0.181305031864,0.232651990297,0.674991834306,0.722612713871,0.0562883870177,0.138016328236,-0.0371943403386,-0.268616900663,-0.0717883071428,-0.210279302717,0.161034502366,0.373413155287,-3.86933279037,0.108275607228,0.56191432476,0.0153698734939,-1.05884742737,0.128199964762
2017/07/09/09:33:05.339529,237000,1499563988,138924660,,0.868498615464,0.178272000565,0.231477435538,0.674921209612,0.722799374074,0.0555200992697,0.137695113316,-0.0392598303363,-0.266677488763,-0.0793509924448,-0.178336743919,0.169749114309,0.293859994639,-4.04603385925,0.0480551533401,0.515152931213,0.163995712996,-1.19261050224,0.193466201425
2017/07/09/09:33:05.349944,237001,1499563988,148924494,,0.868245975034,0.176011364552,0.231506231225,0.673525311365,0.724140513266,0.0548308668276,0.137759747535,-0.0338162665278,-0.27242122934,-0.0816504316576,-0.177567055663,0.155639121683,0.268355799471,-3.88218736649,-0.370891302824,0.382698565722,0.182149291039,-1.15710914135,0.205609172583
2017/07/09/09:33:05.359757,237002,1499563988,158929315,,0.868046863291,0.17410956777,0.230203972951,0.672957585031,0.724773598223,0.0540796581875,0.137501675036,-0.0302258602823,-0.269310484369,-0.0739274834934,-0.129197968746,0.130284488912,0.190849858403,-4.43076133728,0.226143300533,-0.342396974564,0.0821122974157,-1.40201103687,0.205924481153
2017/07/09/09:33:05.369807,237003,1499563988,168937950,,0.867564710431,0.17046420332,0.229085520892,0.672840651179,0.724973520175,0.0528121932976,0.137512637258,-0.025346980123,-0.257691309502,-0.0635590564221,-0.134840274933,0.110010657787,0.130626372564,-5.49334287643,-0.0632343962789,-0.919567406178,0.0839036405087,-1.78029704094,0.275161296129
2017/07/09/09:33:05.379828,237004,1499563988,178929652,,0.867798465752,0.1682182206,0.229011308424,0.672781844082,0.724969627323,0.0529309172425,0.137774989502,-0.020079612835,-0.260445424284,-0.0689299483771,-0.111089317925,0.0945999055368,0.0626858974309,-6.41373538971,-0.0211136862636,-0.639352083206,0.0954160168767,-2.13408041,0.336667925119
2017/07/09/09:33:05.389678,237005,1499563988,188930391,,0.867441997891,0.165499375805,0.228216296592,0.673499308926,0.724381597146,0.0524473277205,0.13754730244,-0.0176542307819,-0.268509866126,-0.0747813307324,-0.0718616364372,0.0804879940951,-0.00941654530491,-7.11458492279,-0.370240747929,-0.756328463554,0.118030801415,-2.31280851364,0.341895401478
2017/07/09/09:33:05.399407,237006,1499563988,198922669,,0.86736800837,0.162886149611,0.227350411908,0.673502176323,0.724388571878,0.0516321454183,0.13780470594,-0.00501626036159,-0.272477327999,-0.0564754160112,-0.0437456937951,0.016055502887,-0.101862665213,-7.55061864853,0.215890079737,-0.566977143288,0.0434557311237,-2.37534165382,0.332066893578
2017/07/09/09:33:05.409427,237007,1499563988,208932311,,0.867920119955,0.159826315837,0.227473612412,0.674537632291,0.723250068863,0.0519527721907,0.138597366406,0.00137029071338,-0.28317294749,-0.0541823311924,-0.0713776801554,-0.00620789556256,-0.141712704123,-7.48956012726,-0.505956947803,0.0160022228956,0.196662798524,-2.3535387516,0.307583868504
2017/07/09/09:33:05.419688,237008,1499563988,218929397,,0.867667178879,0.158293328078,0.226575218165,0.674737925656,0.723149336858,0.0517675593834,0.138216815468,-0.00712948696444,-0.275800431916,-0.0627523413186,-0.0494709155017,0.0156029924922,-0.193159022633,-8.06605148315,0.395129084587,-0.156187325716,0.121460795403,-2.55170965195,0.333702325821
2017/07/09/09:33:05.429758,237009,1499563988,228922247,,0.867368010839,0.155970411942,0.225956351599,0.675765131667,0.722256334246,0.0513886748308,0.13800898001,-0.0149869923944,-0.272339669473,-0.0766017801433,-0.0420249701023,0.0344575371918,-0.216922671818,-9.0491104126,0.890364587307,-0.651749372482,-0.0773224830627,-2.98559546471,0.283866077662
2017/07/09/09:33:05.439672,237010,1499563988,238929628,,0.867754503508,0.1523055975,0.225428517298,0.676571298063,0.721319922111,0.0511972389695,0.13902406743,0.00803483400834,-0.26857014632,-0.0683616759458,-0.0301623023474,-0.0305824141311,-0.249898945204,-9.64370346069,-0.150180548429,-0.89288175106,0.1421366781,-3.27522182465,0.41955730319
2017/07/09/09:33:05.449723,237011,1499563988,248929809,,0.868305915409,0.151449677487,0.224902958042,0.677182398189,0.720681969115,0.0517535819855,0.139151233295,0.0160997365652,-0.276925277401,-0.0581770789726,-0.0292679112135,-0.0628736469492,-0.29121153796,-8.72923469543,1.1143630743,-0.87587749958,-0.139443993568,-2.97217845917,0.271598666906
2017/07/09/09:33:05.459473,237012,1499563988,258948767,,0.867991661061,0.146897738399,0.224130865355,0.678680380146,0.719198218302,0.0504309204028,0.140012808925,0.0254855287839,-0.232808335187,-0.0571612700656,-0.036272165901,-0.078960362938,-0.221288315751,-9.19548797607,-0.227742671967,-0.78732585907,0.00255002453923,-3.12378811836,0.342685759068
2017/07/09/09:33:05.469654,237013,1499563988,268947326,,0.868700913738,0.14576373564,0.223905642881,0.679069173157,0.718688814119,0.0510402200721,0.140521679689,0.0338771021246,-0.250061776099,-0.0674678501217,-0.05076477013,-0.0907470611773,-0.259134193099,-8.31488800049,0.0113334693015,-0.734255611897,-0.102778851986,-2.87610602379,0.292756676674
2017/07/09/09:33:05.479659,237014,1499563988,278928809,,0.869343204617,0.143624453983,0.223318563931,0.67977908196,0.717861765118,0.0514918065096,0.141150557112,0.0346666031238,-0.26781058598,-0.0693813928873,-0.0759210387805,-0.0901523239843,-0.246895331222,-8.30612850189,0.318398177624,-0.62797164917,-0.158547922969,-2.90397620201,0.254300713539
2017/07/09/09:33:05.489680,237015,1499563988,288929035,,0.869422610314,0.141201651993,0.221914979599,0.680354151202,0.717294344259,0.050787712073,0.141519118633,0.0458173313246,-0.28082850877,-0.0621081410235,-0.0769726421031,-0.127836230144,-0.258977140808,-8.88523101807,0.621101140976,-1.30923497677,-0.17359161377,-3.11054992676,0.305178463459
2017/07/09/09:33:05.499780,237016,1499563988,298929527,,0.86994830663,0.136923304963,0.221482095827,0.68119452583,0.716241410998,0.0503422709133,0.142961235693,0.0326475394459,-0.288783890595,-0.0861878335234,-0.126858266913,-0.0774628713942,-0.230168346018,-8.82236480713,-0.0288967564702,-1.09681761265,-0.112726546824,-3.08552718163,0.285511344671
2017/07/09/09:33:05.509557,237017,1499563988,308925220,,0.870339850245,0.13435994926,0.220966290226,0.681874917987,0.71539489825,0.0498656520931,0.144118536349,0.0535936463245,-0.314700591968,-0.0563947481714,-0.151349951732,-0.148754332305,-0.256120865395,-8.77774429321,0.488962680101,-1.26898360252,-0.144179105759,-3.05359959602,0.267235547304
2017/07/09/09:33:05.519726,237018,1499563988,318924090,,0.870997669174,0.131508418861,0.220311050484,0.682431164201,0.714656829105,0.0497901468052,0.145169776545,0.0500313454308,-0.294403797129,-0.0565349354085,-0.170241949305,-0.139009218218,-0.222713804195,-8.3340845108,0.750931859016,-0.988006711006,-0.228263348341,-2.9420542717,0.172795280814
2017/07/09/09:33:05.529524,237019,1499563988,328922489,,0.87164936929,0.128696586535,0.219635185304,0.682396361277,0.714477500345,0.0495070700248,0.146308433231,0.0592689207948,-0.263737762563,-0.0670465823922,-0.16321510824,-0.13127609056,-0.142564736405,-8.22669887543,0.866961419582,-1.63827717304,-0.260954737663,-3.01185250282,0.187918156385
2017/07/09/09:33:05.539771,237020,1499563988,338930660,,0.871915723192,0.125935525009,0.218960587889,0.682618996185,0.714117742008,0.0488874165693,0.147231712269,0.0591227083792,-0.262322249612,-0.0711006426282,-0.187432031884,-0.116424464003,-0.0663824977729,-8.44730377197,0.141058072448,-1.54440438747,-0.156198278069,-3.09335970879,0.245675176382
2017/07/09/09:33:05.549786,237021,1499563988,348922418,,0.872316885635,0.123878017983,0.218344683891,0.68232743244,0.714239966718,0.0483718659126,0.148157711477,0.0560609850644,-0.26955567443,-0.0629817893773,-0.18606658936,-0.114654121432,-0.0702494951456,-7.86412382126,0.716256082058,-1.33894538879,-0.137149006128,-2.87355303764,0.256746530533
2017/07/09/09:33:05.559596,237022,1499563988,358935742,,0.873185639788,0.121788702863,0.217603562088,0.682583056039,0.713770250612,0.0482933358028,0.149265383352,0.0482911061299,-0.272628779668,-0.0655090110906,-0.196777218835,-0.0993943042171,-0.0964031250309,-7.79857969284,0.133695781231,-1.05033004284,-0.0931029543281,-2.80496406555,0.280042976141
2017/07/09/09:33:05.569710,237023,1499563988,368934620,,0.872666596488,0.117895072782,0.216196999953,0.683381111315,0.713040783426,0.0467925857344,0.149577912102,0.0528537022031,-0.272050211099,-0.0654161766764,-0.213456317366,-0.107799768489,-0.0954502611255,-7.72535848618,-0.120160847902,-1.34217107296,-0.089409135282,-2.66688013077,0.246066957712
2017/07/09/09:33:05.579783,237024,1499563988,378936567,,0.87339278491,0.114901321144,0.216114757945,0.683115416068,0.712977499704,0.046500894069,0.15117565974,0.0378737078266,-0.274156523297,-0.0825192755447,-0.200641963083,-0.0578371356987,-0.0788991843216,-7.48014068604,0.122757710516,-0.463647216558,-0.155801922083,-2.60284924507,0.224858760834
2017/07/09/09:33:05.589653,237025,1499563988,388948451,,0.874354047499,0.114457094742,0.215371815273,0.681600903803,0.714287298467,0.0467868711755,0.151739420944,0.0344004277542,-0.29397608294,-0.0892859024396,-0.257647891105,-0.029160030671,0.0443258274335,-7.64331197739,0.791263461113,-1.0549094677,-0.253387331963,-2.70537090302,0.174082741141
2017/07/09/09:33:05.599746,237026,1499563988,398936447,,0.874049138861,0.110827314367,0.214715349625,0.681895057313,0.713921465723,0.0451904324355,0.152620760081,0.0294746951878,-0.255626101342,-0.0741504879494,-0.267799686828,-0.00224840291782,0.154459061686,-7.83173656464,1.21253931522,-1.23120355606,-0.453059434891,-2.81835699081,0.0191203951836
2017/07/09/09:33:05.609631,237027,1499563988,408927279,,0.874731641098,0.107517139602,0.214878237268,0.682440277077,0.713066559727,0.0447791227738,0.154292513707,0.0335885290147,-0.246697025653,-0.0602123344035,-0.245227530708,-0.0386882960228,0.000473707351801,-7.31877565384,0.228555575013,-0.424220740795,-0.182785302401,-2.50812315941,0.0557798743248
2017/07/09/09:33:05.619656,237028,1499563988,418935498,,0.874876273531,0.105056231241,0.213485693726,0.682358273732,0.713057068549,0.0437335455733,0.154997355633,0.0407863570102,-0.283617569466,-0.052313207381,-0.247409056418,-0.0807380749732,-0.136743410869,-6.74993848801,0.329287409782,-0.986506223679,-0.20630222559,-2.20425701141,0.011415719986
2017/07/09/09:33:05.629791,237029,1499563988,428921948,,0.875288211536,0.102980965247,0.212827258319,0.682539664142,0.712747953656,0.0433251838475,0.15573339358,0.0322942377491,-0.264263635217,-0.0784133747664,-0.236837926753,-0.0402427828101,-0.103815269249,-5.87311077118,0.835099041462,-0.775867640972,-0.18547822535,-1.88636934757,0.0317320376635
2017/07/09/09:33:05.639704,237030,1499563988,438936042,,0.875575109782,0.100861840664,0.211981846709,0.682157491311,0.712998829617,0.0424385152945,0.156501752172,0.0406623150835,-0.28637196814,-0.063764473831,-0.23996902331,-0.0715562144488,-0.118942574631,-6.50507879257,0.711235284805,-1.22850501537,-0.218317210674,-2.21892094612,0.047134205699
2017/07/09/09:33:05.649832,237031,1499563988,448935080,,0.876072704797,0.0979755099912,0.211710942839,0.682655904137,0.712288413954,0.0417428261301,0.157745581114,0.035427501812,-0.268954236046,-0.0677841707991,-0.247694647491,-0.0368779088693,-0.0831437525909,-6.99253129959,1.13252663612,-1.10674011707,-0.364550948143,-2.48667287827,0.0423283725977
2017/07/09/09:33:05.659655,237032,1499563988,458944301,,0.876925109891,0.0954952825649,0.211643443562,0.682636634402,0.712013513552,0.0413633261558,0.159163617518,0.0396497396121,-0.245131413162,-0.0705500430678,-0.235988167614,-0.0300436851015,-0.0675781829621,-6.60838985443,0.407934725285,-0.858284771442,-0.227585807443,-2.36642193794,0.0884097367525
2017/07/09/09:33:05.669796,237033,1499563988,468938471,,0.876887914002,0.0927052348205,0.210160755523,0.68292622743,0.71171017593,0.0402161237969,0.159571478505,0.030444715634,-0.264060633799,-0.0671358761824,-0.250674276313,-0.0184637285695,-0.0775280797962,-6.41639232635,0.30020493269,-1.00834226608,-0.260726094246,-2.30063509941,0.0424656569958
2017/07/09/09:33:05.679769,237034,1499563988,478928128,,0.877569370155,0.0900366538272,0.210093944574,0.682928971058,0.711435139801,0.0396576357257,0.160920273035,0.0546424124718,-0.24854676184,-0.0420982385358,-0.23001258752,-0.0798758448275,-0.0596746064665,-5.76402950287,0.20053550601,-0.464600145817,-0.232923328876,-2.05849027634,0.036584213376
2017/07/09/09:33:05.689807,237035,1499563988,488936259,,0.877911327986,0.0890277162941,0.209440313405,0.682346797892,0.711948779418,0.0389643286664,0.161287209606,0.0456165739783,-0.279948567892,-0.0242731313686,-0.284617214671,-0.0623237708156,-0.0526218367669,-5.19003534317,1.36243844032,-1.43945527077,-0.53838133812,-1.89510762691,-0.12554743886
2017/07/09/09:33:05.699834,237036,1499563988,498938065,,0.878562566903,0.0869314065254,0.209350084892,0.682015192705,0.712035908141,0.0383977413175,0.162436928989,0.0345888544013,-0.247103023154,-0.0480123071746,-0.256639273103,-0.00913459469448,-0.00764419839666,-5.29316139221,0.848108410835,-0.695235133171,-0.3384360075,-1.93608748913,-0.00920249521732
2017/07/09/09:33:05.709432,237037,1499563988,508926672,,0.878616432373,0.0834349347154,0.208687849249,0.682330024224,0.711606113402,0.0373981524043,0.163229456926,0.0302954922193,-0.266775072775,-0.0529606600683,-0.257252902396,0.00208288651485,-0.0381434972605,-5.69097757339,0.735178470612,-1.12307906151,-0.296405792236,-2.00814247131,0.0239498317242
2017/07/09/09:33:05.719626,237038,1499563988,518925862,,0.879221457546,0.0823493940523,0.208728590286,0.681606337037,0.712167441369,0.0370343806044,0.163886519942,0.0389699920311,-0.257135775376,-0.0485426672427,-0.262412784061,-0.00743698991474,-0.015813169298,-4.68783903122,1.43172430992,-0.883479714394,-0.379750549793,-1.65264439583,-0.0158257931471
2017/07/09/09:33:05.729653,237039,1499563988,528935561,,0.879863122658,0.0799116317609,0.208030960844,0.681489802374,0.712091267949,0.03611471864,0.164904222104,0.0492285796763,-0.25072657607,-0.0202996821604,-0.261313474053,-0.0400223618055,0.00797567291145,-4.39979124069,1.41511154175,-1.27516305447,-0.368054568768,-1.60622763634,-0.0120589733124
2017/07/09/09:33:05.739775,237040,1499563988,538930071,,0.879217253609,0.0762590721111,0.207244944076,0.681445566526,0.712138510409,0.0341090040506,0.165309581387,0.0384960471002,-0.248089722031,-0.0305988488571,-0.257410317295,-0.00200087387572,0.0170984578863,-4.38923406601,0.83080804348,-1.41122591496,-0.375472009182,-1.56015658379,-0.087660908699
2017/07/09/09:33:05.749671,237041,1499563988,548926260,,0.879225323148,0.0742325799809,0.206987408738,0.681233852881,0.712279130449,0.0332426060827,0.165752246307,0.0179416831788,-0.246943870978,-0.0388064749986,-0.268908096746,0.0598575841604,0.0131308598598,-4.68831253052,1.18744945526,-1.21929633617,-0.481625705957,-1.75730061531,-0.102559834719
2017/07/09/09:33:05.759451,237042,1499563988,558922926,,0.879714296448,0.0719004218021,0.206533671207,0.680712873964,0.71260976204,0.0320361373083,0.166706317131,0.0225358976346,-0.252309776811,-0.0214989086318,-0.276957896593,0.0480732056047,0.0268658320602,-4.85690879822,0.961241483688,-1.30220067501,-0.412699311972,-1.94860112667,-0.0282157659531
2017/07/09/09:33:05.769929,237043,1499563988,568935146,,0.880313694638,0.0700298535714,0.207166475612,0.680137021139,0.712968321893,0.0315146279993,0.167620501955,0.0267565470198,-0.237583780017,-0.0255348250613,-0.275719269979,0.0541113891314,0.0750088347688,-4.71105337143,1.19039273262,-0.804633378983,-0.460547417402,-1.96309995651,-0.0147355645895
2017/07/09/09:33:05.779742,237044,1499563988,578936549,,0.880927502173,0.0681947080831,0.207078583679,0.679652334856,0.713268024514,0.0311082590678,0.168385584743,0.0443240583352,-0.246759964426,0.00238168831686,-0.278001829706,-0.00572734505823,0.0606744425623,-3.7280600071,1.47223806381,-1.16979491711,-0.547298908234,-1.69075405598,-0.0721891522408
2017/07/09/09:33:05.789847,237045,1499563988,588936088,,0.881153101384,0.0648101752396,0.206866217755,0.67937593707,0.713316149332,0.0297373082138,0.169540849746,0.0542848226654,-0.237484712384,-0.000847211179126,-0.239628915351,-0.0284234483306,0.0800388148812,-3.67253541946,0.558577060699,-1.32540130615,-0.306030452251,-1.71270477772,0.0817911922932
2017/07/09/09:33:05.799670,237046,1499563988,598930020,,0.881718063762,0.0622941069815,0.206969297325,0.679346152787,0.713133693747,0.0294190890961,0.17048066381,0.0486022136811,-0.240858562951,-0.00532980989302,-0.280110249981,-0.00995856676338,0.10152096579,-3.20490455627,0.180721104145,-1.84960949421,-0.278822690248,-1.5559078455,0.0458285361528
2017/07/09/09:33:05.809356,237047,1499563988,608924576,,0.881982470005,0.0610770232379,0.206153400505,0.678514738181,0.713970758993,0.0288062236352,0.170392801651,0.0532861389567,-0.239710217449,-0.0251284738016,-0.259047553453,-0.0179781155448,0.102816689713,-3.38307976723,1.05227279663,-1.4737881422,-0.386583209038,-1.53820097446,0.00318929553032
2017/07/09/09:33:05.819628,237048,1499563988,618926101,,0.882149816476,0.0586058198864,0.205901893004,0.677877189316,0.714408384533,0.0275801233859,0.171296564787,0.0483583200215,-0.237650327683,-0.0122993664856,-0.253526297275,-0.0166474400095,0.110088951407,-3.63964986801,0.159279957414,-1.62067866325,-0.245462745428,-1.58915245533,0.0661874711514
2017/07/09/09:33:05.829689,237049,1499563988,628930043,,0.883264629021,0.0562880986804,0.2064815167,0.677111763024,0.714765870403,0.0273716611069,0.172858910821,0.0685189830885,-0.187685917379,0.00550283947267,-0.209623685348,-0.0531757347767,0.15329163506,-4.07928514481,0.167269378901,-0.783572733402,-0.251170217991,-1.73698329926,0.107197195292
2017/07/09/09:33:05.839602,237050,1499563988,638927420,,0.884231554546,0.0535310736229,0.207599301145,0.676733472651,0.714744843172,0.0270693790664,0.174467374802,0.0642271429651,-0.216390387675,0.0172947710764,-0.236025302315,-0.0537484240113,0.147520738937,-3.86744236946,0.429713129997,-0.726625025272,-0.26958656311,-1.71545577049,0.107699930668
2017/07/09/09:33:05.849850,237051,1499563988,648928186,,0.884244795004,0.0520353839349,0.206546020024,0.675865321062,0.715617045238,0.0262956603451,0.174375602072,0.0637887766401,-0.227001369608,0.0191809283164,-0.240083100319,-0.0577486478192,0.121380827217,-4.23186731339,0.461642056704,-1.67457306385,-0.337708353996,-1.90492963791,0.113269716501
2017/07/09/09:33:05.859421,237052,1499563988,658922942,,0.88462313569,0.0497065375639,0.206865315962,0.675374291255,0.71586780337,0.0254952545598,0.175364896158,0.0463197533322,-0.224664845534,0.0141765482379,-0.216317741778,-0.0277691259642,0.108655806472,-3.12631893158,0.622630536556,-1.54722213745,-0.236040472984,-1.48863780499,0.103162646294
2017/07/09/09:33:05.869682,237053,1499563988,668924853,,0.88544040911,0.0480245792467,0.207552925328,0.674757261164,0.716225709008,0.025527196401,0.176271763215,0.0302519178299,-0.22071891005,-0.011183904267,-0.189944432559,0.0126022333008,0.0862093687442,-1.5474063158,0.441356003284,-1.30671489239,-0.163034766912,-0.874538958073,0.00490349531174
2017/07/09/09:33:05.879673,237054,1499563988,678923224,,0.885852015284,0.0462911161356,0.207390242377,0.673820802937,0.71700116661,0.0249675250062,0.176780868037,0.0434884625716,-0.19795739121,0.0123053062843,-0.186963884507,-0.0159218592129,0.14815345188,-1.83228600025,0.488536536694,-0.97459346056,-0.196439117193,-0.924798309803,-0.0351262688637
2017/07/09/09:33:05.889772,237055,1499563988,688927431,,0.88581718022,0.0436024914718,0.206600259018,0.67339004591,0.717376795997,0.0236289647673,0.177082044994,0.0352145749688,-0.229360395453,0.0148198514758,-0.223412125778,0.00464169494462,0.121258430885,-2.30002975464,0.160983771086,-1.54341101646,-0.294705748558,-1.07260894775,-0.0522421449423
2017/07/09/09:33:05.899734,237056,1499563988,698926918,,0.886223723149,0.0423431684945,0.207739267683,0.672575753857,0.717973586575,0.023430346299,0.177783022746,0.019421413949,-0.205099208876,-0.0102623387512,-0.19898297303,0.0696139129668,0.14332167628,-2.55087852478,1.55070328712,-0.978396177292,-0.464222371578,-1.20203864574,-0.0832688733935
2017/07/09/09:33:05.909714,237057,1499563988,708924603,,0.885710875032,0.0410133348156,0.206398264368,0.672052885238,0.718719482987,0.0222549583464,0.176895282718,0.0156969370107,-0.199073331114,0.0122493223005,-0.191580856544,0.0663995228548,0.129932604221,-3.14650273323,1.41553497314,-1.58287465572,-0.456762611866,-1.42503261566,0.0203854590654
2017/07/09/09:33:05.919774,237058,1499563988,718930015,,0.885944947949,0.0375499134206,0.207635816208,0.67192426052,0.718526930687,0.0210676172903,0.17830589868,-0.00352341205853,-0.192359756334,-0.011065886471,-0.160028033665,0.11435057605,0.112627684231,-2.41787242889,-0.150595739484,-0.664491534233,-0.191794753075,-1.09075772762,-0.0166987478733
2017/07/09/09:33:05.929617,237059,1499563988,728926452,,0.885984137703,0.0359605879131,0.207695416654,0.670833099314,0.719530736726,0.0204936498615,0.178433410789,-0.000549981675682,-0.221498468816,0.0167533787917,-0.211912889588,0.0917305673736,0.11103631621,-1.82692468166,-0.116740345955,-0.781643033028,-0.123978212476,-0.803860068321,-0.0729716718197
2017/07/09/09:33:05.939697,237060,1499563988,738926192,,0.885365598207,0.0330880565458,0.207180840636,0.670850190689,0.719624657721,0.0193958745583,0.17811281173,-0.0133080845683,-0.232382298832,0.0191976053388,-0.172108531411,0.0959254435361,0.0824186626407,-2.4300031662,0.373536765575,-1.17628824711,-0.281872391701,-1.03774023056,-0.0682342648506
2017/07/09/09:33:05.949654,237061,1499563988,748933058,,0.885455465613,0.0323665418123,0.207175399961,0.670186267839,0.720310266575,0.0188622773867,0.177898006618,-0.0148582562151,-0.226768618821,0.0127665349921,-0.148507837423,0.110059157282,0.0930999087996,-1.81752181053,1.04388844967,-1.23639440536,-0.42843452096,-0.814456403255,-0.207493722439
2017/07/09/09:33:05.959815,237062,1499563988,758931655,,0.88540643196,0.0297350374971,0.207766400147,0.670087711213,0.720288698395,0.0181702288409,0.178427837039,0.00762210445395,-0.159560262907,0.00975040198316,-0.114449722105,0.0993711089288,0.167492048922,-1.4502389431,0.624432206154,-0.652839303017,-0.336966484785,-0.535463988781,-0.226305037737
2017/07/09/09:33:05.969610,237063,1499563988,768927737,,0.885408222025,0.0280361550076,0.207206614493,0.669239962188,0.72119711829,0.0175881546441,0.177997883125,-0.0110927957208,-0.224182716011,0.0157948640257,-0.13210359547,0.094121708627,0.0622828995392,-0.838040471077,0.397735923529,-0.992460906506,-0.348990082741,-0.305587559938,-0.307695448399
2017/07/09/09:33:05.979751,237064,1499563988,778938393,,0.885368205545,0.026017298648,0.207898419919,0.668968427863,0.721415877373,0.0171480248388,0.178174969174,-0.0074987660453,-0.209778909588,0.0164397338563,-0.105938259212,0.091528105044,0.115957317588,-1.32517433167,0.60923242569,-0.376957952976,-0.228947520256,-0.429092466831,-0.165659829974
2017/07/09/09:33:05.989334,237065,1499563988,788925663,,0.885311538521,0.0250160854775,0.207369281697,0.668238635199,0.722251462594,0.0169318591444,0.177547918471,-0.0133912961619,-0.179934450888,-0.00305109130224,-0.0947739934098,0.134763127998,0.148616643993,-1.34314799309,0.825866222382,-1.02678155899,-0.376583367586,-0.493592977524,-0.175195887685
2017/07/09/09:33:05.999799,237066,1499563988,798935574,,0.884985889985,0.0229662708289,0.207427018343,0.667928067603,0.722601324876,0.0159766060538,0.177381424771,-0.000976253825348,-0.152698208398,0.00379636440384,-0.073380055706,0.111029658265,0.157216365302,-1.43312120438,0.596071243286,-1.06192922592,-0.282478421926,-0.524852871895,-0.103822082281
2017/07/09/09:33:06.009621,237067,1499563988,808929423,,0.885550676062,0.0218051631584,0.208642121653,0.667210350808,0.723108770968,0.0159271745277,0.178017915491,-0.0047945592606,-0.196594234293,0.0226293361869,-0.0988404680548,0.089632456389,0.112761624354,-0.71273213625,0.710082471371,-0.29693171382,-0.257243931293,-0.286565810442,-0.177785784006
2017/07/09/09:33:06.019674,237068,1499563988,818931030,,0.8850159805,0.0201039164592,0.208035251814,0.666441470733,0.724021467387,0.0150915956575,0.17725948378,-0.00958188888191,-0.193604356506,0.0256300254805,-0.0752704679271,0.0920934478905,0.10497765325,-0.562807738781,1.00809025764,-0.800797522068,-0.36528763175,-0.348636031151,-0.232455000281
2017/07/09/09:33:06.029621,237069,1499563988,828923045,,0.88523766026,0.0179503207302,0.207971260627,0.666407926432,0.724021469905,0.0150590835234,0.177388304881,-0.00219621514324,-0.172811806547,0.0114133244539,-0.043914292923,0.0897547957892,0.134440187012,0.0908679068089,-0.129914790392,-0.953260779381,0.00148512423038,-0.201809182763,-0.0892468988895
2017/07/09/09:33:06.039542,237070,1499563988,838933215,,0.885489403818,0.0162268121859,0.208948500538,0.666034534223,0.724323199579,0.0151992753335,0.1775468496,0.0132417033837,-0.134282251015,0.0185996519765,-0.00225495970971,0.0645573006275,0.163816863226,0.436761081219,-0.308271706104,-0.988408625126,-0.117631450295,-0.0306413248181,-0.194850534201
2017/07/09/09:33:06.049569,237071,1499563988,848935611,,0.885646958019,0.0160680183667,0.208731330898,0.665602749222,0.724916393663,0.0156462243111,0.176704267328,0.00545871681373,-0.129174693977,0.0186074582575,0.0285833894005,0.0651554136838,0.140246986019,0.798481762409,0.383431553841,-0.67841821909,-0.198375195265,0.202045217156,-0.248927772045
2017/07/09/09:33:06.059831,237072,1499563988,858926752,,0.886048712936,0.0141167333336,0.209844431327,0.665984578444,0.724503090218,0.0163825406068,0.176893826637,0.0156397080808,-0.141326088043,0.0294107352783,0.0706424986838,0.00844598604919,0.0438662186952,0.699757158756,0.0062144100666,0.182327747345,-0.0841494649649,0.309190094471,-0.232803672552
2017/07/09/09:33:06.069694,237073,1499563988,868935549,,0.885963133625,0.0132080648582,0.209191535166,0.666017744375,0.724659198901,0.0162960699263,0.176135878601,0.0113648574293,-0.125054507521,0.0162283339833,0.121002213982,0.0151424428559,-0.00893748367914,-0.0648555085063,0.272860467434,-0.307234406471,-0.132713362575,0.0476931929588,-0.182159498334
2017/07/09/09:33:06.079698,237074,1499563988,878935636,,0.88631090963,0.0127192791125,0.209880142998,0.666352851221,0.724436643346,0.0172257360269,0.175694910186,0.0144147448248,-0.116938515361,0.00882821951665,0.137048007452,-0.00262291974815,-0.0751203198262,0.159617424011,0.975385785103,0.150509476662,-0.292559206486,0.125812530518,-0.258062154055
2017/07/09/09:33:06.089690,237075,1499563988,888925014,,0.886285751758,0.0114780958507,0.20950510895,0.666369492642,0.724558893525,0.0173889050736,0.175110636658,0.0193574317606,-0.0943476302136,0.0202743649231,0.163938809518,-0.0171720353242,-0.0516161631738,-1.25848913193,0.585101187229,-0.413849949837,-0.252061843872,-0.451852709055,-0.105965301394
2017/07/09/09:33:06.099408,237076,1499563988,898934432,,0.886292151975,0.00948797301915,0.210535002381,0.666674610976,0.724264011595,0.0177461149955,0.175133320617,0.0122363479953,-0.0838233303538,0.0121838714114,0.162612696417,0.0226767574119,0.0502634681183,-0.762551903725,-0.615749895573,0.266297101974,-0.0619722865522,-0.22044698894,-0.0503522232175
2017/07/09/09:33:06.109603,237077,1499563988,908947118,,0.885724707318,0.00828862715764,0.209525758548,0.665986568014,0.725200071083,0.0172259484439,0.173925313932,-0.00998917951882,-0.133845462762,0.0134867256659,0.102020955315,0.0710715442439,0.0817699986514,-0.190788179636,-0.726993501186,-0.298543512821,-0.165468513966,-0.0962981507182,-0.117403782904
2017/07/09/09:33:06.119666,237078,1499563988,918935622,,0.88581909235,0.00767358526507,0.209528981036,0.664893839022,0.726323671801,0.0170947153302,0.173429747507,-0.00952098549725,-0.116136501589,0.0104082606373,0.062346415,0.110027053837,0.203316129526,1.02159166336,-0.108885273337,-0.371779859066,-0.436193436384,0.299000442028,-0.275980949402
2017/07/09/09:33:06.130170,237079,1499563988,928924991,,0.885725789312,0.00640548678571,0.209241759764,0.663901761656,0.727334493998,0.0166686959495,0.173035081084,0.00671006711963,-0.132037106123,0.0252843009094,-0.0353746324664,0.0777680274146,0.239071840041,1.41177237034,0.340354472399,-0.0611384361982,-0.603294312954,0.440439581871,-0.443094909191
2017/07/09/09:33:06.139987,237080,1499563988,939129188,,0.885589777747,0.00503315216437,0.2096895395,0.663689109697,0.727580200361,0.0165297299272,0.172831090205,-0.00673725299933,-0.14189685733,0.0235933515121,-0.0524639560163,0.0908846126159,0.186304782145,0.742479324341,0.0334414690733,0.0829489827156,-0.586603343487,0.262204051018,-0.424781262875
2017/07/09/09:33:06.149668,237081,1499563988,949135218,,0.886003190767,0.00354792185718,0.210205857416,0.663507417935,0.727613559309,0.016308419568,0.173408333438,-0.00407333249241,-0.153278252084,0.024879640409,-0.0471714436779,0.0558544364338,0.0869697176232,0.657964944839,0.0538932085037,0.511428833008,-0.51785159111,0.35800614953,-0.373863726854
2017/07/09/09:33:06.159672,237082,1499563988,959131355,,0.88574412308,0.00229852789298,0.210291560101,0.663337460605,0.727863893619,0.0160145206421,0.173034970029,0.00310519728722,-0.148647923954,0.0187446160084,-0.046646069927,0.0381884630116,0.0517412751645,1.19080424309,0.310972571373,0.141821950674,-0.46378672123,0.675716280937,-0.417807728052
2017/07/09/09:33:06.169677,237083,1499563988,969127886,,0.886233439799,0.00160771070281,0.210984275669,0.662561895406,0.728525795382,0.0163459450911,0.17318981003,0.005140120057,-0.144082948578,0.0223118735997,-0.0435584314388,0.0361018698966,0.0780905822897,2.1206548214,0.475821256638,0.257452338934,-0.594833135605,0.971487104893,-0.515108346939
2017/07/09/09:33:06.179799,237084,1499563988,979141308,,0.885704745327,-0.00165857144195,0.211096408917,0.661704024657,0.729285933757,0.0151614596269,0.173378028361,7.75237960209e-05,-0.152317884368,0.0310636910301,-0.0814039022702,0.0639659362125,0.192641478855,0.679877519608,-0.189429461956,-0.0289619639516,-0.539140641689,0.433374613523,-0.387315511703
2017/07/09/09:33:06.189757,237085,1499563988,989126605,,0.88580361207,-0.00159787838809,0.211083786226,0.659708017385,0.731220708859,0.0151829850092,0.172832530791,-0.0168903876538,-0.128338976074,0.00862853874847,-0.0911163257585,0.150873176702,0.33981747669,0.413329541683,0.313508450985,-0.119574978948,-0.759560823441,0.229311779141,-0.425193995237
2017/07/09/09:33:06.199739,237086,1499563988,999139477,,0.885253063719,-0.00281589839768,0.210542917412,0.659186700096,0.731869970076,0.0143259563161,0.17214531156,-0.0203178832639,-0.118665752198,0.00310419759258,-0.0813411501201,0.162744388492,0.35014064399,1.46370625496,0.866477310658,-0.626291155815,-0.94045573473,0.514813661575,-0.590298175812
2017/07/09/09:33:06.209927,237087,1499563989,9131406,,0.885774430247,-0.00286911528835,0.211327211256,0.65838039721,0.732563706482,0.0148672972686,0.172234235817,-0.0069654977027,-0.0883869532971,0.0121096606879,-0.0333690436595,0.109258968911,0.251200706385,2.48280000687,0.326015949249,-0.057447720319,-0.574268996716,0.905716300011,-0.524406075478
2017/07/09/09:33:06.219897,237088,1499563989,19140798,,0.885697136487,-0.003286526777,0.210889571071,0.657868649939,0.733108746183,0.0144035743474,0.171909693568,-0.00315879248103,-0.124317876651,0.00779309243858,-0.0258413848737,0.0588590323181,0.111130052177,2.49781537056,0.79040157795,0.428321480751,-0.500026583672,0.955082774162,-0.481474548578
2017/07/09/09:33:06.229488,237089,1499563989,29128521,,0.88559327159,-0.00582473840305,0.21155626153,0.659254966767,0.731773275129,0.0144083530126,0.172288020369,-0.00568537469739,-0.129928361723,0.0035329909976,0.0154077024446,0.0146495240542,-0.0647985971537,1.48893260956,-0.442351162434,0.947309315205,-0.157124578953,0.709001123905,-0.318912446499
2017/07/09/09:33:06.239773,237090,1499563989,39134461,,0.885432807227,-0.00691467043754,0.211316599458,0.660462848157,0.730765926619,0.0146521207625,0.171916555498,-0.00178668469501,-0.119624532353,0.00239427666139,0.0560145496339,-0.0140209401552,-0.164145345518,0.318396866322,0.0161067023873,0.618169903755,-0.361148297787,0.297771751881,-0.266050338745
2017/07/09/09:33:06.249933,237091,1499563989,49129723,,0.88552565099,-0.00738456423778,0.211390882888,0.660831553454,0.730507927237,0.0152456581734,0.171544152069,0.00563183152317,-0.0945660004163,0.010925375726,0.0918010218006,-0.0464743402737,-0.223168703033,-0.226600199938,-0.0487470924854,0.142831712961,-0.491429507732,0.139800712466,-0.292001932859
2017/07/09/09:33:06.260075,237092,1499563989,59155286,,0.885613081999,-0.0083794416676,0.211583685716,0.661163297715,0.730184676778,0.0151380511794,0.171651597606,0.0115746504076,-0.0847809889072,0.01757438286,0.110360357994,-0.0540675282126,-0.156738457499,-0.257466375828,1.01887261868,-0.0930242985487,-0.705433726311,0.0214413404465,-0.315210163593
2017/07/09/09:33:06.269953,237093,1499563989,69140478,,0.886092293681,-0.00879719472558,0.211721555127,0.661136610414,0.73022666012,0.0163613702938,0.17146344445,0.018613814607,-0.0460689282306,0.00940044505514,0.112389655181,-0.0327066028826,-0.056813686399,1.14340758324,-0.0675160363317,0.0182439722121,-0.529752910137,0.571027874947,-0.337828874588
2017/07/09/09:33:06.279844,237094,1499563989,79139902,,0.885579026768,-0.0107810590847,0.2118332652,0.66157033993,0.729860860561,0.015606366264,0.171418350471,0.00350164227923,-0.104765941102,0.0123697177009,0.0673383384401,-0.0194791451459,-0.0261942321716,1.49412631989,-0.147174239159,0.0670086443424,-0.516578733921,0.66063785553,-0.413438230753
2017/07/09/09:33:06.289959,237095,1499563989,89131716,,0.886563792813,-0.00997928570281,0.212750213345,0.660730929246,0.730615188355,0.0172564750779,0.171284265917,-0.00359601631781,-0.095159958525,0.0240843397221,0.0271685275198,0.0111231273164,0.0659923389197,0.811707139015,0.991464018822,0.250189930201,-0.749202370644,0.301976472139,-0.361674666405
2017/07/09/09:33:06.300115,237096,1499563989,99127552,,0.885840733544,-0.0118156941289,0.212255176463,0.660735542218,0.730655153523,0.016254916568,0.171193947231,0.00614156587364,-0.076078848543,0.0230195094119,0.0112725849531,0.00890854957009,0.130428447365,-0.170947924256,0.101083397865,-0.0632159635425,-0.53019618988,-0.0245206691325,-0.180999875069
2017/07/09/09:33:06.309806,237097,1499563989,109151642,,0.886341883129,-0.0124188216405,0.212468316149,0.660070125606,0.731184365647,0.0166997235728,0.171458367973,0.00285847914294,-0.0957352231078,0.0154031480941,-0.00020002491899,-0.0102625527295,0.0676229441218,-0.360223084688,0.180421292782,-0.106127142906,-0.418238729239,-0.0749778226018,-0.0872918218374
2017/07/09/09:33:06.319832,237098,1499563989,119140921,,0.886351685958,-0.0124591116274,0.211898787535,0.659807533045,0.731542077991,0.0167434587943,0.170938187815,0.00300743151381,-0.0826888948099,-0.0061378558874,-0.000100877856977,0.00993772831179,0.0759810629865,0.112532794476,0.785594820976,-0.115708500147,-0.520490348339,0.109215050936,-0.231994986534
2017/07/09/09:33:06.329974,237099,1499563989,129139891,,0.886083553646,-0.0133691226023,0.211977478882,0.659996724971,0.731425862482,0.0168416333891,0.170695313657,0.00428347516999,-0.0678886254901,-0.00291130506052,0.0505888666998,-0.00873391122112,0.0391711671499,-0.367688000202,0.371410369873,0.0347774922848,-0.373457849026,0.000442509539425,-0.140583246946
2017/07/09/09:33:06.340041,237100,1499563989,139135516,,0.885724973098,-0.0149852821803,0.21198674076,0.660324725709,0.731122486228,0.0163756818037,0.170771788638,0.00320117418813,-0.0738698680164,0.00614034717593,0.0738319976059,-0.0278511504504,-0.0129778856701,-0.468458026648,0.31455513835,-0.294845551252,-0.500543832779,-0.0124561302364,-0.210636347532
2017/07/09/09:33:06.350034,237101,1499563989,149134384,,0.885881204529,-0.0142847890407,0.211667301429,0.66001403689,0.731574298774,0.0174543764917,0.169928988767,0.00265663767332,-0.0478992109498,0.00439247621094,0.0674386762652,-0.00909774350671,0.0177773194964,0.171675279737,0.308149397373,-0.206999063492,-0.476916283369,0.197731927037,-0.264328867197
2017/07/09/09:33:06.359855,237102,1499563989,159134254,,0.88609838301,-0.0151063748838,0.212465491699,0.660208975908,0.731268344695,0.0178227984332,0.170449593821,0.000494496019081,-0.0328690977177,-0.00660971475927,0.101694142249,-0.00899879311364,0.00192513410877,0.787863492966,0.22131486237,0.46500736475,-0.488344013691,0.450512051582,-0.312989294529
2017/07/09/09:33:06.369742,237103,1499563989,169125568,,0.885350605464,-0.0165737235582,0.211894358907,0.6612997121,0.730460845494,0.0177644025144,0.169688155099,-0.000279950331377,-0.0621489971958,-0.00398557163505,0.0721213223976,-0.0268399525659,-0.042103813035,-0.589221000671,-0.471832424402,0.248824551702,-0.283591330051,-0.0398440957069,-0.15568177402
2017/07/09/09:33:06.379716,237104,1499563989,179134117,,0.885447598217,-0.0168223789115,0.211834899981,0.661256482757,0.730521059561,0.0179715389536,0.16957555643,-0.019507898975,-0.0891783252828,-0.0018964876793,0.0635510114616,-0.00218519461785,-0.0928707921518,0.252963960171,0.304536223412,-0.0865476131439,-0.551848948002,0.181838870049,-0.287206113338
2017/07/09/09:33:06.389845,237105,1499563989,189127603,,0.886109521571,-0.0167954470952,0.212271023366,0.661389932966,0.730284116247,0.0186871654429,0.169997811681,0.000203305861977,-0.0462818538215,-0.00202846732839,0.073017988605,-0.0226127367998,-0.0578104954971,0.1897534132,0.697753429413,-0.021416535601,-0.667050123215,0.121763907373,-0.315446525812
2017/07/09/09:33:06.399743,237106,1499563989,199127556,,0.886157606711,-0.0169775982713,0.212312945823,0.66127424899,0.730399748974,0.0192117387577,0.169892564333,0.00699685384526,-0.0500719123104,0.0110319549457,0.0689546824269,-0.061216304958,-0.062865840815,0.135998085141,0.390987247229,0.0461026281118,-0.602704823017,0.182269752026,-0.30120664835
2017/07/09/09:33:06.409642,237107,1499563989,209141336,,0.886017409519,-0.0182733721236,0.212806065075,0.662235511453,0.729467263917,0.019469757879,0.170125150324,-0.00302322024317,-0.0455036681408,-0.0100063640796,0.112705253915,-0.0422635035855,-0.0723407222037,0.336942136288,0.0152157247066,0.609445989132,-0.431654185057,0.247992426157,-0.264904975891
2017/07/09/09:33:06.419943,237108,1499563989,219126645,,0.885879167523,-0.0186038980472,0.211776526812,0.662365339236,0.729480066852,0.0196088884822,0.169547872109,-0.00467078238637,-0.0623794569394,-0.017756165187,0.0917778890478,-0.0386665927753,-0.0851882917283,1.52186489105,0.396365016699,0.155637174845,-0.413717329502,0.657722532749,-0.346235573292
2017/07/09/09:33:06.430035,237109,1499563989,229129258,,0.885215930277,-0.0186132044772,0.21109633177,0.66201846318,0.729976323229,0.0191351035545,0.168819340557,-0.01794277575,-0.0510375042853,-0.038780419437,0.0808026775807,0.017051995288,-0.0607455540755,1.32621979713,0.403677791357,-0.00626926496625,-0.42891728878,0.596214830875,-0.343752980232
2017/07/09/09:33:06.440014,237110,1499563989,239133360,,0.885797318789,-0.0197149196847,0.212351310635,0.66219422217,0.729579337531,0.0199804746246,0.169745642085,-0.0110975071479,-0.0466389009861,-4.19410970853e-05,0.0405415430845,-0.0044358579176,0.0306021296729,0.866567909718,0.539703309536,0.599350690842,-0.500073254108,0.448627322912,-0.367928475142
2017/07/09/09:33:06.449885,237111,1499563989,249165827,,0.885326676378,-0.0198153367062,0.211755342274,0.66219643735,0.729754169122,0.0200489615633,0.168975649579,-0.00180013050026,-0.0401400850275,0.00745312087225,0.0382351509181,-0.017670598561,0.0660650558582,0.367799013853,0.859482049942,0.136158376932,-0.474693149328,0.295789688826,-0.295911610126
2017/07/09/09:33:06.459587,237112,1499563989,259127958,,0.885603687497,-0.0193064053448,0.211373519477,0.662089091768,0.729931175559,0.0209162977642,0.168526027651,-0.0102707323726,-0.0504274067315,0.00329661358608,0.0556776259389,-0.0146604115836,0.0166005115375,0.0172909200191,0.887785077095,-0.103512272239,-0.494474768639,0.137221053243,-0.265707910061
2017/07/09/09:33:06.470102,237113,1499563989,269130263,,0.885110327541,-0.0208451851141,0.211057889189,0.662790528692,0.729326728435,0.0209388010486,0.168382911475,-0.00792878593856,-0.0445997024393,-0.0150917350729,0.0783621073852,-0.0255535517317,-0.0303948538117,0.764805316925,-0.371806979179,-0.275983124971,-0.265071481466,0.473407715559,-0.269114017487
2017/07/09/09:33:06.480084,237114,1499563989,279126382,,0.885251528458,-0.0210043402222,0.211367120966,0.663000543082,0.729064628356,0.0211446569998,0.168665203977,-0.00859409254328,-0.0307609970886,-0.0198064122997,0.105619899939,-0.0261651750671,-0.05853164245,1.45008409023,0.418268382549,-0.0635179281235,-0.417580872774,0.742173314095,-0.346493989229
2017/07/09/09:33:06.490082,237115,1499563989,289128649,,0.884820171712,-0.021237548925,0.210795771935,0.662764388372,0.729407674435,0.0211196414358,0.168112375292,-0.0269060497369,-0.0522491203719,-0.0287331854808,0.0580863799034,0.0191911487159,-0.0847014048488,0.800808012486,0.522916436195,-0.0458306223154,-0.519303023815,0.542509198189,-0.380749315023
2017/07/09/09:33:06.500035,237116,1499563989,299127862,,0.884811487811,-0.0217883530479,0.21090146871,0.662437018497,0.729709931625,0.0211790705153,0.168083488732,-0.034424412006,-0.05223073334,-0.0312013194268,0.0326077511414,0.0554556279732,-0.00663773023843,0.953634858131,0.385257095098,0.502710700035,-0.377527594566,0.545485913754,-0.337301313877
2017/07/09/09:33:06.509934,237117,1499563989,309133573,,0.884119952337,-0.0228959424116,0.210254877282,0.661930201381,0.730224430641,0.0204362288071,0.16793763708,-0.0175576843445,-0.0386881561213,-0.0216914902493,-0.00148156254632,0.0401278129107,0.114082071598,0.418941706419,-0.0120328515768,-0.0340807624161,-0.326025545597,0.394247233868,-0.305665612221
2017/07/09/09:33:06.519673,237118,1499563989,319127803,,0.884039817641,-0.0228723570011,0.210252546548,0.661315392043,0.73087702652,0.0207956583733,0.16747616232,-0.0246410986074,-0.028129097074,-0.0163712790057,-0.0081591788144,0.0714440580066,0.200110553839,0.305875748396,-0.289036095142,0.825594842434,-0.152023464441,0.363475680351,-0.197230219841
2017/07/09/09:33:06.529648,237119,1499563989,329127639,,0.88339563273,-0.0242941563476,0.210171217541,0.661506167713,0.730731582947,0.0202055516045,0.167429625352,-0.0316818764164,-0.0602841746298,-0.0151092279875,-0.0251049228093,0.0696834794048,0.149227593102,0.449155032635,-0.229679256678,0.853940486908,-0.222100570798,0.424876570702,-0.31346732378
2017/07/09/09:33:06.539764,237120,1499563989,339160970,,0.883932818643,-0.0237991134491,0.210181566638,0.661557269655,0.730644888895,0.0210432917055,0.167502851237,-0.0228878498052,-0.0396834406755,-0.0291076696951,0.0325158287673,0.0349349291502,0.0206433967854,1.9330470562,-0.29654276371,1.12326478958,-0.14263215661,0.971677482128,-0.413025289774
2017/07/09/09:33:06.550061,237121,1499563989,349132286,,0.88351096329,-0.0241961646977,0.209472700756,0.661885210625,0.730452871711,0.0209055805199,0.167061446386,-0.0113913838369,-0.0297230706059,-0.017931922758,0.0389116769247,0.000671862262566,-0.0184564789047,1.81718659401,-0.165226131678,0.625803768635,-0.239481925964,0.979397058487,-0.413388192654
2017/07/09/09:33:06.559885,237122,1499563989,359135940,,0.884008028024,-0.0240130523081,0.210332336667,0.661574482852,0.730598330435,0.0215721239508,0.167570661731,-0.0144653767043,-0.0312692381695,-0.0167844310906,0.0450776811248,0.000128311707673,-0.0707812223508,1.86193716526,0.185700282454,0.695279240608,-0.405620127916,1.01472616196,-0.500103771687
2017/07/09/09:33:06.569726,237123,1499563989,369126887,,0.883399652466,-0.0248025595504,0.209840415998,0.662089857932,0.730218483055,0.0210056356595,0.167262519109,0.000949105815298,-0.0266957210135,-0.00127640155769,0.0379359418562,-0.0358743407133,-0.0510300696708,0.694708585739,0.233059242368,0.830363154411,-0.433613657951,0.603595614433,-0.409142553806
2017/07/09/09:33:06.579740,237124,1499563989,379127991,,0.883120130225,-0.0247451695068,0.209511113382,0.66249388019,0.729991925346,0.0211783261891,0.166628707432,-0.00859349176992,-0.0135176239266,-0.0120215372916,0.0477234233643,0.00830195314162,-0.0411878936772,0.569452822208,0.203128769994,0.625823915005,-0.439444601536,0.510741114616,-0.408367156982
2017/07/09/09:33:06.589715,237125,1499563989,389129728,,0.883050284057,-0.0255300876383,0.20977926777,0.66255599155,0.729872909823,0.0211134710162,0.166911098824,-0.0258961381241,-0.030093585268,-0.0132128699494,0.0238038348049,0.0446281520264,-0.0178081199793,0.681394517422,-0.294839024544,0.526372790337,-0.273811846972,0.52490824461,-0.362060964108
2017/07/09/09:33:06.599824,237126,1499563989,399133555,,0.88297511576,-0.0255197540543,0.20935605951,0.662585663678,0.729894244796,0.021187264365,0.166690520221,-0.0121501977241,-0.0521382371316,0.00272981294624,-0.00614660730976,-0.0118579920517,-0.0706861586035,0.880301713943,-0.0830830335617,0.274784713984,-0.303591668606,0.61038351059,-0.398451179266
2017/07/09/09:33:06.610075,237127,1499563989,409140717,,0.882997066183,-0.0254101866956,0.208793531546,0.662687432243,0.72987060403,0.0214504200525,0.166355486835,-0.0137364900155,-0.0542971776515,-0.0181476732229,0.00120389290203,0.00291183602903,-0.0550633830533,2.46682071686,0.138979256153,-0.0325397700071,-0.225895345211,1.21718156338,-0.495701551437
2017/07/09/09:33:06.619509,237128,1499563989,419134187,,0.882524666314,-0.0258847986101,0.208545041085,0.66291981908,0.729732384171,0.0210831909449,0.166082690315,-0.0188625120726,-0.0397044098344,-0.0351240791766,0.0182524697403,0.0230455240365,-0.0378995825922,2.85620689392,0.069276124239,1.05687117577,-0.110983349383,1.42092192173,-0.488154947758
2017/07/09/09:33:06.630072,237129,1499563989,429127275,,0.883109691737,-0.0263231848859,0.20905081792,0.662822671843,0.729646135968,0.0217402100655,0.166763261011,0.0130121235115,-0.00237101711501,-0.00114840348586,0.0097386518091,-0.0376075559731,0.0190291767442,2.08372879028,0.407099306583,1.13559103012,-0.239004760981,1.13411068916,-0.478796362877
2017/07/09/09:33:06.639829,237130,1499563989,439131552,,0.883328127348,-0.0264630841202,0.209481736465,0.66282017756,0.729542759957,0.0218748388579,0.167207251754,0.00963333539248,-0.0329778714928,0.0116699505056,0.000144802111889,-0.0546396488746,-0.0294286892932,1.16379237175,0.467962056398,1.22815299034,-0.186475932598,0.858042180538,-0.372761964798
2017/07/09/09:33:06.650023,237131,1499563989,449131366,,0.883467309412,-0.0263452915149,0.209262479663,0.662690409063,0.72965241805,0.0219057034157,0.167239082535,0.00475661972015,-0.0238728688873,-0.0177626725045,0.014701052125,-0.0225601451494,-0.03589950423,1.1234433651,0.600155949593,0.991622924805,-0.307722777128,0.769998848438,-0.444799780846
2017/07/09/09:33:06.659831,237132,1499563989,459137120,,0.883517077792,-0.0260971209293,0.20868046769,0.663109772142,0.729357014327,0.0223945292493,0.166800062356,0.00647940676513,-0.00440621717956,-0.0159561928404,0.0364551784012,-0.0209135428541,-0.0121799304474,0.348419368267,0.525437116623,0.465709030628,-0.308007240295,0.514577627182,-0.381205826998
2017/07/09/09:33:06.669672,237133,1499563989,469131943,,0.883058001078,-0.0268889122057,0.208351026462,0.663302367582,0.729224750326,0.0217333307265,0.16670001502,-0.00543287357072,-0.0181994152759,-0.0195717793215,0.0224858106036,0.00846083183723,-0.0360081089317,0.0198113918304,0.192726477981,0.359531790018,-0.309862285852,0.437138408422,-0.3805154562
2017/07/09/09:33:06.679800,237134,1499563989,479126954,,0.882973912407,-0.0265896607661,0.208266838062,0.662987022182,0.729585028547,0.0218591643338,0.166361267947,-0.0112567875312,-0.0152899649068,-0.0222219225565,0.00839121296595,0.0255007364413,-0.0209439104629,0.485198795795,0.267521709204,0.525178551674,-0.219034180045,0.572415173054,-0.353223919868
2017/07/09/09:33:06.689760,237135,1499563989,489130034,,0.882913587726,-0.0271753864609,0.208291885717,0.663736696856,0.72885784871,0.0219066513615,0.166553091379,-0.013880469172,-0.00669606666163,-0.0191420393428,0.00586246888512,0.0343290829588,-0.000452236745717,0.931513309479,-0.190893411636,1.02201974392,-0.0140613466501,0.746245384216,-0.30876916647
2017/07/09/09:33:06.699811,237136,1499563989,499127018,,0.882629733493,-0.027436586439,0.207745564709,0.663594411468,0.729046309011,0.0216590967536,0.166327447867,-0.000236670623724,-0.00929713118008,-0.00595533370462,0.00167364280581,-0.00771367051372,-0.00858586593779,1.54532706738,-0.344785660505,0.844372868538,-0.0229194834828,1.06993424892,-0.413626074791
2017/07/09/09:33:06.709849,237137,1499563989,509126713,,0.882769663237,-0.0274584724443,0.207790203266,0.663564788569,0.729033741292,0.0217596427221,0.166487517183,-0.00818275549385,-0.0138788031441,-0.0237470858431,-0.000774451110989,0.0200148274576,0.0196756862504,2.36876726151,-0.165486782789,1.21136891842,0.0386498942971,1.35865032673,-0.420394480228
2017/07/09/09:33:06.719780,237138,1499563989,519133576,,0.882918136894,-0.0269016419682,0.207914035181,0.663703370948,0.728969317949,0.0224951091152,0.166119050523,0.00626626633254,-0.0309576963991,-0.0164883705308,0.00963531555105,-0.034047777208,-0.039502390032,2.28001046181,0.112145096064,1.31143558025,-0.00719399750233,1.39829301834,-0.460889458656
2017/07/09/09:33:06.729826,237139,1499563989,529134064,,0.882987767169,-0.0279775660097,0.207498463486,0.663699987079,0.728886635026,0.0219991877353,0.166561208479,0.0183828492756,-0.0146800632403,0.00417809884629,0.0227469797125,-0.0598629119091,-0.0182716282072,1.42924034595,-0.309247374535,0.208629220724,0.016319848597,1.00498437881,-0.356640577316
2017/07/09/09:33:06.739820,237140,1499563989,539128757,,0.882793611196,-0.0284948955037,0.207338663402,0.663732792934,0.728850980902,0.0218010255722,0.166612552065,-0.000790985728706,-0.04639304223,-0.00670174885546,-0.0085496501836,-0.0192462333319,-0.0346470616384,0.730621099472,0.331717997789,0.627087116241,-0.162815988064,0.64920938015,-0.347306102514
2017/07/09/09:33:06.749733,237141,1499563989,549127090,,0.882962917748,-0.0288525608301,0.207429234428,0.66395288499,0.728571021158,0.022002172361,0.166933334161,0.000132688639081,-0.00808821232408,-0.0258695127542,0.012761924219,0.0075310735964,-0.0181816948632,0.100504592061,0.127958148718,0.0290127396584,-0.256273984909,0.337448209524,-0.330118268728
2017/07/09/09:33:06.759924,237142,1499563989,559134794,,0.883254453303,-0.028236839474,0.207449612761,0.663852934259,0.728688207006,0.0223578117886,0.166772020726,0.00571120102135,0.00523137958592,-0.0222057897702,-0.00100736186331,0.00635441889892,-0.00242313843142,-0.108012996614,0.638535022736,0.0929889976978,-0.331233352423,0.195643812418,-0.280053168535
2017/07/09/09:33:06.769766,237143,1499563989,569131586,,0.883436088532,-0.0282391450334,0.207414645345,0.663341705711,0.729085336846,0.02223624121,0.167086512435,0.0149372989545,0.00333887472573,-0.0101113855297,0.0248402217483,-0.034535654589,0.00566335870288,0.886064291,-0.3552544415,0.193764135242,-0.0714321658015,0.633824825287,-0.327372550964
2017/07/09/09:33:06.779922,237144,1499563989,579135070,,0.883045010235,-0.0286595618709,0.206765230127,0.663654076423,0.728877826045,0.0219590501384,0.166787834281,0.00429773741138,-0.0155511038346,-0.0206443320286,0.00491715859579,-0.0185742887338,-0.00814584450009,1.46809339523,-0.428215175867,0.957682847977,0.0987526848912,0.989298701286,-0.329300731421
2017/07/09/09:33:06.789939,237145,1499563989,589135053,,0.883785399492,-0.0278945483684,0.206502877109,0.663701222874,0.728763300678,0.0230035792666,0.166959796603,0.0206250115226,-0.00820261412005,-0.0133960332668,-0.00836068321182,-0.0579173482033,0.0206408835332,2.61833548546,-0.0637002289295,0.879595696926,0.0705245509744,1.42498719692,-0.429752588272
2017/07/09/09:33:06.800188,237146,1499563989,599134191,,0.884163942047,-0.0283329036964,0.207201854745,0.663628427464,0.728661609752,0.0231507907259,0.167671135333,0.022472420351,0.00863380296437,-0.00483929228394,-0.000312520875299,-0.0480445261471,0.0377739762152,2.53217458725,-0.0891931653023,1.35393798351,0.0906742960215,1.3314884901,-0.403426647186
2017/07/09/09:33:06.809841,237147,1499563989,609128592,,0.883562878823,-0.0285505421839,0.206362355956,0.663416628249,0.728999927942,0.0225801219505,0.167115590282,0.00288074338502,-0.00925390096136,-0.0240537430386,0.0113889732095,-0.00165097323241,-0.00657845341232,1.64640665054,0.345384597778,0.771279036999,-0.152819514275,0.964080154896,-0.424727976322
2017/07/09/09:33:06.819585,237148,1499563989,619126854,,0.884127922846,-0.0278262881071,0.206633594671,0.66324469941,0.729087581743,0.0231290515215,0.167340413019,0.0113375955447,-0.0126562193645,-0.00577946123915,0.015149761247,-0.0366429490687,-0.011817330928,0.497066557407,0.396675467491,0.721296727657,-0.114711076021,0.475065261126,-0.304996430874
2017/07/09/09:33:06.830053,237149,1499563989,629136001,,0.883626166846,-0.0292339916146,0.206029630787,0.664248362986,0.728208673663,0.0228167527354,0.167229290696,0.0127280484395,0.00446443270338,-0.0100479502909,0.0131148534561,-0.0243679761372,0.022202156239,0.456819146872,-0.264889091253,0.532238185406,-0.0983678326011,0.517280578613,-0.303911954165
2017/07/09/09:33:06.839807,237150,1499563989,639152699,,0.884336125125,-0.028543869885,0.205921217284,0.663820807257,0.728536098004,0.0233731614205,0.167423968065,0.00647681566771,-0.028437715748,-0.0161860508281,-0.0162236837661,-0.0213740013006,-0.0209604616582,1.03299546242,0.00763776898384,0.959561228752,0.0487871989608,0.756106138229,-0.290944844484
2017/07/09/09:33:06.850201,237151,1499563989,649130066,,0.884201858225,-0.0283339933275,0.205471875719,0.663564021632,0.728841485299,0.0231873262647,0.1671383451,0.00347884303597,-0.0405464632521,-0.0109005999765,-0.0133672846693,-0.0288045034682,-0.0550518518492,1.20745110512,0.122703701258,0.807140469551,0.0979751348495,0.86792743206,-0.280357629061
2017/07/09/09:33:06.859840,237152,1499563989,659133183,,0.883595450675,-0.0292125340045,0.205102305698,0.664129454792,0.728383371725,0.0227064995328,0.166955520874,0.0102220864306,-0.00653665920321,-0.0069192703736,-0.00764254987582,-0.0267669977961,0.00693265743436,0.840481758118,0.0284158885479,0.700670540333,0.00114116072655,0.757901906967,-0.331492722034
2017/07/09/09:33:06.869577,237153,1499563989,669129471,,0.884205410507,-0.0294236249743,0.205867461127,0.663667935762,0.728601331243,0.0230387932691,0.167792089077,0.0135049200376,-0.026374069578,0.00534338250671,-0.0268939073756,-0.0486494742567,-0.00544498509507,0.686803817749,-0.168197959661,1.02354681492,0.0548903793097,0.774434804916,-0.31135892868
2017/07/09/09:33:06.880034,237154,1499563989,679131722,,0.885100790658,-0.0289885011989,0.206397185244,0.66377140256,0.728333785528,0.0240358768526,0.168403380685,0.0217295498635,-0.0140078333329,-0.00290191439314,-0.00635896349184,-0.0597561071576,-0.00829130999529,0.521428883076,0.28284150362,1.14819264412,0.0156265422702,0.593435585499,-0.256217002869
2017/07/09/09:33:06.889898,237155,1499563989,689135276,,0.884999041517,-0.0292283299425,0.206401335883,0.663869469262,0.72826602726,0.0242507845333,0.168278996817,0.0276878708618,-0.00277992187548,-0.00227281081118,0.0065073297387,-0.0738783396175,-0.010337091971,0.28521412611,0.551467835903,1.13320791721,-0.0950051769614,0.532012760639,-0.314246207476
2017/07/09/09:33:06.899763,237156,1499563989,699127316,,0.884710696897,-0.0294716147781,0.20561339532,0.66354365759,0.728591976707,0.023861445408,0.168208731561,0.0280683321282,0.00143881282136,0.00921353593504,-0.00911990238014,-0.0715477651779,0.0180404310815,0.293450415134,0.11818780005,0.509639024734,-0.0404273718596,0.519479811192,-0.271746337414
2017/07/09/09:33:06.909825,237157,1499563989,709132387,,0.885484806934,-0.0301465639946,0.20672799219,0.664073669963,0.72779614727,0.024160349861,0.169514619948,0.019916773627,-0.0176024533698,-0.00105613399392,-0.0164425396784,-0.0608800840896,-0.0138123127186,-0.0424090474844,-0.519918560982,1.22129070759,0.139165252447,0.369243234396,-0.192352354527
2017/07/09/09:33:06.919805,237158,1499563989,719133831,,0.885540490669,-0.0297291505596,0.206424186154,0.663771580181,0.728137469922,0.0243493459782,0.169204679576,0.0156377697373,-0.0239604706652,0.00887550507558,-0.0205935622263,-0.0582470537786,-0.00138848219548,0.13565248251,0.0404970943928,0.7741984725,0.0924728363752,0.289589136839,-0.138490349054
2017/07/09/09:33:06.929749,237159,1499563989,729131928,,0.885938485357,-0.0302379094572,0.206925920023,0.663408654178,0.728251961266,0.0241917252116,0.170155220039,0.0130332302827,-0.0178620361718,0.00992511170115,-0.0294318362816,-0.0441182983748,0.00713833857457,0.548580348492,0.261053770781,1.07202422619,-0.127228006721,0.378701925278,-0.293138563633
2017/07/09/09:33:06.940039,237160,1499563989,739132333,,0.885518674424,-0.0299426386335,0.205885458559,0.663665726566,0.728236692795,0.024358413263,0.169191578848,0.012598310926,-0.0158494966767,-0.00593804148645,0.00535062902599,-0.0464934615652,-0.040174028324,0.238990694284,0.239409670234,0.597459614277,-0.0760137066245,0.403451144695,-0.276474535465
2017/07/09/09:33:06.949969,237161,1499563989,749135102,,0.886269390554,-0.0298068811865,0.206599599886,0.663995809762,0.727727719967,0.0251889881102,0.169963069778,0.0168192747755,-0.0116606041113,0.00124591096995,-0.00760573023943,-0.0511364675809,0.00416323568611,1.17101585865,0.518738746643,1.15123772621,-0.116776235402,0.774408638477,-0.355758070946
2017/07/09/09:33:06.959999,237162,1499563989,759132091,,0.88612725835,-0.0306288729345,0.206721056839,0.663831923361,0.727821196192,0.0247256952492,0.170270737049,0.0325561262777,-0.00651498674692,0.0136792154875,-0.0107055918188,-0.0923937089126,0.0110593918006,0.426319301128,-0.303208559752,0.892211556435,0.0490533486009,0.586652994156,-0.271805435419
2017/07/09/09:33:06.970352,237163,1499563989,769139713,,0.886153161518,-0.0308508040601,0.206360172065,0.663975255422,0.727659854431,0.0245276341306,0.17043001966,0.0210485513224,-0.015423978493,0.00346706812308,-0.0154865136113,-0.0640842651849,-0.0140810644325,0.12034868449,0.0506485104561,1.1313829422,-0.0120972916484,0.531527221203,-0.265747666359
2017/07/09/09:33:06.979934,237164,1499563989,779138127,,0.886494042867,-0.0311246338486,0.206737585513,0.663677788915,0.727820390266,0.0247104348655,0.170876172777,0.013059332043,-0.0325067829978,-0.00730530566034,-0.00545914635903,-0.0501432702433,-0.0088108765987,-0.549931406975,0.652404904366,1.20878612995,-0.230645209551,0.21109777689,-0.29382750392
2017/07/09/09:33:06.992191,237165,1499563989,789133033,,0.886647295733,-0.0310519158222,0.206503947432,0.663692787485,0.72776536098,0.0248739603585,0.171028504331,0.00158329836183,-0.0196136495597,-0.00399875063279,-0.0106618890656,-0.0134198872281,-0.0107329690084,-0.482814252377,0.437930107117,1.08688902855,-0.0656628087163,0.192327737808,-0.191963195801
2017/07/09/09:33:06.999826,237166,1499563989,799133472,,0.886950582928,-0.0306359629138,0.206615682039,0.663564630775,0.727856400474,0.0253928524534,0.171062106024,0.0178104114097,-0.00522084368157,0.0116491153578,0.000200807607643,-0.0574947312903,-0.00988461904509,-0.239936679602,0.58272087574,1.1486440897,-0.139176890254,0.271895468235,-0.256662487984
2017/07/09/09:33:07.009919,237167,1499563989,809131558,,0.886607564055,-0.0308280653661,0.206064052534,0.6638622368,0.727698350135,0.0253902296551,0.170579535698,0.0104124227826,-0.0210314457412,0.0153282122252,-0.0388417387452,-0.0422798344666,0.00668772352483,-1.4825720787,0.554229974747,0.728882730007,-0.179943546653,-0.162990152836,-0.198787927628
2017/07/09/09:33:07.019933,237168,1499563989,819125904,,0.887245427258,-0.0304354913659,0.206989978824,0.663436491172,0.727892736712,0.025700311549,0.171358338021,0.0121734543837,0.005276772263,-0.00261015093979,0.0119820660571,-0.0321504007954,0.00162584776845,0.130385041237,0.869143605232,1.15669357777,-0.238629519939,0.406239748001,-0.332494139671
2017/07/09/09:33:07.030020,237169,1499563989,829130263,,0.886467856513,-0.03189756567,0.206416379998,0.663853875811,0.727598618721,0.0251055402497,0.171078910022,0.0208456166436,0.00595743180646,0.00534615923518,-0.00564599893092,-0.0490155483025,0.0312813745976,-0.49763289094,-0.184170812368,0.90011459589,-0.0637006983161,0.309767365456,-0.250181615353
2017/07/09/09:33:07.039739,237170,1499563989,839132390,,0.887138190807,-0.0315030601026,0.206478808804,0.663779694344,0.72755620613,0.0257676653771,0.171448277095,-0.00380724680926,-0.0326769252716,-0.0199818056514,-0.00758135004855,-0.00792786387387,-0.0213056373388,-0.279293656349,-0.290766626596,1.51127338409,0.0165316537023,0.34283682704,-0.22143304348
2017/07/09/09:33:07.049833,237171,1499563989,849133346,,0.887800074659,-0.0308486222168,0.206737151033,0.663495325149,0.727708614865,0.0262788102556,0.171824181908,0.0090099368256,-0.0482077421609,0.00457159098717,-0.0288542450689,-0.0514751315733,-0.0392142630994,-0.0891427695751,1.65697860718,1.07305240631,-0.367701470852,0.259066522121,-0.315560877323
2017/07/09/09:33:07.059691,237172,1499563989,859134215,,0.887406212407,-0.0316466595969,0.206425607216,0.663752330513,0.727454994652,0.0254915083127,0.172024002682,0.0266663459579,-0.000856053415261,0.00357135092994,0.00893278930101,-0.0701935800321,0.00623851113622,0.277572214603,0.584452033043,0.962264120579,-0.133576214314,0.497399479151,-0.279092013836
2017/07/09/09:33:07.069874,237173,1499563989,869127577,,0.887489713228,-0.0321836684901,0.206501503796,0.664009102882,0.72715434517,0.0257876043825,0.172259888107,0.0238776079457,-0.0027730137294,0.0173085896098,-0.0199552308987,-0.0628197499299,-0.0118580123009,0.391383439302,0.198686093092,0.876741170883,-0.0411908105016,0.496376574039,-0.280456483364
2017/07/09/09:33:07.079732,237174,1499563989,879140293,,0.888014612539,-0.030863992332,0.206523966461,0.663453420146,0.727708548869,0.0264224094647,0.171964192428,0.0063306297836,-0.0154452141502,-0.0111443683137,0.00153607802602,-0.0202873567257,-0.0204284619549,-0.195307269692,0.466536432505,0.386834591627,-0.0291596874595,0.201036930084,-0.19083352387
2017/07/09/09:33:07.089816,237175,1499563989,889134504,,0.887700251898,-0.0318881948628,0.206770020572,0.664049588226,0.727126369016,0.0263068238619,0.172143367218,0.0103417048903,-0.00290077214909,-0.000622847238936,-0.00869999279451,-0.0217918539254,0.00450416852745,0.582256674767,0.149482578039,0.973192453384,0.0777996852994,0.547444701195,-0.225846767426
2017/07/09/09:33:07.099718,237176,1499563989,899134587,,0.888025401783,-0.031303709813,0.206024372822,0.663531095483,0.727627319354,0.0263157727956,0.172024560919,0.00739873712106,-0.0105016776307,-0.000616524853665,-0.00116447373656,-0.0256394126326,-0.00411878656731,0.252202033997,0.297840833664,0.320228070021,0.0279059782624,0.337839126587,-0.206597477198
2017/07/09/09:33:07.109738,237177,1499563989,909131674,,0.888041949719,-0.0316767051653,0.206638838304,0.663493256281,0.727572334529,0.0263634748079,0.172395371441,0.00471715554831,-0.0172275955022,-0.00447625061481,0.00701933800209,-0.0225617768941,-0.0263013099284,0.916168749332,0.431920170784,0.390326321125,0.0186318457127,0.637647986412,-0.232808515429
2017/07/09/09:33:07.119862,237178,1499563989,919127524,,0.887907069778,-0.0316669431853,0.206165264287,0.663857104651,0.727329960068,0.0263007401673,0.172026581837,-0.0185341192018,-0.0104868137883,-0.0338080298634,0.0241328785443,0.0448306231115,-0.00244945468573,0.731054484844,-0.0333502590656,0.687349379063,0.0757662430406,0.632962703705,-0.243075221777
2017/07/09/09:33:07.129818,237179,1499563989,929129791,,0.887949979336,-0.0319278649344,0.206617136217,0.663990550268,0.727113556174,0.0263120354664,0.17242419312,-0.00465881478944,0.00671138589001,-0.0234073924107,0.0340584414673,0.0222758277476,-0.0117646791966,1.36826860905,0.135437533259,1.17672538757,0.0723948255181,0.877695083618,-0.288664072752
2017/07/09/09:33:07.139761,237180,1499563989,939135049,,0.887596955282,-0.0328337924051,0.205807082906,0.663999572486,0.72716917702,0.0259068976146,0.172216109542,-0.00412019018251,-0.00708011279089,-0.018887193424,0.00305948954226,0.0146268961086,-0.0104008389989,0.716961681843,-0.557056307793,0.860068976879,0.0688341334462,0.747274756432,-0.309020221233
2017/07/09/09:33:07.149938,237181,1499563989,949130247,,0.887734161431,-0.0312311428112,0.205274215428,0.663772837523,0.727568021352,0.0266331263625,0.171292355502,-0.0093887936492,-0.0320876764,-0.004079495871,-0.0169043844292,0.00227617041894,-0.0377128051121,0.552392542362,0.84664607048,0.517762005329,-0.0889857262373,0.581164956093,-0.301315814257
2017/07/09/09:33:07.159843,237182,1499563989,959134663,,0.887141627281,-0.0327235340999,0.204923133035,0.664268228835,0.727128769499,0.0258985881688,0.171349747176,0.000449662753113,0.00439249222572,-0.0162350333854,-0.000427138036128,0.0181296560293,0.0269030529207,0.266259402037,-0.514679789543,0.705868303776,0.188093230128,0.504828333855,-0.164123237133
2017/07/09/09:33:07.169802,237183,1499563989,969126929,,0.887266684213,-0.0322153403626,0.204917254778,0.664186553391,0.727161861562,0.0256096592505,0.171569212674,-0.000606388846721,0.00841179877839,-0.0190778507318,0.0197154404106,0.0130997020255,0.000558864300209,0.64809525013,-0.187638938427,0.960046410561,0.134085685015,0.635434448719,-0.240447938442
2017/07/09/09:33:07.180073,237184,1499563989,979139252,,0.887028616339,-0.032589296425,0.204714014907,0.664330320269,0.727108282004,0.0257285842604,0.171221528335,0.00635430034574,-5.6146058821e-05,-0.0153171101085,0.0144130471639,-0.0108491173245,-0.00525987098854,0.0169720351696,0.0788116306067,0.534143447876,0.0228540822864,0.41427013278,-0.202400892973
2017/07/09/09:33:07.190134,237185,1499563989,989135127,,0.88776425246,-0.0317488137354,0.205016934035,0.664028354239,0.727286858216,0.0265082645562,0.171515254547,0.00770811120448,0.0135064205563,-0.0120358501293,0.0124100332189,0.00119259751759,0.00692905421739,0.401825845242,-0.312784582376,0.603169977665,0.199614390731,0.552567005157,-0.168321251869
2017/07/09/09:33:07.199829,237186,1499563989,999133837,,0.88792368392,-0.0320139245639,0.204985511925,0.663776406842,0.727466970379,0.0265279464125,0.171723489323,-0.00773000277362,-0.0175520839514,-0.0214133332442,-0.0175234863012,0.0223462319152,-0.0109782675027,0.565232753754,0.149574607611,0.7417948246,0.138280451298,0.547438383102,-0.181130081415
2017/07/09/09:33:07.209738,237187,1499563990,9126643,,0.887847434432,-0.0327806043107,0.205261266429,0.66407688214,0.727098690964,0.0258029426243,0.172231229332,-0.00303571525176,-0.0255583920609,-0.0187453918369,-0.0131456347178,0.00779351368172,-0.012574329434,1.25931620598,-0.242324322462,0.922130584717,0.203981980681,0.830997109413,-0.244084104896
2017/07/09/09:33:07.219871,237188,1499563990,19139861,,0.887264490301,-0.0333343494345,0.204062094679,0.664469961011,0.726923939005,0.0257356042292,0.17146118071,0.00441486691554,-0.00197894420722,-0.0161224699268,0.0148791552499,-0.00610051748914,-0.00385740966411,1.54228627682,-0.520804047585,0.297593027353,0.240469962358,0.925210654736,-0.23833039403
2017/07/09/09:33:07.229887,237189,1499563990,29126743,,0.887663923204,-0.0329904516571,0.204157882268,0.663951533863,0.727336349907,0.0261488146044,0.171657898975,0.00191967043407,-0.0100640009934,-0.0170473152788,0.00842471831781,0.00080075310993,-0.00769140015271,1.16152250767,-0.573938965797,0.492207199335,0.268650174141,0.764179706573,-0.18055935204
2017/07/09/09:33:07.239868,237190,1499563990,39138436,,0.887793131122,-0.0330488263713,0.204771472951,0.664471329701,0.726772225333,0.0263935320012,0.171998156848,-0.0024078467896,-0.0119017655016,-0.0218219797419,0.00853633134471,0.00549908745409,0.0014701234358,1.18533933163,0.112259790301,1.18241393566,0.0509665906429,0.773155331612,-0.291400462389
2017/07/09/09:33:07.249717,237191,1499563990,49133678,,0.887261798202,-0.0334571009363,0.203643897813,0.664589888568,0.726833796488,0.0259231803541,0.171350229111,0.002281442627,-0.0171278084274,-0.00889100941553,0.00746963057517,-0.0184020909349,-0.0170680470363,0.350606203079,0.0141265392303,0.538152396679,0.109778210521,0.466313689947,-0.180487558246
2017/07/09/09:33:07.259981,237192,1499563990,59131804,,0.887868345332,-0.0323436738601,0.203782473539,0.664210980256,0.72710863739,0.026629181257,0.171545008222,0.00556640583232,-0.00873089059158,-0.0225059050647,0.00329278298302,-0.0129712394896,-0.000999708473123,1.30464589596,0.310654819012,0.810113072395,0.0623085945845,0.835950255394,-0.295539140701
2017/07/09/09:33:07.269757,237193,1499563990,69130395,,0.888051729488,-0.0328425337426,0.203832219131,0.664568591978,0.726709115083,0.0267336413429,0.171836436858,0.0117179030534,0.00325148614285,-0.0161330738274,0.00130332473654,-0.0208037395742,0.00763295487438,0.602069854736,0.31167319417,0.869466006756,-0.0273758992553,0.574289679527,-0.247652947903
2017/07/09/09:33:07.279617,237194,1499563990,79139230,,0.887985515693,-0.0332883999876,0.203592212388,0.664378567404,0.72686935614,0.0265178962123,0.171926901503,0.0124584886476,-0.00778537869528,-0.0176198158379,0.0106521454972,-0.0313682456294,-0.00539337844747,0.628245890141,0.215455174446,1.15259301662,0.0574161037803,0.560310006142,-0.240732550621
2017/07/09/09:33:07.289674,237195,1499563990,89129745,,0.887614934754,-0.0337725635298,0.202897367064,0.664791222503,0.726604371081,0.0263920794311,0.171470628833,0.00772548448098,-0.0109218065009,-0.00413037684052,-0.013634726869,-0.0235855936308,-0.0150255977811,-0.018161483109,-0.3165538311,0.292832136154,0.0727958977222,0.342702567577,-0.171353816986
2017/07/09/09:33:07.300109,237196,1499563990,99132098,,0.888543478042,-0.0329023174235,0.203712598568,0.663908467033,0.727190642699,0.0269454416659,0.172317322829,0.0185661131114,-0.0155117028166,-0.00220942901564,0.000890726933592,-0.0515450073907,-0.0111298400256,1.08312225342,0.160005703568,1.37610352039,0.0984836146235,0.746167778969,-0.248716652393
2017/07/09/09:33:07.309823,237197,1499563990,109129691,,0.888745295933,-0.0332858005546,0.203867825203,0.663829720791,0.727150832504,0.0269421570625,0.172788566627,0.0252658155319,-0.000131891512167,-0.0117958724135,-0.00550606766097,-0.0513261659012,0.0283103282813,1.45879149437,0.26392275095,1.54126191139,0.0195452272892,0.982125580311,-0.354888617992
2017/07/09/09:33:07.319850,237198,1499563990,119143009,,0.888898601373,-0.0329515575131,0.203118795377,0.664309212478,0.726792452194,0.0272597193642,0.172403333352,0.0206267831828,0.0191124225167,-0.010277234507,0.0186643038884,-0.0355802381082,0.04365284218,0.980021238327,0.249959737062,1.04662632942,0.0695480629802,0.784457325935,-0.265753746033
2017/07/09/09:33:07.329797,237199,1499563990,129140185,,0.888653772429,-0.0331967046788,0.202933096167,0.664432037012,0.726721566907,0.0271427248065,0.172247220222,0.0170021807251,0.0160824392292,-0.0147626709931,0.0112337872764,-0.0224931759974,0.0179150189171,1.61128544807,-0.264975875616,1.07494926453,0.160284176469,1.08021688461,-0.328671455383
2017/07/09/09:33:07.339702,237200,1499563990,139133410,,0.888379398015,-0.0334353646502,0.202500586999,0.664137819533,0.727048442596,0.0267330531387,0.17206644837,-0.00234253335049,-0.0174249689391,-0.0205278291731,0.0132240730403,0.00345271563691,-0.0320220804574,1.599370718,-0.428712576628,0.689819157124,0.259451687336,1.0056540966,-0.257698953152
2017/07/09/09:33:07.350161,237201,1499563990,149129070,,0.888942772653,-0.0332496382744,0.203000016073,0.6637911522,0.727197701027,0.0268456756469,0.172754506685,0.00176320820612,-0.0411294932382,-0.0149150510446,-0.0187533293178,-0.018704639139,-0.0256889462077,1.21432733536,0.327513694763,0.521288752556,0.0370213240385,0.779757857323,-0.300288677216
2017/07/09/09:33:07.359736,237202,1499563990,159135878,,0.888877574024,-0.033527466652,0.202637436084,0.664068073555,0.726985999762,0.0269265238548,0.172568572305,0.0117854058706,-0.00637335029909,-0.00109396027632,-0.0140902510059,-0.0222820295871,0.0151040902195,-0.25567445159,0.264561712742,0.305199354887,-0.0165621191263,0.181259274483,-0.188016474247
2017/07/09/09:33:07.370116,237203,1499563990,169127614,,0.889629676786,-0.0333932851172,0.203359641701,0.663839091411,0.7269807372,0.0276276514475,0.173359110893,0.0211914631675,-0.0246859622082,0.0189744926,-0.0279027779457,-0.0706918003675,-0.0149280759647,-0.191593930125,0.934163212776,0.437453269958,-0.0635362416506,0.153862327337,-0.169662088156
2017/07/09/09:33:07.379965,237204,1499563990,179134641,,0.889291685737,-0.0341686301045,0.202571689363,0.664174937987,0.726745069566,0.0275508894557,0.173072828897,0.0238142981793,-0.0152242853283,0.00501626160129,-0.015228200348,-0.0716149643698,0.00256948983762,0.56517624855,-0.15893009305,0.152146190405,0.133397877216,0.557005167007,-0.224237501621
2017/07/09/09:33:07.390331,237205,1499563990,189132115,,0.889792952291,-0.0337489167908,0.202786593444,0.664064305806,0.72670772643,0.0276851212886,0.173631829342,0.0258993920411,-0.00907849986264,-0.0121471430311,-0.013298858717,-0.062368875048,-0.00188688339682,1.88406157494,-0.18358579278,0.700950026512,0.291432827711,1.04352271557,-0.23574654758
2017/07/09/09:33:07.399816,237206,1499563990,199126658,,0.889983576507,-0.0338521647856,0.202452971188,0.663935414459,0.726769886029,0.0276840085324,0.173864584834,0.0386360524321,-0.00647642788118,0.00233806682591,-0.0146514542914,-0.102065320375,-0.0036679254458,1.68598484993,-0.15801975131,0.826446890831,0.272326290607,1.02242124081,-0.258478999138
2017/07/09/09:33:07.409854,237207,1499563990,209126253,,0.890387034107,-0.0338364019597,0.203180614812,0.663792639922,0.726780373988,0.0281451762074,0.174291331479,0.0266946818307,-0.0141323800717,-0.00450791512332,-0.0150004838886,-0.0679974929307,0.00440737164333,2.06360220909,-0.0895009636879,1.23881578445,0.271178901196,1.18970394135,-0.288147509098
2017/07/09/09:33:07.419872,237208,1499563990,219132878,,0.891006079798,-0.0340900968822,0.20283285021,0.663687056864,0.72672987596,0.0287266758946,0.174808340849,0.0400914332792,0.0044251596053,0.00507354967379,-0.00333746023904,-0.0949026309287,0.0171796166841,1.22189497948,0.059466317296,0.650704622269,0.156901136041,0.731706857681,-0.243061810732
2017/07/09/09:33:07.429871,237209,1499563990,229128512,,0.890841601102,-0.0338734602624,0.203003061898,0.664125550117,0.726380386009,0.0287256761305,0.174595601417,0.0340965028181,0.0229919127104,-0.0123869709109,-0.00266708328797,-0.0559633019922,0.0555702079192,1.20719254017,-0.0808816850185,0.65551763773,0.205339580774,0.722495615482,-0.204490691423
