time,.header.seq,.header.stamp.secs,.header.stamp.nsecs,.header.frame_id,.pose.position.x,.pose.position.y,.pose.position.z,.pose.orientation.x,.pose.orientation.y,.pose.orientation.z,.pose.orientation.w,.twist.linear.x,.twist.linear.y,.twist.linear.z,.twist.angular.x,.twist.angular.y,.twist.angular.z,.wrench.force.x,.wrench.force.y,.wrench.force.z,.wrench.torque.x,.wrench.torque.y,.wrench.torque.z
2017/07/09/09:41:40.078798,288474,1499564502,879587335,,0.790879288016,0.576977200475,0.254945458123,0.592640644588,0.795171039241,0.0890237290231,0.0924924883756,0.111854058756,-0.256130715823,-0.00414372062138,-0.0200589261769,-0.00286563639346,-0.334133170606,3.61501169205,2.20185613632,1.32534885406,-0.842254221439,1.35445165634,-0.266444891691
2017/07/09/09:41:40.089189,288475,1499564502,889583301,,0.791733231138,0.574759835092,0.254381745471,0.593692574585,0.79444296593,0.0885018012685,0.0925036860914,0.086419155624,-0.22241753236,-0.00546927665251,-0.00579284095067,0.0232348380608,-0.30546802807,3.47316169739,2.25133275986,1.36745011806,-0.895682632923,1.26201796532,-0.327895343304
2017/07/09/09:41:40.098714,288476,1499564502,899580549,,0.791781838015,0.573796124642,0.254415619698,0.59467292878,0.79380117136,0.0886986493185,0.0915224438742,0.0975078557963,-0.236299545354,0.00489631346705,-0.0114517762557,0.00534591295902,-0.298256101401,3.89415812492,2.40088248253,1.38392543793,-0.916717410088,1.42082870007,-0.279333531857
2017/07/09/09:41:40.108813,288477,1499564502,909591344,,0.793363724122,0.570476763804,0.254717315121,0.596872274406,0.792047478204,0.0886385009866,0.0924526714537,0.0942982917414,-0.224449245863,0.000727940827942,0.0252324068207,0.00989297412502,-0.3281188747,4.12198925018,2.46237206459,1.41247951984,-0.927799999714,1.50652348995,-0.298124700785
2017/07/09/09:41:40.118900,288478,1499564502,919585637,,0.794362482287,0.568276593961,0.254470737864,0.597826970844,0.791356509832,0.0882628297853,0.0925605756015,0.0970405639492,-0.245051309079,-0.00158379241112,-0.0022831766437,0.0139488276164,-0.343583504681,4.07718753815,2.70136857033,1.55573487282,-1.10486376286,1.50320267677,-0.35858464241
2017/07/09/09:41:40.129067,288479,1499564502,929584144,,0.795147435688,0.566261756159,0.254936609348,0.598565752815,0.790790707046,0.0882012250564,0.0926803167043,0.113080177045,-0.252444573709,0.00619265562128,-0.0121545891421,-0.0217409528077,-0.33321153844,3.84743762016,2.39633202553,1.4734685421,-0.951033890247,1.43125522137,-0.334265947342
2017/07/09/09:41:40.138898,288480,1499564502,939588403,,0.796832756886,0.56261162637,0.254473834629,0.601032384753,0.788932161852,0.0878589559591,0.092881216244,0.0966499534183,-0.226343430406,0.00916573277466,0.0165843516729,-0.00718094774097,-0.307713759075,3.48693323135,2.16323828697,1.48769664764,-0.829763770103,1.34668886662,-0.285059511662
2017/07/09/09:41:40.148760,288481,1499564502,949584315,,0.797847257188,0.560184351029,0.254397006103,0.601793207781,0.788344218607,0.0877217496288,0.0930764347203,0.0995623851107,-0.273034245241,-0.0151296380433,-0.0193530287664,0.0368851378958,-0.377611696567,3.56180214882,2.15476727486,1.3433688879,-0.902506709099,1.33107721806,-0.32131934166
2017/07/09/09:41:40.158839,288482,1499564502,959594663,,0.798120959359,0.558667358724,0.254643475729,0.6027433616,0.787636446047,0.0875846666823,0.0930494227122,0.105532081435,-0.263082550456,0.00300848809216,-0.0181506188337,-0.00525353670619,-0.345480626365,3.34552311897,1.86284840107,1.40971231461,-0.704830944538,1.29844820499,-0.256474494934
2017/07/09/09:41:40.168730,288483,1499564502,969583832,,0.799268372046,0.556056591019,0.254516485297,0.604274890443,0.786473291069,0.0874403516175,0.0930903009162,0.100512159958,-0.268687032563,0.00975312914171,-0.00745380331719,0.00781085489685,-0.370458141862,3.2047662735,1.92729139328,1.37586593628,-0.792182326317,1.21238565445,-0.27926748991
2017/07/09/09:41:40.178957,288484,1499564502,979585648,,0.800134539487,0.553305636395,0.254059682036,0.605504514035,0.78559688697,0.0869836615377,0.0929282373231,0.106888185495,-0.266513572216,0.00183966269639,0.0104220213922,0.00241217574526,-0.370556839855,2.81425666809,1.88594543934,1.2467238903,-0.752408325672,1.02759861946,-0.293201446533
2017/07/09/09:41:40.188928,288485,1499564502,989578788,,0.800950203772,0.550534085671,0.253994084672,0.607285621095,0.784260785204,0.0863917971108,0.0931431832953,0.103571540464,-0.2628193579,-0.0103591394104,0.000353835042757,0.00540881245627,-0.339996856292,3.2775785923,2.03098106384,1.35629248619,-0.841691672802,1.21862769127,-0.299466371536
2017/07/09/09:41:40.199083,288486,1499564502,999580568,,0.802553545554,0.54765686167,0.254874942138,0.608520365014,0.783151422862,0.0869033117027,0.0939394946155,0.0972162276105,-0.264373243099,-0.00420751502173,-0.0100486942798,0.0121347964788,-0.37040425139,3.5713160038,2.24384212494,1.39145791531,-0.900691449642,1.33957588673,-0.320533514023
2017/07/09/09:41:40.209002,288487,1499564503,9584287,,0.803341023423,0.545271155333,0.254464844204,0.610181944406,0.781945761162,0.0866673871275,0.0934215463947,0.112579002673,-0.282922494303,0.000574116847288,-0.014100125591,-0.00818356269801,-0.354658729721,3.54249835014,1.81843960285,1.47716498375,-0.675810158253,1.38008391857,-0.227764755487
2017/07/09/09:41:40.218684,288488,1499564503,19586336,,0.804641505501,0.542054765587,0.254520396133,0.611738762926,0.780689866222,0.0862839655234,0.0940962061216,0.107204729369,-0.281008791887,-0.00796129857516,-0.0178600451554,-0.000317136604609,-0.3619415523,3.09627914429,1.54080891609,1.3111089468,-0.603300690651,1.1689709425,-0.248961418867
2017/07/09/09:41:40.228765,288489,1499564503,29582771,,0.805224481622,0.540157134521,0.25384143275,0.612389543427,0.780255380382,0.0859517536679,0.093770381929,0.0950884195713,-0.27726291714,0.00443936595456,0.000147234756629,0.00689582941316,-0.377677396519,2.58222484589,1.6577078104,1.16133522987,-0.658743202686,0.929966270924,-0.28976264596
2017/07/09/09:41:40.238986,288490,1499564503,39587717,,0.806548573569,0.537282017213,0.254943635876,0.614215419128,0.778679475698,0.0862883613368,0.0946150713662,0.100208403727,-0.267715365741,0.00634371416707,0.0174372312594,-0.000163000715944,-0.358164100275,2.72398638725,1.8052457571,0.993567466736,-0.70223659277,1.01118791103,-0.265930324793
2017/07/09/09:41:40.248732,288491,1499564503,49582219,,0.807105238444,0.534782028281,0.254388292934,0.615049949766,0.778115430058,0.0857938448824,0.0942833653365,0.100746999053,-0.311576395228,-0.0100785610777,-0.0287134351239,0.0229908768387,-0.400768608915,2.1005563736,1.58714342117,0.696925580502,-0.663202226162,0.719119489193,-0.299465298653
2017/07/09/09:41:40.258951,288492,1499564503,59588486,,0.808460555014,0.531633246656,0.254791369146,0.617245844949,0.776321349333,0.085903023497,0.0946224075879,0.0991363613604,-0.29126128786,-0.0129013796195,-0.00696390838567,0.0204904611912,-0.384657848167,2.44251275063,1.59436225891,0.830284953117,-0.632302820683,0.913102805614,-0.251092910767
2017/07/09/09:41:40.268878,288493,1499564503,69584116,,0.809390049283,0.527880181097,0.254406523986,0.618734440585,0.775188260508,0.0848807964095,0.0951110046476,0.0987481399017,-0.30946953485,-0.0109985523852,-0.0103349258537,0.0180448951336,-0.417711704951,2.74187231064,1.57744836807,0.699903726578,-0.618821263313,0.98012316227,-0.281785070896
2017/07/09/09:41:40.278943,288494,1499564503,79595215,,0.809885051097,0.526060963188,0.253733132055,0.619893834646,0.774353432897,0.0847459899964,0.0944802196627,0.0938024315012,-0.315592442577,-0.00889416529104,-0.0386472308324,0.0226184373736,-0.405446498326,2.33289861679,1.39574933052,0.677221894264,-0.591747999191,0.812336921692,-0.268518775702
2017/07/09/09:41:40.288704,288495,1499564503,89582334,,0.810791414418,0.522886048153,0.253799944721,0.621278732944,0.773236527168,0.08450015311,0.0947509006306,0.0945834700161,-0.310143706435,-0.0159538572735,-0.00335862790596,0.0347369693169,-0.401985336161,2.36971211433,1.12045884132,0.432667195797,-0.400477468967,0.856215596199,-0.1788636446
2017/07/09/09:41:40.298949,288496,1499564503,99607328,,0.812266718243,0.519878057265,0.253920034228,0.623080382511,0.771730137028,0.0846839221895,0.0950371814321,0.0908055878231,-0.300007366123,0.00440692574825,0.0041287031059,0.0173263223721,-0.388495628775,2.04041457176,1.1224514246,0.478486299515,-0.411081880331,0.739529311657,-0.211122021079
2017/07/09/09:41:40.308797,288497,1499564503,109581404,,0.813247327752,0.51673776879,0.254008036862,0.624639945689,0.77046190121,0.0844039464032,0.0953381920582,0.111332340387,-0.331059017333,0.00233223979641,-0.00818580609415,-0.0143607229924,-0.435517077063,2.44376063347,1.46622109413,0.530741870403,-0.575522899628,0.903732538223,-0.23042434454
2017/07/09/09:41:40.318793,288498,1499564503,119582883,,0.814180756005,0.513325117649,0.254222444593,0.626123447055,0.769266043634,0.0842547735295,0.0953955779793,0.0959434473745,-0.331653653138,-0.0220562645151,-0.0211946765136,0.0336059154136,-0.417266292228,2.66082429886,1.65500402451,0.426964312792,-0.642603576183,0.976147174835,-0.277122437954
2017/07/09/09:41:40.328777,288499,1499564503,129583157,,0.814852977043,0.509648390868,0.253171553906,0.627939335938,0.767917549623,0.0827732015456,0.095621255321,0.0811641079866,-0.336585205943,-0.0324356199342,-0.0363183545514,0.0657719162133,-0.431746913632,2.46720671654,1.43273639679,0.367515027523,-0.599597811699,0.885326802731,-0.279433339834
2017/07/09/09:41:40.339211,288500,1499564503,139590451,,0.815158174586,0.507459760726,0.253071238685,0.628841335294,0.767232861245,0.0826794823652,0.0952702201485,0.0782526991892,-0.319253945326,-0.0259156069274,-0.0263384481412,0.0525180479241,-0.409104967431,2.21140050888,1.44523537159,0.166140049696,-0.605866730213,0.771531820297,-0.283543467522
2017/07/09/09:41:40.349134,288501,1499564503,149586925,,0.816285730619,0.504551071086,0.253417728856,0.630549399288,0.765803252788,0.0827425174463,0.0954280298613,0.0723961372102,-0.309824930958,-0.0236961981267,-0.0185824666584,0.0557888417584,-0.406056006594,2.54780912399,1.52366662025,0.20339307189,-0.628605782986,0.904685556889,-0.293798089027
2017/07/09/09:41:40.358791,288502,1499564503,159588817,,0.817268803218,0.500719633121,0.253185802831,0.632268409012,0.764390460328,0.0821208038716,0.0959169260164,0.0856890817306,-0.327363606666,-0.0146868756064,-0.023949088638,0.0265247362048,-0.410834809702,2.89272165298,1.62348616123,0.430050432682,-0.683564603329,1.08848214149,-0.331497788429
2017/07/09/09:41:40.368774,288503,1499564503,169580085,,0.817315048431,0.497690158741,0.251919917564,0.633925471611,0.763234693101,0.0809724141281,0.0951565438654,0.0799701219349,-0.337866155859,-0.0266728248119,-0.0515753565336,0.0459959763924,-0.418949252328,2.71135306358,1.41895449162,0.271561294794,-0.566113054752,0.989820182323,-0.321962326765
2017/07/09/09:41:40.378743,288504,1499564503,179584493,,0.818445090908,0.494547431685,0.252387337249,0.635153188967,0.762127831576,0.0809778031032,0.0958341812007,0.0742704918766,-0.336729001366,-0.029466654789,-0.0203381058769,0.0639694371786,-0.434713605565,3.14205408096,1.62138640881,0.415714621544,-0.659186959267,1.18731331825,-0.287212461233
2017/07/09/09:41:40.388985,288505,1499564503,189581006,,0.819383903269,0.491479840003,0.252214123809,0.636502153653,0.760994527167,0.0806384171167,0.0961757958202,0.0784760778993,-0.342239878708,-0.0278270408279,-0.0370363743378,0.049001523808,-0.426238301301,2.8955848217,1.41516411304,0.181447595358,-0.571792006493,1.08676862717,-0.304328799248
2017/07/09/09:41:40.399063,288506,1499564503,199581847,,0.819930994339,0.487274526678,0.251747987665,0.638595058991,0.759345105732,0.0796477494845,0.0961644270748,0.0636721343616,-0.343234579482,-0.0447891990005,-0.0303911976384,0.0920283034994,-0.434675683356,3.15682268143,1.39972507954,0.1477124542,-0.594337463379,1.19602620602,-0.285899996758
2017/07/09/09:41:40.409000,288507,1499564503,209583060,,0.820325596005,0.485083105306,0.251197573839,0.639739626106,0.758474153367,0.0795400270234,0.095517294585,0.075798979197,-0.321538453794,-0.0218276508959,-0.00487543041902,0.0382788619244,-0.402785857685,3.17589879036,1.58297729492,0.293164432049,-0.681718945503,1.22616696358,-0.322933405638
2017/07/09/09:41:40.418692,288508,1499564503,219581349,,0.821494711656,0.481008553417,0.250889769667,0.641502049781,0.756991536331,0.0788468347461,0.0960318212906,0.06945465691,-0.32506361502,-0.0335294363527,-0.0299602817508,0.0536409804472,-0.376914178005,3.39761424065,1.50912320614,0.285811692476,-0.590147733688,1.34547388554,-0.285176634789
2017/07/09/09:41:40.428745,288509,1499564503,229583533,,0.821639221331,0.477854424319,0.250432989997,0.643137377484,0.755740312567,0.0781896660252,0.095484395427,0.0731977721303,-0.354184712047,-0.038812054513,-0.0460121851542,0.0602731578072,-0.452105666557,3.54826259613,1.67217874527,0.299822032452,-0.770130574703,1.36315214634,-0.389975428581
2017/07/09/09:41:40.438846,288510,1499564503,239578696,,0.822104386162,0.475409523381,0.249672304802,0.644601377718,0.754563487307,0.0777051412884,0.0953148387367,0.0667115271574,-0.324755821977,-0.0171110624279,-0.020004326678,0.0493336239962,-0.403485519704,2.72781515121,1.39756417274,0.353345185518,-0.576727688313,1.07912433147,-0.303977876902
2017/07/09/09:41:40.449016,288511,1499564503,249584689,,0.823136019684,0.472001695559,0.250156936318,0.646155770072,0.753190277499,0.0777570619935,0.0956083991783,0.0645837213255,-0.330583254682,-0.0253592179842,-0.0147664019908,0.0581631236827,-0.435812893772,3.4228272438,1.61169028282,0.420868098736,-0.745721757412,1.33968055248,-0.374833613634
2017/07/09/09:41:40.458808,288512,1499564503,259593257,,0.823895499281,0.468370564591,0.249442699463,0.648117495683,0.751575012195,0.0769763964164,0.095673126989,0.0748728172888,-0.337624991481,-0.0271869306706,-0.0057125389417,0.0471877557994,-0.447542388984,3.28520989418,1.45612883568,0.421987473965,-0.690347194672,1.28392863274,-0.36152240634
2017/07/09/09:41:40.468765,288513,1499564503,269582411,,0.824187996457,0.465323912942,0.249080878944,0.649310127126,0.75060205433,0.0761989578041,0.0958469283598,0.073535901138,-0.338555795379,-0.0362655189772,-0.0262933298613,0.0486323491102,-0.428103403655,3.44542622566,1.683557868,0.503235638142,-0.736045062542,1.39006900787,-0.348826140165
2017/07/09/09:41:40.478883,288514,1499564503,279585237,,0.825287018458,0.461758759395,0.24933111812,0.651200857333,0.748938584886,0.0764285122758,0.0958494756865,0.0608257189326,-0.370613085852,-0.0521231557655,-0.0347425859288,0.0871277157997,-0.481969035501,3.49518799782,1.54209709167,0.457835674286,-0.733798027039,1.41356182098,-0.376185953617
2017/07/09/09:41:40.489356,288515,1499564503,289588417,,0.826041870589,0.45894590083,0.249255695445,0.652064015686,0.748179289072,0.0762676019985,0.096039178135,0.0752679395825,-0.333873323018,-0.0209034567559,0.00441740271426,0.0285929438008,-0.428805387548,3.0078625679,1.34748661518,0.351373195648,-0.621991634369,1.24311256409,-0.337470531464
2017/07/09/09:41:40.498720,288516,1499564503,299582216,,0.826936889338,0.45478243279,0.248916192943,0.654253453577,0.746300476621,0.075452320384,0.0964103958418,0.079156717391,-0.319136301971,-0.00826090705061,0.0158459351029,0.00028806444104,-0.409414686951,2.63062405586,1.26915431023,0.382281631231,-0.594196081161,1.1649749279,-0.310965657234
2017/07/09/09:41:40.508742,288517,1499564503,309582833,,0.827412413824,0.452088912244,0.248600136124,0.65586874917,0.744937859315,0.0753703249594,0.0960368873766,0.067553856751,-0.364461880258,-0.0273082542992,-0.040975378765,0.0503388416126,-0.465461252952,2.45910215378,1.16601657867,0.370993852615,-0.560031056404,1.08884167671,-0.316070318222
2017/07/09/09:41:40.518871,288518,1499564503,319587097,,0.828160560611,0.447947550825,0.248175861146,0.657200055393,0.743795157741,0.0746568843366,0.0963493649915,0.0661420763676,-0.371832281068,-0.0177987612918,-0.0290813057785,0.04599235639,-0.464455544056,2.20580148697,1.05749845505,0.374346494675,-0.518797874451,1.01542365551,-0.287439346313
2017/07/09/09:41:40.528779,288519,1499564503,329581104,,0.829368393847,0.444725880932,0.248167319986,0.65872112878,0.742380523712,0.0747350205865,0.0968106874797,0.0657433765484,-0.349103907086,-0.0264337308295,-0.0226044566942,0.0415530863063,-0.429988413364,2.34127783775,0.755893945694,0.310618788004,-0.325351923704,1.08860886097,-0.244542986155
2017/07/09/09:41:40.539026,288520,1499564503,339590174,,0.829449347633,0.441907024351,0.24800620756,0.660487920721,0.740916318563,0.0742363487118,0.0963726102046,0.078399988043,-0.356581218964,-0.0173529058544,-0.0144466097662,0.00868892450852,-0.4369107012,2.54082083702,1.10297787189,0.412923693657,-0.546805500984,1.13968479633,-0.324649661779
2017/07/09/09:41:40.549016,288521,1499564503,349580244,,0.830306882961,0.438047567275,0.247766890056,0.662521401103,0.739131150479,0.0739461345817,0.0963457557523,0.0818845396012,-0.349551928601,-0.00704380053315,0.000528929490929,3.97945338151e-05,-0.445966361749,2.66528463364,1.27476620674,0.468011528254,-0.622726142406,1.17439842224,-0.370860755444
2017/07/09/09:41:40.558852,288522,1499564503,359584324,,0.831218120245,0.434579270287,0.248301862704,0.66401813079,0.737720755606,0.073923987379,0.0968671916638,0.0621816117763,-0.357832139674,-0.0235924214534,-0.00540489672057,0.0531698687759,-0.468928923367,2.92673587799,1.36254823208,0.536968767643,-0.648115873337,1.2838602066,-0.360496044159
2017/07/09/09:41:40.569125,288523,1499564503,369580936,,0.831808918581,0.431266374923,0.248058770307,0.665438989193,0.736474005542,0.0733249833506,0.0970589389938,0.061926834702,-0.377941560677,-0.0253629431703,-0.0308890482548,0.0550277138634,-0.491932768822,2.34331345558,1.10169196129,0.417554080486,-0.527339696884,1.0604184866,-0.32245439291
2017/07/09/09:41:40.578962,288524,1499564503,379587211,,0.832028987435,0.427536853371,0.246969825104,0.667247072199,0.734991309433,0.0723395149214,0.0966235700096,0.0692943112743,-0.358539848542,-0.00705633305906,-0.0248769081886,0.0145488981312,-0.442440920873,2.23461675644,1.02747261524,0.503078699112,-0.523528635502,1.01378619671,-0.346363961697
2017/07/09/09:41:40.589063,288525,1499564503,389582765,,0.833073379728,0.424397551559,0.247558347215,0.669350316979,0.732983768214,0.0729727416877,0.0968500266699,0.0432015223157,-0.328506058219,-0.0402587327643,0.00461418702488,0.0798293803476,-0.417796209946,2.0148935318,0.781790673733,0.458420574665,-0.360996037722,0.96524554491,-0.245549917221
2017/07/09/09:41:40.598897,288526,1499564503,399586244,,0.833719287995,0.420756279959,0.247511129359,0.670535649285,0.731906947552,0.072303304954,0.0972954020238,0.0834419208199,-0.357274865431,-0.00173757248495,0.0198076394974,-0.019429897777,-0.475835548624,2.57113456726,0.804976761341,0.521612286568,-0.43970400095,1.179271698,-0.311234772205
2017/07/09/09:41:40.608850,288527,1499564503,409584190,,0.834104324775,0.417906210198,0.246447682079,0.672141980896,0.73054373646,0.0719622533953,0.096708017885,0.0698096736931,-0.356286173928,-0.00794451432642,-0.0107717186657,0.00631597481572,-0.450255160794,2.34100580215,1.08934998512,0.549318671227,-0.548489451408,1.07351863384,-0.334237158298
2017/07/09/09:41:40.618675,288528,1499564503,419582313,,0.834833363793,0.414937319116,0.247142663611,0.673132469376,0.72956820773,0.0719955876336,0.0971573172881,0.0666593681023,-0.351415662117,-0.0027253836234,-0.0115070886067,0.00401279620058,-0.434978120388,1.90414428711,0.752956569195,0.314190417528,-0.414139300585,0.891223430634,-0.284074008465
2017/07/09/09:41:40.629054,288529,1499564503,429581614,,0.835390084487,0.411189637309,0.246745085117,0.675089736176,0.727805450654,0.0714935010777,0.0971686853525,0.0605322225408,-0.35629089247,0.00174710593581,-0.0245929139242,0.00695015452908,-0.438382277228,1.61673212051,0.769426941872,0.357225209475,-0.398915886879,0.792353570461,-0.285866349936
2017/07/09/09:41:40.638884,288530,1499564503,439590102,,0.836096320693,0.407169382394,0.246704246811,0.676846328686,0.726134647272,0.0709414524587,0.0978510689687,0.0463907387311,-0.375674344989,-0.0129073327692,-0.0291114581031,0.052012485486,-0.488002083984,1.52951610088,0.720075011253,0.159626364708,-0.390173614025,0.729353010654,-0.307198703289
2017/07/09/09:41:40.648897,288531,1499564503,449582063,,0.836747667866,0.403871756102,0.247097604761,0.678460606911,0.724621303168,0.0710131079319,0.097838184601,0.0490289276391,-0.359138353107,-0.0112260311337,-0.0122162170846,0.0379050965814,-0.473781559786,1.14753842354,0.551146030426,0.079349398613,-0.303016155958,0.576334536076,-0.258164167404
2017/07/09/09:41:40.658906,288532,1499564503,459589120,,0.836451882376,0.400184083001,0.246060460088,0.679811287327,0.723551025549,0.0695677681584,0.0974210074029,0.0545333416615,-0.359510032501,-0.0186133465994,-0.0201554903481,0.0279557469529,-0.461556567084,1.990239501,0.93770813942,0.384384959936,-0.466802239418,0.919639289379,-0.323720157146
2017/07/09/09:41:40.669021,288533,1499564503,469584188,,0.837368114357,0.397696066146,0.246550517416,0.681236812093,0.72213943543,0.0702791842392,0.0974262690913,0.0516878897762,-0.359597398349,-0.0176625836373,-0.0091535446846,0.0326827127145,-0.435740715402,1.49254393578,0.858868002892,0.267062366009,-0.446587413549,0.719898998737,-0.326860338449
2017/07/09/09:41:40.678763,288534,1499564503,479593926,,0.838122269739,0.393849130808,0.246887549073,0.683038582917,0.720375490778,0.0701861309486,0.0979354560654,0.0603343139892,-0.358904496197,-0.00318759904899,0.00493999135357,0.00480397186096,-0.479529166748,1.73735284805,0.766799688339,0.24901625514,-0.418356060982,0.822339892387,-0.323693066835
2017/07/09/09:41:40.688897,288535,1499564503,489587392,,0.838162984601,0.389815291919,0.245549784258,0.684951527548,0.718745561103,0.0686895579624,0.0976113104681,0.0458629043251,-0.349892591584,-0.0139315256363,-0.000283423494822,0.0308062307958,-0.460604167676,0.64475184679,0.481959581375,0.105571627617,-0.290062367916,0.398918777704,-0.275739789009
2017/07/09/09:41:40.698893,288536,1499564503,499588497,,0.838824917598,0.387072276475,0.245924492583,0.68625769897,0.717447968412,0.0690405362825,0.0977352933988,0.0538270685685,-0.365601388751,-0.0128338910549,-0.023380504287,0.0218641441514,-0.452776880793,0.386851042509,0.432858705521,-0.0489962995052,-0.257002919912,0.290089309216,-0.275353908539
2017/07/09/09:41:40.708700,288537,1499564503,509584710,,0.839615000176,0.382713196814,0.246078463931,0.688174064127,0.715546591081,0.0686911707889,0.0984431638629,0.0602448176639,-0.378066843663,-0.00202400661198,-0.00442618746511,-0.00551375540361,-0.478438198358,0.857505738735,0.437815338373,0.11597199738,-0.311913192272,0.49308398366,-0.30813574791
2017/07/09/09:41:40.719048,288538,1499564503,519581386,,0.839964876019,0.379131398477,0.24564515097,0.689679933752,0.714154012091,0.0681548233209,0.0983898168071,0.0564786828414,-0.353974417293,0.00119648945476,0.0139176245667,-0.0163397263238,-0.465329471726,1.00826001167,0.783057928085,0.340460181236,-0.427704811096,0.58484941721,-0.363706171513
2017/07/09/09:41:40.729367,288539,1499564503,529583196,,0.840890326676,0.375849780768,0.245855941259,0.691151676202,0.712653087428,0.0684294150074,0.0987540005473,0.0528806784706,-0.348279503175,-0.00613776519762,-0.00201592375231,0.00142745988116,-0.444753871802,1.41844344139,0.950449287891,0.509506106377,-0.513678848743,0.76060372591,-0.369883298874
2017/07/09/09:41:40.738906,288540,1499564503,539582242,,0.841164503948,0.372790935002,0.246345834443,0.692670098135,0.711170652569,0.0682006320144,0.0989601529225,0.0378183468159,-0.34644900227,-0.0110285300706,0.00296314657377,0.0330770581841,-0.43263152436,1.6099190712,0.797146320343,0.582074701786,-0.387482017279,0.837359189987,-0.327731072903
2017/07/09/09:41:40.748916,288541,1499564503,549584767,,0.841744214515,0.368811991509,0.246232566134,0.694237961744,0.709625002731,0.0678538919845,0.0993068845331,0.0330903356702,-0.360400558566,-0.00827164365551,-0.00895851193876,0.0408352556956,-0.461373918242,1.74897623062,0.832178175449,0.524156928062,-0.438237518072,0.857199132442,-0.352090895176
2017/07/09/09:41:40.758764,288542,1499564503,559588317,,0.841643321565,0.364978680228,0.245178099641,0.696239150201,0.707855396597,0.0668286309721,0.0986190514968,0.0368599378738,-0.359153000475,-0.0116306327533,-0.0142001399649,0.032787115826,-0.441728424488,1.11994338036,0.588842451572,0.534641623497,-0.308511018753,0.579266667366,-0.335778176785
2017/07/09/09:41:40.769038,288543,1499564503,569584626,,0.842197419689,0.362380042241,0.245777551992,0.697559225486,0.706510535412,0.0671135248268,0.098740898697,0.0511898727363,-0.373062978547,-0.0223052691833,-0.00202868703401,0.0173344258564,-0.470252749811,1.3740477562,0.57851588726,0.585664451122,-0.319016516209,0.712497830391,-0.355493664742
2017/07/09/09:41:40.778859,288544,1499564503,579584507,,0.842524008142,0.358724510959,0.245469637942,0.698528794671,0.705562296587,0.0664979983766,0.0990827172714,0.0456404851111,-0.3645737898,-0.00919617398902,0.0154372397919,0.0136442470325,-0.471372820475,0.97762387991,0.319110274315,0.598479628563,-0.210375577211,0.590259075165,-0.274556428194
2017/07/09/09:41:40.788846,288545,1499564503,589584158,,0.843295341996,0.355976192425,0.245699260923,0.70015040859,0.703879346281,0.0669347193466,0.0993127110547,0.0550186516026,-0.348416239174,0.0119622921442,0.0154813461648,-0.031497264984,-0.448867224423,0.546471238136,0.609920501709,0.485144436359,-0.385965824127,0.394477874041,-0.355229735374
2017/07/09/09:41:40.798763,288546,1499564503,599586665,,0.843818189737,0.352334394735,0.246264970903,0.701420809483,0.702580191041,0.0667718295141,0.0996566403389,0.0492630897771,-0.365928495452,-0.00867747042992,0.00567935363443,-0.00156146961588,-0.459371634507,0.258858919144,0.540019989014,0.46211463213,-0.401869118214,0.289430439472,-0.340680539608
2017/07/09/09:41:40.808867,288547,1499564503,609583049,,0.844043041455,0.347892522092,0.245180118491,0.703234674698,0.700860034748,0.0657678416889,0.0996533742282,0.042829397004,-0.363997552173,-0.00763575361541,0.00569534818475,0.0156322967517,-0.417046829761,-0.34201592207,0.502596497536,0.509295761585,-0.349674642086,0.0582775622606,-0.292726695538
2017/07/09/09:41:40.818933,288548,1499564503,619586803,,0.844368203693,0.345442415636,0.244959261191,0.703890062121,0.700238479988,0.0658743828473,0.0993248069521,0.0362178566896,-0.360968008152,0.000259732920492,-0.0245745193429,0.0108215635042,-0.365079678167,-0.568268954754,0.252528965473,0.388502717018,-0.232994705439,-0.0484645441175,-0.23641307652
2017/07/09/09:41:40.828726,288549,1499564503,629584132,,0.844548342704,0.341406871985,0.245123830289,0.70522474357,0.698926244068,0.0652914245139,0.0994846535678,0.0349640806106,-0.382037748876,-0.00303509466139,-0.0170481290737,0.0225260084341,-0.387975455165,-0.456730663776,0.368416696787,0.374957621098,-0.344853520393,-0.0250752791762,-0.276695847511
2017/07/09/09:41:40.838891,288550,1499564503,639580890,,0.844966431648,0.337951579471,0.245201038259,0.706238403394,0.697862260277,0.0648469643431,0.100052258681,0.0332759692332,-0.362382091111,-0.00123316155048,-0.0405766893184,0.0127140713015,-0.349668732307,-0.163600429893,0.425879955292,0.43588629365,-0.372403025627,0.0598165914416,-0.304448366165
2017/07/09/09:41:40.848876,288551,1499564503,649587023,,0.845336026537,0.334346646658,0.24545391917,0.707621407265,0.696454682294,0.064872891085,0.100071611826,0.0327417927368,-0.384808477581,0.00269592364878,-0.045447828252,0.00758735748856,-0.369885676808,-0.17583784461,0.227758526802,0.610877990723,-0.217989802361,0.0986356437206,-0.232812047005
2017/07/09/09:41:40.858961,288552,1499564503,659582534,,0.845451693554,0.331233959688,0.245255224199,0.708805692109,0.695288088665,0.0644968234264,0.10004561141,0.0304714291367,-0.36361689154,0.0117223565973,-0.031070543572,0.00262343693871,-0.32828425794,-0.073338508606,0.247454956174,0.359586894512,-0.241432070732,0.0815443024039,-0.232360690832
2017/07/09/09:41:40.869131,288553,1499564503,669587804,,0.846161809753,0.32710014371,0.245502871679,0.709935218583,0.694046654358,0.0642970869282,0.100782496508,0.0272946414279,-0.360760946793,0.00536317415756,-0.0276902237315,0.0124946629031,-0.334666409194,-0.0482887178659,0.138589680195,0.352430850267,-0.158457964659,0.103496082127,-0.200596049428
2017/07/09/09:41:40.878921,288554,1499564503,679617509,,0.846183811013,0.32390997016,0.245284785101,0.71125845936,0.692789682468,0.0639344786298,0.100330664792,0.0186047256432,-0.348002749337,0.00435994920225,-0.0211073216417,0.0262538638572,-0.306406898118,-0.587679862976,0.179961651564,0.334430634975,-0.157820284367,-0.163060203195,-0.180266529322
2017/07/09/09:41:40.889011,288555,1499564503,689582496,,0.846699450196,0.320571086224,0.245269731222,0.711726801858,0.692287661372,0.0639092345878,0.100490612315,0.0261806055701,-0.362829979412,-0.00259371945827,-0.0323103308284,0.0215619935511,-0.299736123024,-0.357280701399,0.345229357481,0.30373057723,-0.276578634977,-0.0965811237693,-0.227569445968
2017/07/09/09:41:40.898957,288556,1499564503,699583628,,0.846513063532,0.315605430927,0.245633991686,0.713353215528,0.690639213929,0.0628919525891,0.100941905964,0.0272643300413,-0.40170037313,0.00472251238268,-0.055946102583,0.00902866292924,-0.321156940406,-0.101588949561,0.344946235418,0.2977206707,-0.314559102058,0.00151737779379,-0.245733320713
2017/07/09/09:41:40.909001,288557,1499564503,709581624,,0.847116466613,0.313167681119,0.245698520666,0.713639024634,0.690269247516,0.0630338399871,0.101362929463,0.0210052891304,-0.383257969785,-0.0027884843596,-0.0597451121421,0.019676450981,-0.290644760354,-0.124540045857,0.389633893967,0.286967068911,-0.374172836542,0.00622850656509,-0.245420530438
2017/07/09/09:41:40.918973,288558,1499564503,719595751,,0.84718408313,0.309509823133,0.245581027207,0.714791748694,0.689106904621,0.0628077981434,0.101289735389,0.0175607976395,-0.357125283247,-0.0170222024757,-0.0241753971545,0.0397470107897,-0.249049327864,0.184368595481,0.0427692532539,0.461638987064,-0.158234685659,0.181843563914,-0.130900979042
2017/07/09/09:41:40.929117,288559,1499564503,729583829,,0.84753841558,0.306178310717,0.24514295713,0.715418617616,0.688496370699,0.0624599320716,0.101230953711,0.0314904803933,-0.349247593057,0.0113863635464,-0.0235525253216,-0.023580095077,-0.249351870291,-0.250456303358,0.432476878166,0.461531430483,-0.377322673798,0.00464678555727,-0.236898690462
2017/07/09/09:41:40.940732,288560,1499564503,739586904,,0.84767811147,0.303329637544,0.245537705612,0.716008183333,0.68783293304,0.0622111459153,0.101724682106,0.0295579187004,-0.363035972458,0.0015475190717,-0.0467754668227,-0.00824871895343,-0.246810001008,0.351711124182,0.428825139999,0.563088417053,-0.425582557917,0.266644597054,-0.260907411575
2017/07/09/09:41:40.948985,288561,1499564503,749584254,,0.84808749484,0.299494138132,0.246141458375,0.717157415461,0.686588580705,0.0623159320507,0.101971010132,0.0225302026482,-0.363298757519,0.00260337794563,-0.0618348614033,0.00465915204289,-0.234100967925,0.484851062298,0.445854008198,0.463463038206,-0.372261166573,0.32138350606,-0.244805783033
2017/07/09/09:41:40.958833,288562,1499564503,759588528,,0.848105144535,0.295195208105,0.245704785259,0.717753833667,0.686008327016,0.0614127688611,0.102227595794,0.0159498998396,-0.355183934205,0.0140672810605,-0.0422588824001,-0.000681205713236,-0.228388449807,-0.0340737551451,0.32416754961,0.467807292938,-0.338216364384,0.104751035571,-0.203980132937
2017/07/09/09:41:40.969273,288563,1499564503,769582806,,0.848125801872,0.291743632335,0.245157524046,0.718730614583,0.685062841009,0.0609358618381,0.101990334203,0.0194256590872,-0.386035120039,0.00384784230164,-0.054286698705,0.00695323407057,-0.245374449007,0.273128211498,0.320376574993,0.501557648182,-0.351851433516,0.210123836994,-0.206271097064
2017/07/09/09:41:40.978823,288564,1499564503,779586709,,0.848405236983,0.288446449153,0.245741391072,0.719037337311,0.684646377983,0.0606495089349,0.102792420604,0.00765609759598,-0.395084829487,-0.0231197685617,-0.0551105758792,0.055874092476,-0.275076105563,-0.25120523572,0.189273446798,0.222676157951,-0.24132424593,-0.0274462364614,-0.143347173929
2017/07/09/09:41:40.988869,288565,1499564503,789584643,,0.848177475476,0.285317691264,0.244849463318,0.720024970919,0.683743830176,0.0602408177147,0.102124726831,0.00548154842856,-0.374717209025,-0.0100323361304,-0.0517585961567,0.0442289224657,-0.211645116789,-0.200821891427,0.12302750349,0.38711053133,-0.241829648614,0.0054772272706,-0.154206290841
2017/07/09/09:41:40.998996,288566,1499564503,799600231,,0.848455235901,0.281720443125,0.245153637636,0.720693868703,0.683004446082,0.0599396216223,0.10253056133,0.00712729694291,-0.378089987296,0.0141519715602,-0.0482421303702,0.00873354444315,-0.243618500999,-0.533748745918,0.289418786764,0.359772741795,-0.356684356928,-0.156865730882,-0.1951931566
2017/07/09/09:41:41.009011,288567,1499564503,809582202,,0.8489415565,0.277971752596,0.245898305161,0.721732495319,0.681794663324,0.0602556263723,0.103089775219,0.0081928423718,-0.355003538915,0.00137190170889,-0.0471563545564,0.0133195425344,-0.216033438625,0.119224533439,0.216500908136,0.447919666767,-0.334015220404,0.131064087152,-0.175750672817
2017/07/09/09:41:41.019003,288568,1499564503,819589534,,0.848741978038,0.274864759728,0.245655560171,0.72200685826,0.6815447012,0.0596598323639,0.103167927643,0.0053646411468,-0.354509453814,-0.000237032396442,-0.0710797333262,0.0205625591379,-0.182650130515,0.452586054802,0.41393211484,0.627508580685,-0.415881127119,0.278264462948,-0.234109759331
2017/07/09/09:41:41.028783,288569,1499564503,829581726,,0.848611156657,0.269895487448,0.245164279723,0.723347016726,0.68017283309,0.0587060483171,0.103380899647,-0.00133088604189,-0.359635659836,-0.0119256491675,-0.0468745376914,0.0352871331757,-0.210124023337,0.286373794079,0.309393525124,0.598443746567,-0.383157551289,0.23296085,-0.234069913626
2017/07/09/09:41:41.039256,288570,1499564503,839585558,,0.848991541131,0.26776289837,0.245667853264,0.723225042553,0.680212716798,0.0589191909183,0.103849538624,0.00766721289397,-0.357670511949,0.0140013431465,-0.0469464610157,-0.00398050772993,-0.219202944321,-0.119417443871,0.401015549898,0.646649420261,-0.397756457329,0.088039316237,-0.225686252117
2017/07/09/09:41:41.048936,288571,1499564503,849583707,,0.848644244739,0.265107532627,0.245227646186,0.723863794351,0.679645595227,0.0584789472921,0.103359976975,0.000693038904645,-0.351472815252,-0.00560460565157,-0.0467771252652,0.0245799303251,-0.218472683586,-0.218649879098,0.213864713907,0.55552303791,-0.296162068844,0.012636937201,-0.185665026307
2017/07/09/09:41:41.058994,288572,1499564503,859588182,,0.84851582792,0.260947803119,0.245066962136,0.724721080838,0.678757210171,0.0574462387916,0.103768657495,-0.00204788336902,-0.349189435629,-0.0110947367421,-0.0513803278302,0.0354647700391,-0.210485663845,-0.277872800827,0.196696668863,0.568094372749,-0.261818051338,-0.00622916966677,-0.152579814196
2017/07/09/09:41:41.068864,288573,1499564503,869585616,,0.849253808734,0.256937820531,0.246267232439,0.725826638154,0.677365606128,0.0580794904431,0.104777381965,-0.00155919196436,-0.347077565215,-0.00469943348704,-0.0511816449473,0.0235254348753,-0.203868845444,0.0295557230711,0.169607013464,0.632120728493,-0.304504513741,0.128843590617,-0.188010126352
2017/07/09/09:41:41.079014,288574,1499564503,879585103,,0.848745271425,0.25466017873,0.245309521911,0.725935717473,0.67744883758,0.0576080915057,0.103738683008,-0.00214900434647,-0.365151616939,0.00724607513885,-0.0526066589673,0.0161874037211,-0.215115720431,-0.250093787909,0.248569473624,0.731524407864,-0.443364024162,0.00568621233106,-0.24886199832
2017/07/09/09:41:41.089070,288575,1499564503,889582579,,0.848646566491,0.250980828817,0.245634742084,0.72702850371,0.676246373734,0.0573211683773,0.104089771164,-0.0132057426345,-0.364087930599,-0.00320609416468,-0.0357777826619,0.0346777847164,-0.236069794738,0.384986698627,0.228006929159,0.886061608791,-0.3859333992,0.291409760714,-0.242610812187
2017/07/09/09:41:41.098868,288576,1499564503,899601545,,0.848524940728,0.248118979748,0.245237684192,0.727588283123,0.675693397596,0.0570840557712,0.103899630813,-0.00264819223099,-0.344879282514,0.00200823838204,-0.0309051364821,0.00794508260755,-0.214044513068,-1.66323781013,-2.66993880272,1.2251085043,0.172957718372,-0.41904592514,-0.0340126156807
2017/07/09/09:41:41.108913,288577,1499564503,909584630,,0.848674040179,0.245541702292,0.245675419861,0.727744571573,0.675475195721,0.0571267974372,0.10419994015,-0.0114033839168,-0.338014018324,-0.0082866514508,-0.0220040883042,0.0363382546457,-0.212738890644,-0.65327578783,-0.88694447279,1.16163980961,-0.330812603235,-0.0643557012081,-0.226430982351
2017/07/09/09:41:41.119165,288578,1499564503,919595271,,0.848282780987,0.241971785968,0.244699804527,0.72855123855,0.674732644107,0.0562685738791,0.103840258947,-0.0135054030652,-0.300100353557,-0.0159344962602,-0.0207260965439,0.0446067287193,-0.127015220871,-1.16863489151,-1.66715872288,0.7934243083,0.0993954986334,-0.238532394171,0.000966250896454
2017/07/09/09:41:41.128756,288579,1499564503,929582431,,0.848074841178,0.238421063172,0.244736950143,0.729253566287,0.673994831807,0.0558270568017,0.103940090842,-0.0100470268882,-0.290674291926,-0.0165539210711,-0.0135927972295,0.0378428851202,-0.125191215199,-1.81411218643,-2.190305233,1.22849774361,0.361480414867,-0.447474509478,0.0839226841927
2017/07/09/09:41:41.138983,288580,1499564503,939585289,,0.848005276987,0.236540433937,0.244734381685,0.729302065211,0.673976722798,0.0557708403509,0.103747232114,-0.012279876436,-0.298800177721,-0.0131887472534,-0.00536044202253,0.0410002823267,-0.129280502591,-2.16612744331,-1.36483120918,0.704355299473,0.286135703325,-0.619153738022,0.0545089989901
2017/07/09/09:41:41.148697,288581,1499564503,949580758,,0.848105147491,0.233952616505,0.245052527597,0.729456207462,0.673763182563,0.0559009519712,0.103980280752,-0.00174619358363,-0.298642661962,0.0110069747565,0.0021672773444,-0.00529015256155,-0.129035636079,-2.90528702736,-1.31116247177,0.388477414846,0.202289357781,-0.952469587326,0.056479036808
2017/07/09/09:41:41.158772,288582,1499564503,959580873,,0.847645791249,0.230203158407,0.244204977896,0.730452672212,0.672823761726,0.0551376222131,0.103474257338,-0.00300537389982,-0.29500190839,0.00679552848094,0.033923540298,0.00327369030397,-0.140007485277,-1.71034169197,0.297452539206,0.080226868391,-1.03663051128,-0.526498019695,-0.454405486584
2017/07/09/09:41:41.168803,288583,1499564503,969586411,,0.848192327699,0.22782052821,0.245203516898,0.73074828176,0.672364561967,0.0559000652341,0.103961662273,-0.0105653585824,-0.255575690527,-0.0182829319141,0.0368981772379,0.0377786974771,-0.102612200491,-0.307989120483,2.25521183014,0.884318053722,-2.05422258377,-0.00494154170156,-0.751821577549
2017/07/09/09:41:41.178907,288584,1499564503,979588157,,0.847770874108,0.225822629433,0.24425278756,0.731129583813,0.672097604527,0.0554481374019,0.103246528861,-0.0125944136866,-0.243106377964,-0.023208440365,0.0599965833195,0.0453864704527,-0.124801173182,-0.738250374794,3.08666157722,0.140754699707,-2.36996293068,-0.204369544983,-0.791587054729
2017/07/09/09:41:41.189110,288585,1499564503,989586920,,0.847719857974,0.222691754376,0.24476958197,0.73161300003,0.671515143879,0.0553609483705,0.103658068306,-0.0308168818832,-0.248411233148,-0.033509261496,0.0182144989768,0.0879929406661,-0.105788083129,-0.898829936981,2.04405450821,0.847179353237,-1.78788125515,-0.24493612349,-0.601185441017
2017/07/09/09:41:41.198917,288586,1499564503,999586321,,0.847465108586,0.220389619398,0.244020820891,0.731690242991,0.671521083848,0.0547878829436,0.103378480069,-0.0166455393054,-0.297080142264,-0.0189309796973,-0.0616905066879,0.0428986747058,-0.115460450106,-2.22878479958,0.468166589737,0.072579331696,-0.868374049664,-0.705844044685,-0.278390198946
2017/07/09/09:41:41.209001,288587,1499564504,9585702,,0.84750607844,0.216992910359,0.244326506072,0.732108180405,0.670984801707,0.054503727714,0.104049756015,-0.0151377806422,-0.326858298048,-0.013211328525,-0.104409743893,0.0269363076413,-0.13670773513,-2.96151733398,-0.688317060471,0.288200497627,-0.0860866755247,-0.975182056427,-0.0117223933339
2017/07/09/09:41:41.218884,288588,1499564504,19579908,,0.847024754088,0.214939922204,0.243717166129,0.732227427255,0.670946950492,0.0538471803146,0.103796269556,-0.0202910977004,-0.292212385694,-0.0155815166984,-0.0890320102792,0.0399392896701,-0.101479375237,-2.46422386169,-0.843043804169,0.337863177061,0.0656379833817,-0.691822886467,0.0477773174644
2017/07/09/09:41:41.228847,288589,1499564504,29583859,,0.846812601461,0.2127528417,0.243485619966,0.73286810574,0.670314847332,0.0534888251395,0.103543665285,-0.0167128762183,-0.273418864295,-0.00792407415347,-0.0384288896939,0.021119755647,-0.125395986049,-3.13814616203,-0.370004683733,0.203187003732,-0.204223588109,-1.02988564968,-0.0584388747811
2017/07/09/09:41:41.239047,288590,1499564504,39583392,,0.846644521397,0.210646581509,0.243464476879,0.733182689484,0.669996991142,0.0534484848901,0.103394560617,-0.0301042526528,-0.257647899616,-0.0255028304429,-0.0174910492724,0.0671147605251,-0.136599845829,-3.36125850677,0.254372000694,0.353524774313,-0.495320856571,-1.14676833153,-0.140567749739
2017/07/09/09:41:41.248736,288591,1499564504,49583498,,0.846412965986,0.207459536813,0.243170798154,0.733854976007,0.669256479685,0.0530701787398,0.103615610398,-0.0360210064349,-0.252813051525,-0.0209753688276,0.00583283422941,0.0717553270346,-0.177723626147,-3.91594481468,-0.332205414772,0.195686727762,-0.386481046677,-1.38268816471,-0.0634957253933
2017/07/09/09:41:41.258821,288592,1499564504,59590644,,0.845707608324,0.205771609028,0.243140525415,0.734748770791,0.668401949319,0.0527873135261,0.102939678931,-0.02106944078,-0.238748178556,-0.0182114390495,0.0165213022538,0.0323444430293,-0.172091633112,-4.4865398407,-0.0638807564974,0.59788441658,-0.37780842185,-1.52906930447,-0.0418894402683
2017/07/09/09:41:41.268931,288593,1499564504,69584141,,0.845507216278,0.202906053346,0.242232580889,0.735416257483,0.667704500423,0.0520567447807,0.103071449337,-0.0211322007873,-0.238245498923,-0.0211397272808,0.0101715980492,0.0328948842257,-0.220421435474,-4.25774431229,0.339442491531,0.313636183739,-0.454689383507,-1.46241760254,-0.0341765843332
2017/07/09/09:41:41.278814,288594,1499564504,79580176,,0.845823185392,0.200518471586,0.242813746567,0.736380590954,0.666542758232,0.0523932261824,0.103534180662,-0.0212627736605,-0.208266009409,-0.0251983404464,-0.00465015464562,0.0434820703658,-0.211812170616,-3.00545811653,0.116537496448,0.518321037292,-0.443058162928,-0.999010622501,-0.114040091634
2017/07/09/09:41:41.288981,288595,1499564504,89583988,,0.845394342562,0.198030728098,0.242240546823,0.73739125401,0.665502570438,0.0516627764791,0.103399346113,-0.0191673697982,-0.245674625345,-0.0317904944961,-0.0287239221752,0.0317024550088,-0.28192705798,-4.71726417542,-1.19100248814,0.307117879391,0.0133787542582,-1.61992776394,0.11496424675
2017/07/09/09:41:41.298856,288596,1499564504,99585408,,0.845094201039,0.196146087686,0.241947810673,0.738210264462,0.664609635389,0.0513148988982,0.103471827771,-0.0266950280374,-0.272964224427,-0.0345651331485,-0.0464969122863,0.042161778936,-0.323456177536,-4.23611307144,0.0411717407405,0.463522493839,-0.317062675953,-1.44038200378,-0.0296975672245
2017/07/09/09:41:41.308898,288597,1499564504,109591432,,0.845200179023,0.194085456724,0.241374700872,0.738858650906,0.663896283509,0.0512448831501,0.103458110724,-0.0180231183953,-0.211082458422,-0.0286330538968,-0.0168981630228,0.0343560578628,-0.229396876408,-3.86865067482,-0.455199122429,-0.217584311962,-0.143732145429,-1.34850728512,0.0490009002388
2017/07/09/09:41:41.318872,288598,1499564504,119587970,,0.844703564555,0.191509081062,0.240523282412,0.739691054645,0.663062054621,0.0501813814176,0.103381257291,-0.01182334137,-0.22506520191,-0.0274974358312,-0.00975711413651,0.0214690148361,-0.256240105624,-3.97887158394,-0.460489869118,-0.775596797466,-0.215107053518,-1.42445170879,0.0417696721852
2017/07/09/09:41:41.328776,288599,1499564504,129579735,,0.844493299057,0.190410187078,0.240843806909,0.740253963699,0.662472383236,0.050207802945,0.103119286271,-0.0195062505022,-0.205656976638,-0.036663009042,-0.0195351826429,0.0488928642945,-0.233069365783,-3.91673851013,0.515602588654,-0.602380275726,-0.424566179514,-1.38753867149,-0.0423376709223
2017/07/09/09:41:41.338822,288600,1499564504,139580974,,0.844387394462,0.187735931249,0.240571309736,0.741216874474,0.66134409552,0.0499128399738,0.103586875239,-0.0191432735091,-0.216910219076,-0.0303676351364,3.27938310257e-05,0.0405489942108,-0.263934676136,-4.23388767242,0.470706731081,-0.725147306919,-0.511635124683,-1.4760042429,-0.0546245127916
2017/07/09/09:41:41.349022,288601,1499564504,149583432,,0.844150709818,0.18599545325,0.23983517526,0.742170083867,0.66039420619,0.0497729394067,0.102886896868,-0.0168098660791,-0.239115756907,-0.0354925150872,-0.0275825484368,0.0275978220768,-0.282090241681,-6.30965948105,0.378411263227,-0.839176595211,-0.441985994577,-2.24084091187,0.0200176462531
2017/07/09/09:41:41.359032,288602,1499564504,159589840,,0.844338304225,0.183369310998,0.239929831668,0.743203264204,0.659139712443,0.0495485691719,0.103579374639,-0.0158621150446,-0.232615267179,-0.0366608957486,-0.021691580248,0.0289223251308,-0.287318310241,-6.26991891861,0.433482557535,-0.582442820072,-0.47260043025,-2.20186662674,0.0225585028529
2017/07/09/09:41:41.369102,288603,1499564504,169582304,,0.844185434019,0.181464597677,0.239718432984,0.743587118497,0.658667582872,0.0491730556406,0.104005880013,-0.00846006541126,-0.216287286574,-0.0280211524179,-0.0422288129233,0.00509147444068,-0.242011523747,-7.00835847855,0.457092583179,-0.755642712116,-0.516788482666,-2.41839790344,0.0115611590445
2017/07/09/09:41:41.378670,288604,1499564504,179580947,,0.844227443643,0.179256747237,0.239249167721,0.744512045298,0.657640383656,0.0491306013853,0.103909211326,-0.0108612010409,-0.203102907244,-0.0396042355797,-0.0333494546795,0.0155555886865,-0.218712804969,-6.72759819031,-0.114286206663,-0.332193613052,-0.404566705227,-2.27949738503,0.0072031468153
2017/07/09/09:41:41.388795,288605,1499564504,189584957,,0.843736578885,0.176945721706,0.238328381898,0.745307487964,0.656810109014,0.0480829042478,0.10394836892,-0.0233434105513,-0.216701555819,-0.0534461216168,-0.0622071733541,0.0611371946552,-0.234712310316,-6.18773365021,-0.388973325491,-0.060414545238,-0.174789726734,-2.0723054409,0.131030917168
2017/07/09/09:41:41.398659,288606,1499564504,199581354,,0.84308432554,0.175185754658,0.237860108694,0.745796681767,0.656347404057,0.0471790567257,0.103776352122,-0.037271083535,-0.199783797851,-0.0614418983581,-0.0680408795015,0.0982161629033,-0.203132777781,-6.44827604294,0.0510712265968,-0.582656085491,-0.298254132271,-2.2305753231,0.101794011891
2017/07/09/09:41:41.409033,288607,1499564504,209592056,,0.843260963396,0.172800337227,0.237874822424,0.746464755095,0.65550208071,0.046692828221,0.104533111394,-0.0457401479321,-0.218945552706,-0.0577311156866,-0.0760444046317,0.111183982583,-0.244915080095,-6.62748575211,0.24964235723,-0.436792165041,-0.335557579994,-2.4085958004,0.11854468286
2017/07/09/09:41:41.419036,288608,1499564504,219593532,,0.84241154135,0.171257078678,0.237030057946,0.747050006393,0.654999761103,0.0458353058321,0.1038784176,-0.0315108600434,-0.219869320048,-0.0456473733474,-0.114789508913,0.0795902735916,-0.210417706542,-7.00645208359,0.44206532836,-0.770768344402,-0.378368526697,-2.53067684174,0.102869346738
2017/07/09/09:41:41.428995,288609,1499564504,229584691,,0.841902245683,0.169036288515,0.236069477801,0.747774926352,0.654232021122,0.0446177324457,0.104030668598,-0.0448432777159,-0.226670454569,-0.0753705737512,-0.114431872249,0.129935279562,-0.221345136836,-7.08331727982,-0.394781559706,-0.849352180958,-0.150254249573,-2.56291270256,0.207928568125
2017/07/09/09:41:41.438819,288610,1499564504,239583160,,0.841944993738,0.167183866189,0.235124868833,0.748177599219,0.653768246797,0.0441442859724,0.104252777051,-0.0465929907074,-0.22540137837,-0.0784322514753,-0.0953913448331,0.126286973587,-0.21833365761,-6.93678188324,0.724207103252,-0.933888435364,-0.405835211277,-2.60043811798,0.137789219618
2017/07/09/09:41:41.448849,288611,1499564504,249588709,,0.841295165809,0.164822737481,0.234561609432,0.748938295822,0.652988820012,0.0432321679525,0.104057722659,-0.0255301271339,-0.184386475974,-0.0644006358337,-0.071048520828,0.0764880183824,-0.172181553498,-7.18328428268,0.522232890129,-1.1693675518,-0.446675747633,-2.6049311161,0.120754882693
2017/07/09/09:41:41.458822,288612,1499564504,259580414,,0.841749322754,0.163780393833,0.234076088582,0.74940915786,0.652388362625,0.0435607289298,0.104296698519,-0.032473152836,-0.202873313366,-0.0723283077042,-0.0769739755201,0.0932890306435,-0.214865196182,-7.20658779144,0.773708045483,-0.784801900387,-0.43136048317,-2.63436770439,0.0973927229643
2017/07/09/09:41:41.468930,288613,1499564504,269584260,,0.840843560215,0.160535628647,0.233013883262,0.750752984758,0.650996054045,0.0421420378453,0.103914109439,-0.0322502361666,-0.201823895432,-0.0728678070492,-0.0615477969017,0.0931251753129,-0.220712294268,-7.94304513931,-0.0497970953584,-1.15315163136,-0.399179518223,-2.87179899216,0.0913094058633
2017/07/09/09:41:41.479115,288614,1499564504,279587074,,0.84111266139,0.159410908425,0.233032508875,0.751020667847,0.650625279386,0.0424385043193,0.104180975434,-0.0331986928557,-0.199394290738,-0.0799224881998,-0.00452149410216,0.0978010091133,-0.238284273005,-7.57858753204,0.899938821793,-0.329174429178,-0.339459121227,-2.73192667961,0.159230679274
2017/07/09/09:41:41.488960,288615,1499564504,289583666,,0.840365426169,0.157964056929,0.231063820448,0.751924202938,0.649812388752,0.0415994025998,0.103069598636,-0.0205172830974,-0.163191890058,-0.0718546765115,0.0204498998683,0.0713833372335,-0.208627134518,-8.95931053162,0.717424869537,-1.36127138138,-0.249840915203,-3.21658229828,0.25515383482
2017/07/09/09:41:41.499147,288616,1499564504,299589427,,0.840080342603,0.157367016912,0.230956556278,0.752243119799,0.649530219909,0.0416588143965,0.10249548928,-0.0450819140218,-0.183120986496,-0.0902442480652,0.00482662659678,0.131990938191,-0.232445457677,-8.872838974,0.525489270687,-0.858352184296,-0.149642586708,-3.22566652298,0.260030835867
2017/07/09/09:41:41.508874,288617,1499564504,309581504,,0.839441119069,0.154744990848,0.229561164916,0.75330064736,0.64843374876,0.0405639527348,0.102109617047,-0.0374842362741,-0.186622917479,-0.0801061325321,0.00277437517384,0.104336478737,-0.240160382729,-9.15748596191,0.32437068224,-1.36027646065,-0.202589154243,-3.3057076931,0.236265778542
2017/07/09/09:41:41.518907,288618,1499564504,319587361,,0.839142981044,0.153753682825,0.228767103718,0.753806173821,0.64792511862,0.0400806890986,0.101797992769,-0.0376487025484,-0.178966494511,-0.0923587631338,0.023701276744,0.112975223726,-0.236713145374,-9.65050411224,0.961518347263,-1.48856008053,-0.350456953049,-3.54648017883,0.236542657018
2017/07/09/09:41:41.528944,288619,1499564504,329594572,,0.839023756793,0.15187481705,0.228342091791,0.754679938411,0.646952387141,0.040093067368,0.101505395328,-0.0360088506506,-0.172733770544,-0.0950325392748,0.0151951743606,0.116216818671,-0.223261056832,-9.22404575348,1.3342000246,-1.20786631107,-0.471247226,-3.39906644821,0.185410022736
2017/07/09/09:41:41.538851,288620,1499564504,339586517,,0.838502335769,0.149504456502,0.227268426665,0.755690644122,0.645842893552,0.0390265623756,0.101466914133,-0.0334929368655,-0.154407464934,-0.0913817537422,0.0197426105922,0.116741130939,-0.203408524499,-9.07853889465,0.769840359688,-1.45913171768,-0.419493585825,-3.31538152695,0.172098696232
2017/07/09/09:41:41.548776,288621,1499564504,349578950,,0.837867913038,0.147584363477,0.225848508991,0.756615303101,0.644935833573,0.0383883060233,0.100585245677,-0.0430111077668,-0.182787592213,-0.108325913567,0.0318845107125,0.141807722601,-0.252016403003,-8.36638259888,0.492359578609,-1.08395504951,-0.341566234827,-3.02565026283,0.197117805481
2017/07/09/09:41:41.559081,288622,1499564504,359584806,,0.838160585357,0.146526455548,0.225637821957,0.757016787501,0.644458253453,0.0388125368762,0.100462579997,-0.0471844703534,-0.214316801156,-0.114330820585,0.0573777239528,0.140530753591,-0.282524223268,-8.84745597839,0.838094890118,-0.675513982773,-0.331774413586,-3.2296962738,0.199714541435
2017/07/09/09:41:41.569237,288623,1499564504,369585308,,0.83766700742,0.144098587187,0.224453511511,0.758017415352,0.643388230108,0.0380529565808,0.100065757769,-0.0295460110487,-0.193411635543,-0.0923926050185,0.0444070225453,0.0980698438031,-0.254123898153,-8.9473323822,1.2257283926,-0.788625180721,-0.450335294008,-3.30492806435,0.234039470553
2017/07/09/09:41:41.578943,288624,1499564504,379606884,,0.837379384056,0.142337110809,0.223531433762,0.759029600417,0.642317099213,0.0378089950492,0.0993644284582,-0.0249841851402,-0.169265176712,-0.085364550258,0.0344713156611,0.0919986313689,-0.222152330264,-8.30909824371,0.940202653408,-1.11341619492,-0.416488409042,-3.06074404716,0.179281890392
2017/07/09/09:41:41.588974,288625,1499564504,389583807,,0.837142177369,0.140575524745,0.222430046866,0.759549707653,0.641774450139,0.0372889504939,0.0990925371734,-0.0291063442537,-0.161714659379,-0.0945035686643,0.0663890257731,0.103839646738,-0.229509628708,-8.07014942169,0.124502494931,-1.79055023193,-0.36253580451,-2.96468520164,0.152801930904
2017/07/09/09:41:41.598868,288626,1499564504,399584942,,0.836620895486,0.13901329266,0.221338064997,0.760613204614,0.640650074555,0.0369136519616,0.098348448071,-0.0162253398833,-0.186326145387,-0.102439381038,0.0416238809468,0.0867863257862,-0.24280185869,-7.22050571442,0.425128042698,-1.51227080822,-0.27748349309,-2.5866484642,0.177399381995
2017/07/09/09:41:41.608675,288627,1499564504,409584336,,0.836920302397,0.136326758476,0.220995690151,0.761318103448,0.639735187253,0.0368011926984,0.0988903825897,-0.0173209962641,-0.194609541909,-0.0972146070373,0.0335289176795,0.0804791763534,-0.248848215615,-7.14778757095,0.406349658966,-1.25599348545,-0.20814588666,-2.60565137863,0.182084873319
2017/07/09/09:41:41.618937,288628,1499564504,419589162,,0.836780114332,0.13509593922,0.219870217903,0.762016062232,0.639037498133,0.0367985893352,0.0980227560418,-0.0229587516072,-0.221195378472,-0.103371094802,0.00789840031692,0.0942640525547,-0.255342468249,-8.00671482086,0.616406083107,-1.24989616871,-0.281155407429,-2.8689827919,0.199620485306
2017/07/09/09:41:41.628925,288629,1499564504,429585870,,0.835903226933,0.133762543433,0.218084854976,0.762402860492,0.638782157442,0.0355433552036,0.0971385790952,-0.010106176962,-0.173806261432,-0.0896545580601,0.0479431302501,0.0623957120151,-0.221641329813,-8.62726783752,1.45890390873,-1.28417062759,-0.467976719141,-3.0672929287,0.180343985558
2017/07/09/09:41:41.638911,288630,1499564504,439605855,,0.836529826141,0.132535294441,0.217924494718,0.763065912866,0.637943394074,0.0363204668083,0.0971568951256,-0.0152873541719,-0.209033017877,-0.094148496131,0.0283850115665,0.0727316787368,-0.257704149931,-7.97224760056,1.37687063217,-0.441129297018,-0.542877733707,-2.84822440147,0.132816389203
2017/07/09/09:41:41.648966,288631,1499564504,449581302,,0.836098198975,0.129443693214,0.216721162145,0.764267598338,0.636584917089,0.0355104732212,0.096921038775,-0.00864352456627,-0.213083994607,-0.0856031752145,0.0403847571706,0.0435713026913,-0.275810766186,-7.78009414673,1.32084000111,-1.26858055592,-0.57631444931,-2.75591921806,0.0940503031015
2017/07/09/09:41:41.659122,288632,1499564504,459584954,,0.835925822207,0.128160380914,0.215513747111,0.764980496537,0.635864969114,0.0352785715384,0.0961041277006,5.19278874328e-05,-0.190564449918,-0.0957425417146,0.0709076428975,0.0424360453135,-0.266206527534,-7.44376134872,1.30062329769,-1.59972012043,-0.536385715008,-2.68975615501,0.113000974059
2017/07/09/09:41:41.668950,288633,1499564504,469580976,,0.836077236023,0.126168255821,0.214803980559,0.76590517633,0.634727014608,0.0352703233076,0.0962646461106,-0.0157264868435,-0.20445671065,-0.0981211557969,0.0463123277821,0.07883791083,-0.277101759282,-7.32425785065,1.28371405602,-1.73641824722,-0.513453722,-2.71446847916,0.144539833069
2017/07/09/09:41:41.678733,288634,1499564504,479582732,,0.83588381651,0.12346858128,0.213762238734,0.766701236039,0.633811791715,0.03485011004,0.0961108587481,-0.0120148993278,-0.200291082003,-0.091098258357,0.0391559300222,0.0640171345455,-0.264840459569,-6.90014600754,0.586853504181,-1.62608790398,-0.365558862686,-2.52910518646,0.140197724104
2017/07/09/09:41:41.688840,288635,1499564504,489580295,,0.83552080012,0.121103251159,0.212731490557,0.7680875495,0.632253244012,0.0346291341122,0.0953843530691,-0.00655119537278,-0.204868758418,-0.0983874160696,0.052722918123,0.0542798811215,-0.253923621646,-7.07781887054,0.294775247574,-1.44809377193,-0.288312256336,-2.525400877,0.169376134872
2017/07/09/09:41:41.698791,288636,1499564504,499583286,,0.835229145279,0.119695847455,0.2116400307,0.768499096041,0.631871323032,0.0342129216629,0.0947483324638,-0.0160902889948,-0.182477920062,-0.096986920519,0.0609491759249,0.0791558820162,-0.227970468298,-6.73085165024,0.785407543182,-1.03250455856,-0.457058757544,-2.37633156776,0.0870517864823
2017/07/09/09:41:41.708745,288637,1499564504,509581142,,0.835822267342,0.117922345605,0.211324412386,0.768995776969,0.631214781017,0.0347465389344,0.0949003333115,-0.00599098248284,-0.194795219227,-0.0895139726064,0.0609505275913,0.0550207841655,-0.210346391923,-6.60755109787,0.216844648123,-1.00081670284,-0.457839369774,-2.38188719749,0.0729904696345
2017/07/09/09:41:41.718820,288638,1499564504,519588102,,0.835676388548,0.115985498425,0.210225190645,0.76994888575,0.630133644687,0.0342348189336,0.0945424790161,-0.00555290760953,-0.216729886514,-0.0779727216879,0.0375520344833,0.054275413315,-0.219537361242,-5.91251754761,1.2029389143,-1.49528849125,-0.612091124058,-2.18422603607,0.00539109110832
2017/07/09/09:41:41.728796,288639,1499564504,529586077,,0.835584170155,0.113987506099,0.209419203673,0.77056035388,0.629441784655,0.0338665245938,0.0943018518934,-0.0154720135874,-0.199021633799,-0.0955885141465,0.0450528903061,0.0861888224056,-0.240570103255,-5.29815626144,0.755764365196,-1.02872443199,-0.615058064461,-1.96990048885,-0.0335626900196
2017/07/09/09:41:41.738967,288640,1499564504,539594687,,0.83564803549,0.112381552625,0.208906461565,0.77130200912,0.628552322967,0.03409478856,0.0940889654183,-0.0059638869306,-0.211669630402,-0.0885561806572,0.053758326053,0.0528075362522,-0.280976453938,-4.39378881454,1.25063633919,-1.06999325752,-0.60311037302,-1.63441121578,-0.0565975010395
2017/07/09/09:41:41.748928,288641,1499564504,549584797,,0.835565151593,0.110819184587,0.208056622209,0.772243827966,0.62749269748,0.0341424670851,0.093416683302,0.00792882917083,-0.208443952355,-0.0751027488824,0.0613589212672,0.0130227864628,-0.292675002895,-5.04397630692,0.784189760685,-0.777389705181,-0.432861030102,-1.79478406906,-0.00878372043371
2017/07/09/09:41:41.758829,288642,1499564504,559584648,,0.836062024047,0.108412267961,0.208400068557,0.773271009064,0.626109000228,0.0344362854643,0.0940936162449,0.0030406740716,-0.215013825871,-0.0744090206392,0.0674657831989,0.0133344520792,-0.317901096078,-5.19807004929,0.680886149406,0.168551370502,-0.341999679804,-1.938185215,0.0459403842688
2017/07/09/09:41:41.768848,288643,1499564504,569579934,,0.835391629574,0.106318567574,0.206523665859,0.774230369016,0.62511498742,0.0337489159988,0.0930569657001,0.0128563845285,-0.223864214329,-0.0472491008076,0.0434348290096,-0.0182140461895,-0.321728217176,-5.2557258606,0.785200059414,-1.44131529331,-0.478023946285,-1.91093933582,-0.0267683789134
2017/07/09/09:41:41.778912,288644,1499564504,579589387,,0.835866931342,0.10456474624,0.206490740064,0.775170097066,0.623913383157,0.0341764566504,0.0931417239678,0.00362798521404,-0.204669120674,-0.0798719793671,0.0772667443971,0.0221635821498,-0.310234480711,-4.72848081589,0.975529551506,-1.01410770416,-0.427722662687,-1.76418244839,0.0172285884619
2017/07/09/09:41:41.789002,288645,1499564504,589581029,,0.836195674729,0.102779632162,0.205264947668,0.776077315294,0.622826463834,0.0342178823362,0.0928457492991,0.0099276103277,-0.212734535422,-0.0720547955583,0.0549633549142,-0.00211526392451,-0.291671820797,-3.93896484375,0.938553214073,-1.27213978767,-0.507620334625,-1.44874250889,-0.0777717754245
2017/07/09/09:41:41.798805,288646,1499564504,599585894,,0.836290898195,0.100678299437,0.205019340141,0.776854513464,0.62185799842,0.0345333894834,0.0927207620903,0.017832564071,-0.186306556108,-0.0763091455863,0.0555883760251,-0.0105267586476,-0.262160883774,-3.58838295937,1.14590072632,-0.976396381855,-0.637377679348,-1.21769022942,-0.151205196977
2017/07/09/09:41:41.808713,288647,1499564504,609581435,,0.836411725077,0.0989773556803,0.204361351251,0.777516950107,0.621029374122,0.0344761988774,0.092743196439,0.00615160757715,-0.206731876371,-0.0735600581193,0.05507818132,0.00733149458847,-0.291692961932,-4.34969186783,1.07756352425,-0.871717453003,-0.600393295288,-1.50741302967,-0.10026896745
2017/07/09/09:41:41.819016,288648,1499564504,619580222,,0.835669418996,0.0962451724898,0.203506412588,0.778682165239,0.619689744944,0.0337115757307,0.092207565913,0.0101994615204,-0.227873323942,-0.0446480841142,0.0412989725589,-0.0260779454801,-0.301810157986,-5.29262638092,0.452758044004,-0.841579318047,-0.465958923101,-1.85362780094,-0.068457506597
2017/07/09/09:41:41.828919,288649,1499564504,629580947,,0.836121107508,0.0949759520536,0.20283350111,0.779217771404,0.619003967813,0.0341507236455,0.0921275237614,0.00980897250882,-0.192277999699,-0.0628257638861,0.0628025001958,-0.00290050424138,-0.263694781449,-5.32888936996,0.961613416672,-0.869385898113,-0.520792722702,-1.91232323647,-0.0393143370748
2017/07/09/09:41:41.838783,288650,1499564504,639584016,,0.836449368674,0.0934875387783,0.202178658592,0.780034837014,0.618002940404,0.0347303012658,0.0917160011703,0.00781007943063,-0.195847301535,-0.0520059236724,0.057758375875,-0.00481570273788,-0.282007560769,-4.99362754822,1.03749454021,-0.776999473572,-0.61623609066,-1.80299127102,-0.131595045328
2017/07/09/09:41:41.848980,288651,1499564504,649586669,,0.837109526526,0.0904474035028,0.202211122996,0.781106720302,0.616480590567,0.034949716106,0.0927496107691,0.00951070166399,-0.22325089521,-0.0453770871255,0.0455432049484,-0.029332066063,-0.318776505176,-3.61116886139,0.617804169655,-1.05759143829,-0.608419716358,-1.3299946785,-0.184524387121
2017/07/09/09:41:41.858755,288652,1499564504,659588952,,0.83606964105,0.0881572602711,0.200944193456,0.78208636089,0.615439173848,0.0339135969128,0.0917900612682,0.0151609197152,-0.199939342771,-0.0622430311371,0.0639846782394,-0.0216507326521,-0.27991807834,-3.50924730301,0.508037924767,-1.34773337841,-0.584233283997,-1.1719391346,-0.169125303626
2017/07/09/09:41:41.869134,288653,1499564504,669581178,,0.836797640442,0.0861840061027,0.201216066967,0.783112768392,0.61402416652,0.0348344396895,0.0921698254424,-0.00134822921279,-0.218134200037,-0.0577863033689,0.0328934226742,-9.16761272331e-05,-0.296433883734,-3.06890130043,1.13502848148,-0.878820955753,-0.695458233356,-1.05991184711,-0.223460540175
2017/07/09/09:41:41.878862,288654,1499564504,679588191,,0.837046070138,0.0845693073404,0.20070385774,0.783810615868,0.613118649509,0.0350341925175,0.0921902675547,0.0272570022975,-0.224223456262,-0.03903266384,0.042379176324,-0.0720749365162,-0.293261032974,-3.62339615822,1.31691908836,-0.433375656605,-0.678708136082,-1.22035169601,-0.172706723213
2017/07/09/09:41:41.888738,288655,1499564504,689583508,,0.837477478003,0.0825922239347,0.20086447476,0.784850938534,0.611706187175,0.0352646679822,0.0926334067473,0.0193893824669,-0.206620655727,-0.0418682219366,0.0362099453599,-0.0454564763691,-0.288117566321,-4.38115692139,1.01485085487,-0.295949190855,-0.602333366871,-1.54735803604,-0.145819216967
2017/07/09/09:41:41.898977,288656,1499564504,699589554,,0.837225463806,0.0799644360348,0.199924495332,0.785845230656,0.610488175556,0.035355527021,0.0922032953361,0.00648403638266,-0.202831197298,-0.0544398107585,0.0386952909164,-0.0113954151016,-0.27979223362,-4.4651350975,0.227915614843,-0.20311114192,-0.46155911684,-1.5791413784,-0.123188644648
2017/07/09/09:41:41.908975,288657,1499564504,709581322,,0.837621099123,0.0782537833914,0.199715785017,0.78658345647,0.609493915251,0.0356733235328,0.0923636685473,0.0126126999599,-0.191071348315,-0.0492660694542,0.0499616760281,-0.0278232944975,-0.25903994548,-3.7286670208,0.370597183704,-0.252296298742,-0.520894169807,-1.26055264473,-0.167939335108
2017/07/09/09:41:41.918920,288658,1499564504,719589707,,0.837360004558,0.0762277254574,0.198865676099,0.787220522071,0.608755222664,0.0350870892098,0.0920316504305,0.011232430015,-0.186948933659,-0.0594663565682,0.0587669495152,-0.0142431509504,-0.266214577045,-2.95799016953,0.474784493446,-0.864020466805,-0.473851978779,-1.04851710796,-0.188455432653
2017/07/09/09:41:41.928670,288659,1499564504,729581760,,0.838214545379,0.0758057138208,0.198773751162,0.787617432364,0.608185918716,0.0360477988905,0.0920283907656,0.0151434990798,-0.190672592213,-0.0494493167334,0.0527741525446,-0.0228597959966,-0.275916802147,-2.38823986053,1.1174428463,-0.553376615047,-0.642980575562,-0.890978753567,-0.245047450066
2017/07/09/09:41:41.938899,288660,1499564504,739586145,,0.837645533805,0.0729452136457,0.197828676056,0.788776117154,0.606739480364,0.0354603201261,0.0918803878531,0.00361133090568,-0.199712515751,-0.0489008100972,0.0536688700641,-0.00610576298213,-0.272518949815,-2.85182452202,0.197977542877,-1.42405509949,-0.394949436188,-1.09800708294,-0.151541128755
2017/07/09/09:41:41.948953,288661,1499564504,749579877,,0.837498504851,0.0712914996029,0.197647216447,0.789656733751,0.605630837511,0.0353467444489,0.0916740920549,0.00545908715281,-0.199039795481,-0.0380844741907,0.056566757815,-0.0241615786571,-0.288058621532,-2.31127667427,0.419303774834,-0.920323431492,-0.499065041542,-0.892118036747,-0.196402162313
2017/07/09/09:41:41.958890,288662,1499564504,759588000,,0.837638102874,0.0696039196607,0.197015729308,0.790311090255,0.604795433733,0.0355166517754,0.091484596531,0.0119808530513,-0.189675706718,-0.0356382011709,0.0327737818774,-0.0254993028898,-0.267852846986,-2.29980421066,0.318032681942,-0.887498319149,-0.452640652657,-0.948168873787,-0.212976023555
2017/07/09/09:41:41.968979,288663,1499564504,769579966,,0.837881075623,0.0671369191789,0.19647975137,0.791391486282,0.603328876043,0.0355333035967,0.0918213869884,0.00719531838437,-0.193054203157,-0.0555831683501,0.0204725873138,-0.00246692776698,-0.260075768313,-1.55943608284,-0.138336062431,-0.753039717674,-0.252500087023,-0.701648771763,-0.154557302594
2017/07/09/09:41:41.979144,288664,1499564504,779588259,,0.838201473919,0.0655979254349,0.196449437359,0.791957820189,0.602551330272,0.0356740496638,0.0919894972778,0.00969311708856,-0.20368208564,-0.0479452536387,0.0256536861397,-0.0232163329321,-0.273205059299,-2.34345698357,0.56966149807,-0.394014060497,-0.483003497124,-1.04442489147,-0.175145253539
2017/07/09/09:41:41.988661,288665,1499564504,789582973,,0.838284644621,0.0636198943486,0.196043874145,0.79296256771,0.6012382332,0.0360862535289,0.0917645653582,0.0206953994787,-0.202008942398,-0.0387033606976,0.0441286407503,-0.0576664406149,-0.285955988016,-3.41490030289,0.888351917267,-0.45956492424,-0.62731051445,-1.45413303375,-0.171952098608
2017/07/09/09:41:41.999001,288666,1499564504,799584584,,0.838107304266,0.0621763977502,0.195064427734,0.793484009273,0.600639339815,0.0356630857798,0.0913436084643,0.0295577363752,-0.20161753899,-0.0266694151226,0.0305515641524,-0.0794091640178,-0.296246633499,-3.87711310387,0.764597296715,-1.17098605633,-0.517627835274,-1.62749195099,-0.083379112184
2017/07/09/09:41:42.009058,288667,1499564504,809586553,,0.838445581431,0.0603444937717,0.194832052254,0.794395402202,0.599370878386,0.0362279653327,0.0915315772294,0.0163226387953,-0.164532554276,-0.0449534504368,0.0538612953107,-0.0301931412029,-0.239680358489,-3.04529643059,0.736418664455,-1.10287928581,-0.608129918575,-1.30526661873,-0.178116723895
2017/07/09/09:41:42.018863,288668,1499564504,819580918,,0.838749046191,0.05809435999,0.194928352949,0.79511826188,0.59832650631,0.036576253194,0.0919484593338,0.0222712047664,-0.172566810915,-0.0481634529373,0.0653850373574,-0.0528502190265,-0.24358712524,-2.42410087585,0.0529071092606,-0.940534353256,-0.413428783417,-0.987107336521,-0.160985291004
2017/07/09/09:41:42.028939,288669,1499564504,829585393,,0.839485524913,0.0567222936504,0.194499166457,0.79579023857,0.597376089396,0.0372308662372,0.092051977778,0.0185204954336,-0.202619493372,-0.0533921166437,0.0469337703369,-0.0483151934974,-0.274481503193,-1.65985190868,0.686750411987,-0.947572946548,-0.456243991852,-0.777909517288,-0.197451069951
2017/07/09/09:41:42.038823,288670,1499564504,839586132,,0.839572520397,0.0552484562276,0.193630093016,0.796756598593,0.59614235091,0.0375777929475,0.0915485091511,0.0229340619107,-0.18349943698,-0.0568342971786,0.02386379861,-0.0404581200005,-0.235666516821,-1.15114712715,0.728517770767,-0.753033638,-0.498669147491,-0.557125985622,-0.245405584574
2017/07/09/09:41:42.048908,288671,1499564504,849583608,,0.839773259932,0.0536586239444,0.193305455794,0.797044388308,0.595730828657,0.0373872978748,0.0917998519162,0.0250521924132,-0.182577172802,-0.0503354884087,0.0350877362103,-0.0542189809884,-0.250224290072,-1.72194063663,0.746094822884,-0.618058204651,-0.455875813961,-0.771460950375,-0.191060885787
2017/07/09/09:41:42.058898,288672,1499564504,859580337,,0.839601492942,0.0516052609139,0.192369110697,0.797964648076,0.594531535986,0.0373264652223,0.0916046294284,0.0199419199753,-0.195153554661,-0.041502188927,0.0307023606738,-0.0527633399934,-0.258868678314,-1.83362090588,0.92380297184,-1.12720894814,-0.60731524229,-0.750671982765,-0.264720112085
2017/07/09/09:41:42.068668,288673,1499564504,869581956,,0.83983122602,0.050164180662,0.192003036316,0.798371115807,0.593971803698,0.0375949276526,0.0915842741489,0.0120410733051,-0.198721038996,-0.0668791681204,0.0441795535365,-0.0270738727182,-0.269963377036,-1.39578139782,1.08170890808,-0.565891444683,-0.561203181744,-0.67181378603,-0.225810006261
2017/07/09/09:41:42.078882,288674,1499564504,879584126,,0.839875728477,0.0477942303426,0.191553734101,0.799732945626,0.592124536448,0.0376148217595,0.0916562829248,0.0136031184808,-0.19250350388,-0.0562562259114,0.0368569066055,-0.0290399347887,-0.254379717407,-0.597385942936,0.621814966202,-0.800133943558,-0.518296897411,-0.346965432167,-0.273162603378
2017/07/09/09:41:42.088746,288675,1499564504,889583183,,0.839812055644,0.04651116227,0.190435130181,0.800002154708,0.591835541694,0.0374363882214,0.0912456074915,0.0148226539468,-0.179270164166,-0.0579856968513,0.0629906487357,-0.0280270834937,-0.250493041389,-0.46155244112,0.738610506058,-0.914105653763,-0.517642080784,-0.30324909091,-0.2892100811
2017/07/09/09:41:42.098898,288676,1499564504,899589298,,0.840012121386,0.0440839417478,0.190122106199,0.801238136973,0.590119914187,0.0378776574824,0.0913302677345,0.00441038658447,-0.187613927903,-0.0580574936533,0.0578773159506,-0.0154386667078,-0.261412207521,-0.614521026611,0.132358938456,-1.09981429577,-0.388378143311,-0.401868104935,-0.247373074293
2017/07/09/09:41:42.108938,288677,1499564504,909582371,,0.840122087381,0.0415055530527,0.190186507873,0.801989419119,0.589039390288,0.037961215829,0.091676138681,0.0175967928008,-0.203990660143,-0.045560981676,0.0287856039071,-0.0552720981879,-0.255942598114,-0.967496097088,-0.483520388603,-0.749233603477,-0.26224693656,-0.463464647532,-0.205135464668
2017/07/09/09:41:42.118670,288678,1499564504,919603476,,0.840557263532,0.0401794737606,0.18939855951,0.802263747463,0.588617214996,0.038202240532,0.0918871184395,0.01232469048,-0.187922014037,-0.048249701301,0.0350361944882,-0.03283389779,-0.227891932363,-1.0202460289,0.277137637138,-0.470479428768,-0.411818742752,-0.51913434267,-0.237478658557
2017/07/09/09:41:42.129195,288679,1499564504,929583961,,0.84054493031,0.0384939103718,0.188580714489,0.802688009397,0.588084473977,0.0381217667262,0.0916260985662,0.0261500672541,-0.192283065869,-0.0526620000869,0.0211221016181,-0.0625928972684,-0.182701166751,-1.57476472855,0.475748151541,-0.949528455734,-0.5231153965,-0.654257059097,-0.31108725071
2017/07/09/09:41:42.138648,288680,1499564504,939582660,,0.8404668496,0.0372020268084,0.187460060944,0.802975216237,0.587761976897,0.0384016301098,0.0910602845798,0.0190441377258,-0.186384429824,-0.0725791209111,0.0314139387548,-0.0379920538469,-0.135541179642,-1.0500292778,0.89187836647,-0.626841008663,-0.596866965294,-0.428588837385,-0.338582575321
2017/07/09/09:41:42.149108,288681,1499564504,949585213,,0.840939569292,0.0355670696895,0.18726503477,0.803195122999,0.587372037962,0.0386720904252,0.0915213244714,0.0299675703629,-0.192366126199,-0.0420192587124,0.0151557084715,-0.081320208644,-0.118313114367,-1.47517478466,1.16445314884,-0.585113584995,-0.654370725155,-0.524534642696,-0.386419653893
2017/07/09/09:41:42.158909,288682,1499564504,959584356,,0.841108067053,0.0334100224747,0.187198747559,0.80319174765,0.587331383688,0.0389136682593,0.0917092616086,0.00877859207754,-0.189334160031,-0.0588531183427,0.00850196758819,-0.0212012488353,-0.0680737628439,-1.39186608791,1.41044056416,0.0402013510466,-0.6451369524,-0.504811406136,-0.39811077714
2017/07/09/09:41:42.168652,288683,1499564504,969583603,,0.840962194691,0.0310874551972,0.186477882702,0.803354773046,0.587104074369,0.0385050246867,0.0919090722231,0.00941485015334,-0.17980232786,-0.0559398595914,-0.000158513842765,-0.0124742719136,-0.00604786784634,-2.04112005234,0.303641676903,-0.352260440588,-0.522351622581,-0.702280044556,-0.380610346794
2017/07/09/09:41:42.178905,288684,1499564504,979587020,,0.840815520347,0.0296057353239,0.185778763549,0.802921748323,0.587728233332,0.0382649254343,0.0918040592558,0.0014729846207,-0.189468407568,-0.0458039164354,-0.0370946889397,0.00236170589818,0.0309939245109,-2.27056407928,1.05307304859,-0.375927448273,-0.630684971809,-0.808537900448,-0.383356511593
2017/07/09/09:41:42.188946,288685,1499564504,989582755,,0.841034524899,0.0283907982405,0.185915784117,0.802582868438,0.5881642645,0.0387360686227,0.0917771989193,-0.000378764456815,-0.199366351294,-0.0440396053199,-0.0185232126718,-0.00738312749989,0.0522189780554,-1.92001223564,1.00787138939,-0.0265233144164,-0.561214447021,-0.657623171806,-0.393516242504
2017/07/09/09:41:42.198992,288686,1499564504,999585730,,0.841176211781,0.0264991110516,0.185408777081,0.802160345013,0.588712234933,0.038628117719,0.0920030100075,-0.00134162484577,-0.196070875546,-0.056058065795,-0.00478133000016,0.005812948057,0.104373395211,-0.840499281883,1.47575497627,-0.140845879912,-0.66476470232,-0.339848339558,-0.479948043823
2017/07/09/09:41:42.209252,288687,1499564505,9584331,,0.84106780337,0.0251062759336,0.184050971507,0.801544163435,0.58965548024,0.0387904589415,0.0912615416323,-0.0123213351572,-0.196473477927,-0.0546234615434,-0.0315425430429,0.0415206334654,0.156613746929,-0.767318487167,1.35072755814,-1.23043823242,-0.623135268688,-0.342777609825,-0.434353649616
2017/07/09/09:41:42.218941,288688,1499564505,19591368,,0.840653553398,0.0218125881612,0.183841608317,0.801311958038,0.589893497964,0.0376999865475,0.0922145215247,-0.00309852594867,-0.175216852117,-0.0569997006915,-0.0308245348097,0.0271716940776,0.220261117692,-0.671717405319,0.400125205517,-0.233142465353,-0.42540627718,-0.30341643095,-0.369134098291
2017/07/09/09:41:42.228814,288689,1499564505,29589119,,0.841038618675,0.0209485294689,0.183876187657,0.800046044138,0.591598248559,0.0383217409335,0.0920287114615,-0.00859659194886,-0.184227746138,-0.0486112133472,-0.0699592478604,0.045100721049,0.274175406477,-0.0489247366786,1.00623166561,0.0546142086387,-0.551787137985,-0.075350664556,-0.367388308048
2017/07/09/09:41:42.238616,288690,1499564505,39580999,,0.840742935415,0.0191585955504,0.182685618353,0.79910323765,0.592939869927,0.0376854663056,0.0918484178309,-0.00898188973524,-0.197887416884,-0.0450531255576,-0.0659659550323,0.0379987733435,0.299128149092,-0.555797696114,1.22295439243,-0.160419985652,-0.584248542786,-0.272090673447,-0.376657605171
2017/07/09/09:41:42.248783,288691,1499564505,49584479,,0.840226256213,0.0168230702419,0.18221197596,0.798176178971,0.594213892307,0.0371251056723,0.091904102413,-0.0176243060958,-0.202752160365,-0.0558575538377,-0.0846018565042,0.0606078458142,0.343672689968,-0.983195722103,1.1133441925,-0.327542841434,-0.651702642441,-0.455955773592,-0.344166636467
2017/07/09/09:41:42.259036,288692,1499564505,59586712,,0.840347346829,0.0154840610325,0.181581826257,0.796793079771,0.596074189318,0.0370243208831,0.0918996655118,-0.0127323534371,-0.172183443873,-0.0625531450526,-0.0633950394271,0.0651362224243,0.417646633432,-0.668185055256,0.545473098755,-0.293929517269,-0.499335110188,-0.315000325441,-0.343105107546
2017/07/09/09:41:42.268771,288693,1499564505,69583017,,0.840102780276,0.0129110159056,0.18125307936,0.795468136521,0.597771653361,0.0365316830171,0.0925469089366,-0.0204561322211,-0.194338980335,-0.0614124770738,-0.0883613265668,0.0787183731547,0.448258439127,-0.553659856319,0.482690453529,-0.0682136192918,-0.437811493874,-0.299072951078,-0.338625073433
2017/07/09/09:41:42.279372,288694,1499564505,79580201,,0.840105931189,0.0118303464154,0.180417307625,0.793705135809,0.600155011713,0.036285818219,0.0923550686336,-0.0151255814312,-0.200793504832,-0.0562304627292,-0.103531481944,0.0593858330042,0.477316692499,-0.847762048244,0.572890520096,-0.372636288404,-0.424837142229,-0.456979870796,-0.262235164642
2017/07/09/09:41:42.288721,288695,1499564505,89580504,,0.839688420786,0.00938481647607,0.180339975246,0.792392753801,0.601903567551,0.0358829641712,0.0924025539506,-0.0231990207452,-0.197955292205,-0.0533152784192,-0.108168630403,0.0806126613108,0.528728871676,-0.561046540737,0.405290484428,-0.186970844865,-0.3719407022,-0.35251006484,-0.25119432807
2017/07/09/09:41:42.299602,288696,1499564505,99580613,,0.83953395769,0.00786307270627,0.180007080611,0.790592611489,0.604285035737,0.0356491192126,0.092369142807,-0.0123748734458,-0.17792859877,-0.0283058427566,-0.100828540902,0.0574481987981,0.561310282267,-0.771625220776,0.457742094994,-0.579492092133,-0.38671451807,-0.479197561741,-0.219198435545
2017/07/09/09:41:42.308853,288697,1499564505,109584230,,0.839574548748,0.00612787625521,0.179388540081,0.788619955237,0.606821532959,0.0354110366546,0.0926944001683,-0.016608693346,-0.188209532482,-0.0440823358124,-0.103714153397,0.065639784995,0.58501200467,-0.123848691583,-0.270892679691,-0.467094093561,-0.251116394997,-0.203291207552,-0.213845416903
2017/07/09/09:41:42.318777,288698,1499564505,119581853,,0.839777441021,0.00443352848794,0.179672143497,0.786701427331,0.609236588597,0.0354767810761,0.0931291648994,-0.019998460071,-0.209581375382,-0.0484694582175,-0.109897000284,0.05978351642,0.571857532696,0.270033538342,0.309191763401,0.0642697587609,-0.274640053511,-0.125599890947,-0.189373850822
2017/07/09/09:41:42.328882,288699,1499564505,129585117,,0.839777688707,0.00277734586708,0.178867309202,0.785279289065,0.611050848455,0.0354705418631,0.0932477314853,-0.0161855124325,-0.172457778741,-0.0523956902059,-0.109712812241,0.0739135947299,0.633038046972,0.0677035152912,-0.0686812698841,-0.203973308206,-0.205796957016,-0.0996269062161,-0.120863571763
2017/07/09/09:41:42.339084,288700,1499564505,139587943,,0.839521257873,0.000735804343336,0.178877346249,0.783340160755,0.613515419287,0.0348945121564,0.0935916442135,-0.00477968114605,-0.184316580861,-0.0439787136326,-0.113582717949,0.0354824141342,0.596960110371,0.621428966522,-0.05094820261,-0.194140478969,-0.231512725353,0.171468794346,-0.180261060596
2017/07/09/09:41:42.348944,288701,1499564505,149583276,,0.839255215016,-0.000723545538025,0.178005851541,0.781499550657,0.615908701328,0.0347116345408,0.0933275220815,-0.0164635987973,-0.196417923297,-0.038178228551,-0.122896121967,0.0487218555481,0.60065625506,-0.806858837605,0.494207650423,-0.519901752472,-0.416191786528,-0.36542725563,-0.103002429008
2017/07/09/09:41:42.358663,288702,1499564505,159581499,,0.838823094914,-0.00196779206331,0.177510383646,0.780277111353,0.617555717488,0.0348378257908,0.0926223039638,-0.0137591931443,-0.171922089057,-0.0387766085428,-0.0766199503675,0.0454322746213,0.577595499021,-1.12963163853,0.451650887728,-0.947736024857,-0.551894247532,-0.43481528759,-0.164590716362
2017/07/09/09:41:42.368788,288703,1499564505,169584361,,0.838401772747,-0.0043740940396,0.177138579479,0.779899654869,0.618004567036,0.0344787904598,0.0929413603612,-0.0135598548658,-0.150722402385,-0.0419084362427,-0.0160105238676,0.0366087141199,0.428057080929,-1.26314282417,-0.177541136742,-0.513237476349,-0.424091339111,-0.498890787363,-0.103592947125
2017/07/09/09:41:42.378958,288704,1499564505,179589014,,0.838141654515,-0.00578511406502,0.176021114609,0.779734517366,0.618305924172,0.0347340800526,0.0922247810827,-0.019170933753,-0.156023756277,-0.0424867819761,0.0345018532246,0.0150398009395,0.226627385272,-0.450199902058,-0.213355928659,-0.668458878994,-0.424804091454,-0.212350860238,-0.168866872787
2017/07/09/09:41:42.388935,288705,1499564505,189582118,,0.838356702885,-0.00591127424766,0.175963413739,0.777768530109,0.620802153994,0.0354628402748,0.0917779174286,-0.00994172251481,-0.129237182307,-0.0472621934798,0.0761048868262,-0.00580406462614,0.219471704596,0.200422659516,0.961606383324,-0.166650608182,-0.565134346485,-0.0480540581048,-0.121703356504
2017/07/09/09:41:42.398741,288706,1499564505,199581316,,0.838063367914,-0.00651779328439,0.175735411197,0.776155839198,0.62289993544,0.0355990150747,0.0911619099897,-0.0176044590637,-0.105339577718,-0.0598866573175,0.118116810818,0.0324402165527,0.421471287329,-0.493776828051,0.842501401901,0.0450957939029,-0.529224276543,-0.350513219833,-0.00191417708993
2017/07/09/09:41:42.408747,288707,1499564505,209586194,,0.837844908328,-0.00783286998161,0.175378566367,0.775212810169,0.624140579776,0.0364215607973,0.0903720395666,-0.0321130505099,-0.0771161111164,-0.0598053535548,0.162193807512,0.0751361323894,0.516831857824,-1.44601917267,0.272866904736,-0.426929354668,-0.455337673426,-0.825008392334,0.0625547468662
2017/07/09/09:41:42.418829,288708,1499564505,219616375,,0.837628423698,-0.00867631620799,0.174302086372,0.773686893563,0.626136589757,0.0366882343669,0.0895295211337,-0.029930371467,-0.0509031470255,-0.0767000409671,0.155675789461,0.0968417421261,0.578588258536,-1.01241004467,-0.167602390051,-0.659040749073,-0.366789311171,-0.668932497501,0.0661366432905
2017/07/09/09:41:42.428822,288709,1499564505,229583355,,0.837654323284,-0.00878082165631,0.173984304064,0.771956038478,0.628327242937,0.0371340486053,0.0889371287752,-0.0354319924952,-0.113315456492,-0.0647504642073,0.106582480785,0.0683553340175,0.4804836936,-0.353546828032,0.32384082675,-0.51549077034,-0.453606456518,-0.461415737867,-0.0156822688878
2017/07/09/09:41:42.438887,288710,1499564505,239580182,,0.836688279509,-0.00967244511731,0.172642772565,0.771119289295,0.629563708107,0.0370060408365,0.0874936115018,-0.0233879494761,-0.0683169395005,-0.047634641233,0.117434984922,0.0494944701915,0.457012524107,-0.947614729404,-0.113431982696,-0.762853205204,-0.469827532768,-0.579982459545,0.0366638712585
2017/07/09/09:41:42.448779,288711,1499564505,249581672,,0.836448492273,-0.0107873763844,0.172403082822,0.769993685114,0.630949482671,0.0369135388877,0.087463511526,-0.0236808880054,-0.0897358471886,-0.0527928732719,0.101739664136,0.0372157240401,0.379794431687,-0.559340775013,-0.173319727182,-1.07389891148,-0.470560848713,-0.358654052019,0.068692445755
2017/07/09/09:41:42.458939,288712,1499564505,259593930,,0.836873465699,-0.012104471453,0.172593285225,0.769355040992,0.631636013646,0.0376063303545,0.0878324033807,-0.0258696065184,-0.0926040731788,-0.0512518953272,0.0816930976435,0.0427232452799,0.337781006768,0.33011880517,-0.572661161423,-0.247989162803,-0.527529895306,-0.00272254273295,0.0130489245057
2017/07/09/09:41:42.468793,288713,1499564505,269584514,,0.836498245305,-0.012675433116,0.171652489558,0.768259222835,0.633055899428,0.0372912613256,0.0873347385466,-0.0282855032491,-0.116491810943,-0.0499180236816,0.0253849611,0.0415619153566,0.27312075504,-0.0305549018085,0.330089569092,-0.6945707798,-0.718659698963,-0.0766063630581,-0.0237361416221
2017/07/09/09:41:42.479132,288714,1499564505,279583564,,0.836094688655,-0.0142718510135,0.171656266157,0.768142168443,0.633214323641,0.0372777361054,0.0872215557399,-0.0214889360999,-0.110734016589,-0.0435992883754,0.0118968752055,0.0236002562047,0.233945667829,-0.310680925846,-0.394451379776,-0.257333993912,-0.571517467499,-0.0609488077462,-0.000661589205265
2017/07/09/09:41:42.489285,288715,1499564505,289584284,,0.836256341157,-0.0144892246076,0.171821242325,0.767323161795,0.634203606708,0.0375306920729,0.0871343661486,-0.0347690055097,-0.106377472222,-0.046269799851,0.0263750657805,0.0604737535839,0.178993116839,0.302828490734,-0.0555117726326,-0.0586237981915,-0.562205672264,0.176143497229,-0.013624124229
2017/07/09/09:41:42.498930,288716,1499564505,299579853,,0.835093391413,-0.0156233607769,0.170372583204,0.767497732523,0.634195259532,0.0370309246284,0.0858621801506,-0.0478750064469,-0.0868025951738,-0.0566871720972,0.0568377920999,0.0994330956946,0.147293259066,-0.533323168755,0.161395341158,-0.444155812263,-0.589410841465,-0.128281593323,-0.0249895565212
2017/07/09/09:41:42.508704,288717,1499564505,309581845,,0.834368414331,-0.016371471618,0.169445787099,0.76734659459,0.634510973261,0.0367045792317,0.085016483379,-0.0336110480606,-0.0736795155741,-0.0412840983635,0.0600450007661,0.066235330055,0.0964331692393,-1.00416648388,0.591564118862,-1.00212574005,-0.591500520706,-0.305663764477,-0.00970769673586
2017/07/09/09:41:42.518929,288718,1499564505,319592601,,0.834126856221,-0.0170189343707,0.169364996891,0.767496725945,0.634377222958,0.0372237771748,0.0844316591599,-0.0671885978638,-0.0866828509521,-0.0788767832648,0.0691535387397,0.14640484324,0.0392498682661,-0.236304670572,-0.051145888865,-0.378340274096,-0.602995336056,-0.014326704666,-0.0744809359312
2017/07/09/09:41:42.528680,288719,1499564505,329583799,,0.833915385112,-0.0177892937686,0.168910563189,0.767563606868,0.634342232224,0.0370064452857,0.0841817369462,-0.0638485933078,-0.0790873419835,-0.0704239594766,0.103039766224,0.126755968352,-0.0349334874583,0.324511885643,0.184228301048,-0.280879825354,-0.504804074764,0.0564465895295,-0.0595986694098
2017/07/09/09:41:42.538755,288720,1499564505,339587094,,0.833276796772,-0.0185628659352,0.16837835912,0.768235121009,0.633632625816,0.0367418869019,0.0835136401852,-0.0364540367312,-0.0321925864714,-0.0397892315543,0.115978288128,0.083842785958,-0.0284916451198,0.279026538134,-0.00767580233514,0.0315370671451,-0.502204716206,0.0539050810039,-0.0574004985392
2017/07/09/09:41:42.548800,288721,1499564505,349584939,,0.83246736085,-0.0190673692906,0.16750051118,0.768672108621,0.633265517279,0.0362865454952,0.0824697560881,-0.0484485838127,-0.0747838537331,-0.0499707450966,0.0902148575464,0.0842671753615,-0.131402531716,-0.805749833584,0.452948331833,-0.607651591301,-0.602105677128,-0.36186131835,-0.075025215745
2017/07/09/09:41:42.558896,288722,1499564505,359585608,,0.832247925865,-0.0195233649733,0.167448436425,0.768610019727,0.633367270027,0.036507496444,0.0821689815991,-0.0309169690962,-0.0494372309842,-0.0459210266679,0.0996566214232,0.0570179782479,-0.0961356770748,-1.23608636856,-0.205841243267,-0.717163264751,-0.284239470959,-0.454164624214,0.0171378366649
2017/07/09/09:41:42.568698,288723,1499564505,369581700,,0.832363612289,-0.0194778375527,0.167049309125,0.768864218219,0.633086052864,0.0370159799574,0.0817293144426,-0.038646165795,-0.05891651802,-0.0537462350183,0.114735519793,0.0621663021154,-0.115967193004,-1.07425010204,0.384006410837,-0.54544365406,-0.407791495323,-0.335177451372,-0.0287052989006
2017/07/09/09:41:42.579066,288724,1499564505,379585697,,0.831536991686,-0.0197535118227,0.165685585116,0.769287531399,0.632742666765,0.0366374662567,0.0805674112525,-0.0320963383384,-0.0222022877317,-0.0461686883362,0.0949855530597,0.0662685058515,-0.0437434028049,-2.13025140762,-0.0685118734837,-0.560332894325,-0.280416101217,-0.650651276112,0.0363268218935
2017/07/09/09:41:42.589082,288725,1499564505,389583712,,0.831963521571,-0.0203692554975,0.166296911994,0.769748765903,0.632098393766,0.0372175948225,0.0809525084568,-0.0266052967338,-0.0652766596255,-0.0301396846688,0.0545706225751,0.0288890793064,-0.10492125897,-1.04300355911,0.159757643938,-0.119632996619,-0.338132739067,-0.204497277737,-0.0531380660832
2017/07/09/09:41:42.598833,288726,1499564505,399586291,,0.831344553325,-0.0215042830414,0.165737091002,0.770045084118,0.631807760385,0.03661159646,0.0806790762725,-0.0313189180538,-0.0592602855136,-0.0413553686841,0.068806650783,0.0476405467296,-0.0931725831388,-0.919170618057,0.301635831594,-0.0351420268416,-0.41389593482,-0.203994110227,-0.0762164667249
2017/07/09/09:41:42.608753,288727,1499564505,409585595,,0.831880109459,-0.0200132235263,0.165476096988,0.769880073388,0.632043862359,0.0375794418019,0.0799563268805,-0.0203643968873,-0.0283026392665,-0.0375771661505,0.0623255150828,0.0430829975406,-0.0473452105912,-0.527234256268,1.80427753925,-0.372214883566,-0.731354296207,-0.235935717821,-0.114913985133
2017/07/09/09:41:42.618999,288728,1499564505,419585023,,0.83110353024,-0.0215410003518,0.165283955199,0.770233261735,0.631661914353,0.0370010850704,0.0798427715981,-0.00712038304769,-0.0128963537698,-0.020302846317,0.0809061034658,0.0110173357042,-0.0471140454433,-2.30239748955,0.844621658325,-0.410489112139,-0.554832994938,-0.939787983894,-0.0040310844779
2017/07/09/09:41:42.628782,288729,1499564505,429583590,,0.830636698799,-0.0218808086765,0.164484295288,0.770401190398,0.631528212983,0.0368422149766,0.0793522100256,-0.0390511946924,-0.0501620647445,-0.0396871155234,0.0819577781785,0.0559385149743,-0.0847787244041,-1.61049079895,0.660972118378,-0.643274366856,-0.54582631588,-0.665158390999,-0.047140583396
2017/07/09/09:41:42.638853,288730,1499564505,439585906,,0.830699973455,-0.0226678952621,0.164549543366,0.770870775731,0.630931869504,0.036981419652,0.0794707353022,-0.0386317687662,-0.0485937332953,-0.0534091887983,0.0530036692837,0.0739076005994,-0.0801144724111,-0.987095892429,0.4432913661,-0.262459397316,-0.487525880337,-0.494498282671,-0.0713028758764
2017/07/09/09:41:42.649003,288731,1499564505,449581087,,0.830827771946,-0.022712288642,0.164468276885,0.770870375948,0.630904960796,0.0372296891845,0.0795722575566,-0.016136134957,-0.0146203140914,-0.0361231441155,0.054028111132,0.0357654274046,-0.0377072103682,-1.54268300533,0.509911179543,-0.0224840827286,-0.601815283298,-0.644387543201,-0.0941782966256
2017/07/09/09:41:42.658942,288732,1499564505,459605200,,0.830687780198,-0.0221242431316,0.163929013379,0.770931570124,0.630917300168,0.0375361378558,0.078733175284,-0.00970312783031,-0.0327538423203,-0.0297545826299,0.0311700397193,0.000744048540599,-0.0385684673275,-1.0870616436,0.892406523228,-0.199836269021,-0.562750995159,-0.440832197666,-0.124402180314
2017/07/09/09:41:42.669113,288733,1499564505,469584643,,0.830327382518,-0.0230052420892,0.163225107461,0.771206536855,0.630603309911,0.0371942369905,0.0787180524195,-0.00151806310037,-0.0339166618926,-0.0196472746922,0.0431433978273,-0.0245640714902,-0.0522651077388,-1.11548841,0.751557052135,-0.324897646904,-0.517682790756,-0.392581671476,-0.108712978661
2017/07/09/09:41:42.678823,288734,1499564505,479584727,,0.829826848756,-0.023520924673,0.163176601385,0.771477693843,0.63032303061,0.0369374545548,0.0784262037613,-0.0153237888699,-0.0252406665452,-0.0363658884283,0.0507982746244,0.0154378425206,-0.0495308982148,-1.41334557533,0.122331351042,0.099988989532,-0.333400219679,-0.398754835129,-0.0380792208016
2017/07/09/09:41:42.688933,288735,1499564505,489593197,,0.830078606789,-0.0238434278536,0.163029233312,0.771562561449,0.630170713984,0.0375766679104,0.0785116490494,-0.0121218524528,-0.0300133428546,-0.026299037827,0.0318412228123,0.00766085887793,-0.0438277196681,-1.48558473587,0.783298373222,0.148065507412,-0.472853958607,-0.488378226757,-0.0942714288831
2017/07/09/09:41:42.698741,288736,1499564505,499585208,,0.829758789986,-0.0232119870446,0.162902488927,0.771265821372,0.630614162377,0.0369708401427,0.0781534898252,-0.0224082935591,-0.0275141453595,-0.0331274205066,0.0152078332131,0.0403824996869,-0.0354389363302,-2.1660027504,1.07233858109,0.24772682786,-0.622643768787,-0.697452485561,-0.0989481657743
2017/07/09/09:41:42.708898,288737,1499564505,509582115,,0.830009832809,-0.023237115147,0.162508883666,0.771404851727,0.630430513446,0.0373209104071,0.0780965562274,-0.00043693827535,-0.00919678518962,0.000144083814245,0.0205076363037,-0.0100427874255,-0.00893278557588,-2.26218485832,1.49889099598,-0.0355679690838,-0.678829193115,-0.829203546047,-0.0934318527579
2017/07/09/09:41:42.718997,288738,1499564505,519589523,,0.829617487744,-0.0246367572614,0.162939111249,0.772001389305,0.629668956116,0.0371880275012,0.0784086170314,-0.0131848880686,-0.0108596421742,-0.0130485941544,0.0325035147161,0.0186869287667,-0.0306807888487,-1.41526138783,-0.444276720285,-0.0776727870107,-0.151526674628,-0.479388654232,-0.00299363210797
2017/07/09/09:41:42.729037,288739,1499564505,529587219,,0.829845964672,-0.0240136852491,0.162996964269,0.771754229204,0.629974679763,0.0376030519263,0.0781877423204,-0.0264722155562,-0.047917476174,-0.015438626832,0.0278435063258,0.027490861253,-0.0829130830304,0.00839062780142,0.235076189041,-0.105762839317,-0.236807852983,0.000589678063989,-0.083995051682
2017/07/09/09:41:42.738934,288740,1499564505,539591265,,0.829949207342,-0.0239105140987,0.162872589329,0.77168785409,0.63006166101,0.037770575246,0.0780611479608,-0.0065091458849,-0.00447329017648,-0.0141566971953,0.037205428412,0.00708796871131,-0.0187615786057,0.442923665047,0.305208206177,0.11227542907,-0.2364372015,0.109439834952,-0.0809880644083
2017/07/09/09:41:42.748716,288741,1499564505,549581366,,0.829714512243,-0.0243581397554,0.16262754552,0.771964157785,0.629743360891,0.0376709663478,0.0779457298571,-0.0145524498216,-0.00522299989011,-0.0246691819878,0.0281203912995,0.0335203481368,-0.0199038545181,0.500085353851,-0.0475951060653,0.0992845371366,-0.205777406693,0.186437338591,-0.0876476615667
2017/07/09/09:41:42.758913,288742,1499564505,559588121,,0.829762393037,-0.0249152947167,0.162775780277,0.772052008602,0.629574462408,0.0374396492527,0.078549124509,-0.00643332371777,-0.00115602673627,-0.0181445957372,0.0154907815278,0.0151748329308,0.0158196357624,0.673690199852,-0.61156976223,0.769031107426,-0.0257940776646,0.297404944897,-0.0687215477228
2017/07/09/09:41:42.769224,288743,1499564505,569584015,,0.829202214165,-0.0245042905821,0.16174675983,0.771979916519,0.629794719095,0.0372469007089,0.0775776300151,-0.0043037849383,-0.0106006591105,-0.0181206960167,-0.0123405564262,0.0100648506329,-0.00370746136431,-0.12052129209,-0.416236698627,0.263452678919,-0.088906802237,0.0769829973578,-0.0630365237594
2017/07/09/09:41:42.778973,288744,1499564505,579582324,,0.829638543841,-0.0250152179816,0.162094407784,0.771843619994,0.629878617558,0.037142840501,0.0782991878456,0.000322966613883,-0.025698787817,0.000107085083244,-0.0186635978617,-0.0178888391036,-0.0275535398409,0.0607459023595,-0.219469487667,-0.0814385563135,-0.144456192851,0.123639762402,-0.0784491896629
2017/07/09/09:41:42.788797,288745,1499564505,589584162,,0.829707724033,-0.0246819012241,0.1625173699,0.772066137023,0.629609766663,0.0374124233636,0.0781391858354,-0.00119418227581,-0.0203671231177,-0.00839755500612,-0.00692650000404,0.000287819904845,-0.010223052751,-0.355498969555,0.435695528984,0.318053424358,-0.166396200657,-0.159420654178,-0.0501472651958
2017/07/09/09:41:42.798925,288746,1499564505,599598175,,0.829532332595,-0.0253967321317,0.162372002793,0.772146985992,0.629507659275,0.0371221290168,0.0783012546182,-0.00566529259226,-0.0154121709475,-0.00467351230537,-0.0342936439508,0.0249379010518,0.00431039335877,-1.01648378372,-0.0424031764269,0.351940631866,-0.129934847355,-0.378756403923,-0.0474911443889
2017/07/09/09:41:42.809010,288747,1499564505,609582943,,0.829541334331,-0.0253541183784,0.162636692574,0.772192915514,0.629423525237,0.0371898590019,0.0784923021401,-0.00963815800894,-0.00511981413884,0.00252348212826,-0.0162806481077,0.0276158012825,0.00584072669197,-1.32645142078,0.361436486244,0.124172747135,-0.257470279932,-0.568063616753,-0.055724978447
2017/07/09/09:41:42.818895,288748,1499564505,619583953,,0.829678734492,-0.0244018601374,0.162058649155,0.771907343227,0.629836022221,0.0373627342486,0.0779080526987,-0.00900215118221,-0.0119567541521,-0.0013073880102,-0.00829179018063,0.0129222603754,-0.00453633136565,-0.78563028574,0.636767864227,-0.478426992893,-0.156380221248,-0.365766435862,-0.0341539271176
2017/07/09/09:41:42.828911,288749,1499564505,629585209,,0.829349155499,-0.0248508961419,0.162338562459,0.771894745036,0.629861121169,0.0368766651544,0.078061400152,-0.00379834399325,-0.0051582466878,-0.00231801913635,-0.00572647472315,0.00513311091905,-0.00356216681254,-0.0299715586007,0.350955575705,0.155433744192,-0.100259810686,-0.0843008980155,-0.0615192241967
2017/07/09/09:41:42.838979,288750,1499564505,639583783,,0.829221693389,-0.0248655460905,0.162283689943,0.77205430637,0.629669883474,0.0368845904563,0.0780225150045,-0.00822332041255,0.00627063595063,-0.00499979813825,0.00251233745098,0.0161509749025,0.000706695028352,0.280816376209,0.0627255141735,-0.0296338833869,0.0254703015089,0.0272281039506,0.0156118161976
2017/07/09/09:41:42.849111,288751,1499564505,649581909,,0.829588067087,-0.0253089019976,0.162705366423,0.772017813108,0.629631342271,0.0372865365425,0.0785021226921,-0.000326194617622,0.00592347944765,0.00410505517457,0.00278755540504,0.00185807585854,-0.0045818268102,0.0471060611308,-0.345531791449,0.632631778717,0.115897268057,-0.0517922975123,-0.0141902714968
2017/07/09/09:41:42.858944,288752,1499564505,659582257,,0.829033405205,-0.0256327759377,0.162170797773,0.772180468902,0.62951105856,0.0367190451132,0.0781336183895,-0.00747009454344,-0.0061580468425,-0.00570140576087,-0.000187101752103,0.0137456312543,0.00823387982711,0.00971392355859,-0.603904902935,0.194697633386,0.10401891917,-0.0282311141491,-0.00201620161533
2017/07/09/09:41:42.868819,288753,1499564505,669580783,,0.829410448809,-0.0248558931071,0.162377439172,0.771864418855,0.629870027889,0.0370950275805,0.0781858414399,0.0022435970394,-0.00381293646926,0.0120444156937,-0.00618078294005,-0.0100309132081,0.00739486489993,0.0303382501006,0.222651824355,-0.169356793165,-0.0978233665228,-0.10719948262,-0.0690471529961
2017/07/09/09:41:42.878803,288754,1499564505,679591975,,0.829296170676,-0.0247205184162,0.162082988747,0.771736765659,0.630084582846,0.0370510210026,0.0777367662866,-0.00310375762861,-0.00734810522489,-0.00120016358512,-0.00949378254848,0.00687767559055,0.00335161547448,-0.747735857964,0.294144421816,-0.241356879473,-0.124947443604,-0.416652232409,-0.0361159816384
2017/07/09/09:41:42.888840,288755,1499564505,689594301,,0.829393744228,-0.0252253611185,0.162905833282,0.771867264447,0.629842307576,0.0369921811971,0.0784294089779,0.000936588997692,0.00684226907008,0.00432508305879,-0.00409757080083,0.00579476775478,-0.00308729629081,-0.540011763573,-0.0430256351829,0.342735826969,-0.014823295176,-0.317270338535,0.00359331816435
2017/07/09/09:41:42.898814,288756,1499564505,699587656,,0.829311111505,-0.0249489584893,0.162205196511,0.771718381115,0.630071735972,0.0367202631096,0.0781790896337,0.000320587543275,0.015238246822,-0.010728861551,0.0245908716006,0.00739541587769,0.0006692759727,-0.327848553658,-0.116109021008,0.0902234688401,0.103126518428,-0.264379620552,0.0307911112905
2017/07/09/09:41:42.909122,288757,1499564505,709588618,,0.829253520725,-0.0257535963296,0.162617407665,0.772062364466,0.629604461683,0.0368795105729,0.0784718351044,0.0047744960917,0.00132148479272,0.00304532655297,0.00721101829207,-0.0172230127418,-0.0118972848042,-0.377604722977,-0.446263611317,0.277909219265,0.136833935976,-0.224166691303,0.0324091166258
2017/07/09/09:41:42.919001,288758,1499564505,719584938,,0.828999120621,-0.0252599131734,0.162006504796,0.772164127052,0.629556326062,0.0366454967139,0.0779647406149,0.000111839711267,-0.0282218113474,0.00643475120639,-0.028442018646,-0.0153971485349,-0.0189312122273,-0.762720644474,-0.0524169951677,-0.273592114449,0.0232980400324,-0.304889291525,-0.00449699908495
2017/07/09/09:41:42.928988,288759,1499564505,729582376,,0.829300764317,-0.0256482266904,0.162456032346,0.771695159047,0.630044901936,0.0364608829905,0.0787439334739,0.00993998145803,-0.0104989759228,0.0025311299715,-0.0460984086519,-0.0136968759844,0.0379136120626,0.198062092066,-0.199399992824,-0.142179042101,0.0956745147705,0.0448249727488,0.00867683440447
2017/07/09/09:41:42.938918,288760,1499564505,739588318,,0.829278844733,-0.025743538538,0.162223483232,0.77205705867,0.62962827942,0.0365629344969,0.078481078827,-0.00124318151798,0.0134693809721,-0.00990705658954,-0.024821425513,0.0314353358888,0.040875546344,-0.417654454708,-0.518568277359,-0.264335036278,0.104544639587,-0.198350846767,-0.0126706510782
2017/07/09/09:41:42.948980,288761,1499564505,749580902,,0.828611743412,-0.0253868617197,0.161752257727,0.771982559077,0.629839300299,0.0361385706344,0.0777134994228,-0.00480301743064,0.00306740921656,-0.0144070438587,-0.00499607925816,0.0279953615517,0.00812248720498,-0.866422712803,-0.0408130809665,-0.659472167492,0.0394900552928,-0.385770797729,0.039562728256
2017/07/09/09:41:42.958842,288762,1499564505,759593738,,0.829206278544,-0.0249492591342,0.162327606996,0.771594185015,0.630240004213,0.036306465584,0.0782418768787,-0.00240082352944,0.000577241078417,-0.00639386742912,0.0010887090604,0.0121028039925,-0.00487777855717,-0.150884583592,-0.164341598749,0.148485809565,0.0978360772133,-0.141372561455,0.0298131592572
2017/07/09/09:41:42.968994,288763,1499564505,769583256,,0.829042050801,-0.0252015156188,0.161948640443,0.771814546792,0.629984637393,0.0360952410376,0.0782227306016,-0.0108291830732,-0.0165585220684,-0.00321949517586,-0.0238851354379,0.0182770926548,-0.0215135235855,0.0697786659002,0.252777308226,-0.0974950641394,-0.0125344768167,-0.0463753044605,-0.0409813039005
2017/07/09/09:41:42.978967,288764,1499564505,779581509,,0.829024889695,-0.0253927490396,0.162324446209,0.771981089076,0.62977092853,0.036444424894,0.078138208207,-0.00197150197178,0.00722468551472,0.0139527943538,0.00768154597807,-0.00541067188799,0.000876798650996,-0.0346922390163,-0.659736692905,-0.148860231042,0.186548814178,-0.0999641120434,0.0121187344193
2017/07/09/09:41:42.988990,288765,1499564505,789588713,,0.829785731224,-0.0252329700575,0.162640162449,0.771487576953,0.630256176803,0.036710366777,0.0789710021473,0.0183469191912,0.0165225663006,0.0134882684116,-0.000332338276405,-0.0361419787271,0.0335567831755,0.597217738628,-0.0188081115484,-0.0511430725455,0.041213337332,0.13819219172,-0.0493917167187
2017/07/09/09:41:42.998921,288766,1499564505,799614526,,0.828859041096,-0.0256005419137,0.161807123664,0.771807950155,0.629997166097,0.0361988786749,0.0781389785624,0.0105065614724,-0.00182952473455,0.0155939865639,-0.0027472017216,-0.0375842092391,0.00107791265342,-0.0893365293741,-0.411544382572,-0.394134700298,0.132298395038,-0.0733735412359,-0.00080094486475
2017/07/09/09:41:43.009144,288767,1499564505,809586042,,0.829221997172,-0.0251391147652,0.162106807162,0.771734920277,0.630062200589,0.0363352773271,0.0782724973083,0.00312406897779,-0.00177007050662,-0.00295783731483,0.00178518739286,-0.0124659512204,-0.00209799589756,0.292236953974,-0.238021656871,-0.182066082954,0.0976639539003,0.0852171480656,-0.0279996432364
2017/07/09/09:41:43.018635,288768,1499564505,819590150,,0.829249737614,-0.0250978917136,0.161701285584,0.771993560496,0.629755217488,0.0366915441372,0.0780258879356,-0.000583950109984,0.0147824856355,-0.0213779154116,0.0283507344273,0.0229078313916,-0.0088209917645,0.41572022438,-0.381609648466,-0.490979284048,0.0777240395546,0.154001146555,-0.0417161658406
2017/07/09/09:41:43.028790,288769,1499564505,829584061,,0.829290147705,-0.025281058202,0.16198943085,0.771955256373,0.629771021186,0.0366120898807,0.0783140977506,0.00931833754292,0.0118240537037,-0.00859388926786,0.0105938220277,-0.0123789635395,0.00481491012895,-0.0386077240109,-0.402689933777,0.0518039911985,0.11065133661,0.00899210665375,-0.0109781622887
2017/07/09/09:41:43.038975,288770,1499564505,839584998,,0.829358660266,-0.0248049139962,0.161700333594,0.771752020824,0.6300512731,0.0366910876424,0.0780254811402,-0.00146737757314,0.000663335118713,-0.00422254831458,0.00567775199649,0.00296035705566,0.00209060528655,0.0906624346972,0.330591082573,-0.0522260218859,-0.04186591506,0.0134432893246,-0.0672437474132
2017/07/09/09:41:43.048968,288771,1499564505,849612697,,0.829723905672,-0.024124758385,0.162078002531,0.771391497418,0.630463611007,0.0371663499064,0.0780349623089,0.00800721842887,0.00338644345559,0.00425856724347,-0.00968020749564,-0.0154813500607,0.0199202947818,-0.247822791338,0.176990956068,0.0290566775948,-0.0581389889121,-0.0952629745007,-0.0497905649245
2017/07/09/09:41:43.058928,288772,1499564505,859596988,,0.829270360388,-0.0248610930923,0.161587913874,0.77184229997,0.629966271291,0.0367327130481,0.077798899771,0.0109306926477,0.0166236846311,0.00916957796715,0.000494129845181,-0.013620892915,0.0399245072405,-1.06397736073,-0.18753939867,-0.311287760735,-0.0166652910411,-0.362372815609,-0.025841794908
2017/07/09/09:41:43.068741,288773,1499564505,869581604,,0.829531838296,-0.0246054519461,0.162014909523,0.771663047332,0.630133178858,0.036902848033,0.078144085456,-0.00381197301578,0.0115742865888,0.00507113201049,0.0159956038277,0.00868196613581,0.0101010725164,-0.905866444111,-0.0035891905427,-0.211914569139,-0.0784582793713,-0.342936694622,-0.0243472158909
2017/07/09/09:41:43.079043,288774,1499564505,879605996,,0.829542271264,-0.024607108545,0.162417802094,0.771498298013,0.630307701427,0.0369297543746,0.0783503090415,-0.0107537540741,-0.00500895012846,-0.00913088000704,0.00480240394424,0.0208387314209,-0.0175750728779,0.403449296951,-0.285841703415,0.543556630611,0.0896424949169,0.133554264903,-0.0406198278069
2017/07/09/09:41:43.088681,288775,1499564505,889582128,,0.829993312505,-0.0240502997841,0.162487183942,0.771373261177,0.630440445578,0.0373691556722,0.0783050619356,0.00425829792644,-0.00647013672312,0.00466995387131,0.00615060318522,-0.0193053205294,-0.0185618168831,-0.134595885873,0.441356748343,0.1621812433,-0.042372122407,-0.125749245286,-0.0167537815869
2017/07/09/09:41:43.098912,288776,1499564505,899588221,,0.829851335912,-0.0240147886207,0.162462013806,0.771387904218,0.63044830507,0.037255437124,0.0781515723824,-0.00028380298099,0.00808464659349,-4.76158782343e-05,0.0217986725641,0.0021858699187,0.00539739378267,0.721655368805,-0.0457448735833,-0.196281701326,0.079289317131,0.239387959242,-0.0368891432881
2017/07/09/09:41:43.109061,288777,1499564505,909588758,,0.829588857024,-0.0242263621536,0.16189671434,0.771536234266,0.630318976905,0.0370959780587,0.0778056230623,-0.00391544182468,-0.00897132616317,0.00179425099221,-0.0140074277377,0.00535691203608,-0.00248465129314,0.420915782452,-0.0939315408468,-0.00835400447249,0.00440177321434,0.136998087168,-0.0794355422258
2017/07/09/09:41:43.118997,288778,1499564505,919589675,,0.829522417743,-0.0241872388012,0.162016486999,0.77174769702,0.630059081029,0.0370952200603,0.0778138239999,0.00386198396025,0.0158496435121,-0.0116701905187,0.0111048278165,0.00483195435021,0.000925328412204,0.123937658966,-0.131776198745,0.0944925099611,0.00465850159526,0.0710116699338,-0.0668643787503
2017/07/09/09:41:43.128858,288779,1499564505,929581762,,0.829500635067,-0.024840522556,0.16172537591,0.771495718406,0.630339439705,0.0367748017443,0.0781931019342,0.00955834258364,-0.00241634898835,-0.00408874484446,-0.000173439887672,-0.0156594828614,-0.00399454886974,-0.293292880058,-0.0807470530272,-0.141354173422,-0.0321316719055,-0.0899069085717,-0.0432807728648
2017/07/09/09:41:43.138857,288780,1499564505,939580279,,0.829487942053,-0.0248932457813,0.16175778823,0.771662104519,0.630134722468,0.0369145536789,0.0781354190891,0.00601226846141,0.0149936390279,-0.00472639304389,0.0185425258604,-0.00363461441975,0.0222140029131,-0.775068044662,-0.395203232765,-0.305424153805,0.0127292275429,-0.260442912579,-0.0283243209124
2017/07/09/09:41:43.148669,288781,1499564505,949585549,,0.829750650256,-0.0240635998855,0.162151292843,0.771573371203,0.63024365568,0.0369362360029,0.0781228634599,-0.00504201779543,0.00745074470589,-0.0144752820283,-0.000380625070826,0.0279222135379,0.00567125332365,-0.0685657411814,0.134199082851,0.285730719566,-0.098523825407,0.000656386837363,-0.0893371999264
2017/07/09/09:41:43.158929,288782,1499564505,959585445,,0.829673380625,-0.0242753586363,0.161977206244,0.77162297546,0.6301738066,0.0371797655672,0.0780808699374,-0.00712096060425,0.00322900201002,-0.00774391179372,0.0125995401264,0.0157734908239,0.00190378653452,-0.778400957584,-0.514187991619,0.087934948504,0.02587948367,-0.258128941059,-0.0304595381021
2017/07/09/09:41:43.170238,288783,1499564505,969581907,,0.829626621543,-0.0247815821997,0.161641952475,0.771667683175,0.630124021947,0.0368226360513,0.0782099557767,-0.00302414364332,0.00295227153422,0.00656372194188,-0.00778325573798,0.00305672979389,0.023507147846,-0.655824661255,-0.486742794514,-0.273341298103,0.0162242650986,-0.246258586645,-0.019124828279
2017/07/09/09:41:43.178795,288784,1499564505,979608527,,0.829769883888,-0.0244006557075,0.162071536881,0.771331347213,0.630512480295,0.0371258063582,0.0782536868247,0.0110096448626,0.000549852897624,0.0131679430877,-0.00222640753376,-0.0306791013288,-0.00789970044996,-0.128314524889,-0.481526434422,-0.361681908369,0.0991666093469,-0.0211975313723,-0.0293972194195
2017/07/09/09:41:43.188875,288785,1499564505,989584433,,0.829837481395,-0.0251026124515,0.162262117476,0.771937162709,0.629719334829,0.0373584555281,0.0785552160746,0.00324443121711,0.00183206671277,0.00255146914641,0.000591550422572,-0.00395139448167,-0.0041252108837,0.283696353436,-0.617007613182,0.402373254299,0.101085171103,0.128884494305,-0.0416119545698
