time,.header.seq,.header.stamp.secs,.header.stamp.nsecs,.header.frame_id,.ch0,.ch1,.ch2,.ch3,.ch4,.ch5,.ch6,.ch7
2017/07/09/09:43:52.543329,102052,1499564632,542999982,0,327,96,46,32,37,184,120,95
2017/07/09/09:43:52.565575,102053,1499564632,565355062,0,366,102,47,32,37,177,105,105
2017/07/09/09:43:52.588525,102054,1499564632,588016033,0,382,121,55,39,39,186,123,132
2017/07/09/09:43:52.603052,102055,1499564632,602926969,0,376,120,57,39,42,207,132,139
2017/07/09/09:43:52.626315,102056,1499564632,626007080,0,389,118,61,42,38,208,138,131
2017/07/09/09:43:52.648192,102057,1499564632,648021936,0,450,135,64,47,44,241,137,139
2017/07/09/09:43:52.663300,102058,1499564632,663086891,0,447,136,67,48,45,238,133,146
2017/07/09/09:43:52.687954,102059,1499564632,687521934,0,450,127,63,42,44,232,116,130
2017/07/09/09:43:52.708015,102060,1499564632,707887887,0,500,131,60,43,40,206,110,129
2017/07/09/09:43:52.723110,102061,1499564632,722959041,0,494,129,59,43,45,215,100,133
2017/07/09/09:43:52.754227,102062,1499564632,753842115,0,504,127,57,41,41,153,96,137
2017/07/09/09:43:52.768488,102063,1499564632,768285036,0,544,133,56,43,52,187,134,125
2017/07/09/09:43:52.784413,102064,1499564632,784270048,0,545,133,62,44,52,180,139,127
2017/07/09/09:43:52.805839,102065,1499564632,805516958,0,548,137,62,43,52,168,139,126
2017/07/09/09:43:52.828312,102066,1499564632,828195095,0,525,138,64,45,53,164,144,125
2017/07/09/09:43:52.843343,102067,1499564632,843056917,0,545,132,67,44,50,179,151,132
2017/07/09/09:43:52.866004,102068,1499564632,865839958,0,481,123,71,45,44,151,113,135
2017/07/09/09:43:52.888045,102069,1499564632,887947082,0,562,133,65,45,46,152,118,150
2017/07/09/09:43:52.903617,102070,1499564632,903304100,0,527,133,68,48,54,216,115,168
2017/07/09/09:43:52.925706,102071,1499564632,925487995,0,556,132,64,47,52,226,114,186
2017/07/09/09:43:52.948223,102072,1499564632,948051929,0,503,128,69,51,54,213,100,176
2017/07/09/09:43:52.963311,102073,1499564632,963212013,0,552,142,82,57,52,208,119,193
2017/07/09/09:43:52.986195,102074,1499564632,985830068,0,548,157,89,65,67,237,151,210
2017/07/09/09:43:53.008549,102075,1499564633,8302927,0,657,197,100,67,69,186,150,240
2017/07/09/09:43:53.026382,102076,1499564633,23494958,0,636,210,110,66,73,162,153,262
2017/07/09/09:43:53.045660,102077,1499564633,45456886,0,627,205,106,65,73,183,160,265
2017/07/09/09:43:53.068732,102078,1499564633,68427085,0,579,196,93,63,77,209,169,267
2017/07/09/09:43:53.083807,102079,1499564633,83354949,0,515,185,93,66,78,210,141,286
2017/07/09/09:43:53.113830,102080,1499564633,113650083,0,373,142,86,68,74,213,142,272
2017/07/09/09:43:53.128243,102081,1499564633,127916097,0,410,139,86,71,71,224,149,265
2017/07/09/09:43:53.144200,102082,1499564633,143743991,0,399,151,91,70,70,204,154,283
2017/07/09/09:43:53.166264,102083,1499564633,165961027,0,469,168,97,71,74,209,143,297
2017/07/09/09:43:53.188098,102084,1499564633,187911033,0,471,175,100,71,65,190,141,286
2017/07/09/09:43:53.203275,102085,1499564633,202939033,0,480,174,97,67,64,186,143,270
2017/07/09/09:43:53.226201,102086,1499564633,225825071,0,530,180,102,76,77,171,143,318
2017/07/09/09:43:53.248404,102087,1499564633,248162984,0,606,257,129,93,95,209,159,356
2017/07/09/09:43:53.263610,102088,1499564633,263400077,0,560,244,126,97,93,177,157,349
2017/07/09/09:43:53.286067,102089,1499564633,285778999,0,562,237,122,97,94,174,155,351
2017/07/09/09:43:53.312097,102090,1499564633,308264017,0,655,265,126,100,94,182,157,367
2017/07/09/09:43:53.323037,102091,1499564633,322900056,0,675,268,119,95,86,179,151,344
2017/07/09/09:43:53.345887,102092,1499564633,345689058,0,611,198,87,80,69,155,132,289
2017/07/09/09:43:53.367996,102093,1499564633,367839097,0,619,216,95,76,64,209,153,279
2017/07/09/09:43:53.391116,102094,1499564633,390815973,0,651,224,99,69,56,211,163,265
2017/07/09/09:43:53.405863,102095,1499564633,405637025,0,546,191,93,65,54,205,156,267
2017/07/09/09:43:53.438163,102096,1499564633,437136888,0,441,169,92,72,55,207,160,239
2017/07/09/09:43:53.450873,102097,1499564633,450619935,0,504,165,93,69,52,207,171,234
2017/07/09/09:43:53.467588,102098,1499564633,467391967,0,500,149,80,65,52,165,142,259
2017/07/09/09:43:53.488586,102099,1499564633,488243103,0,434,128,79,69,55,168,133,260
2017/07/09/09:43:53.511145,102100,1499564633,510628938,0,476,141,85,68,57,187,147,244
2017/07/09/09:43:53.525848,102101,1499564633,525371074,0,462,140,80,56,56,203,147,233
2017/07/09/09:43:53.548810,102102,1499564633,548401117,0,397,137,75,66,60,187,123,237
2017/07/09/09:43:53.571106,102103,1499564633,570796012,0,441,147,81,69,65,187,130,220
2017/07/09/09:43:53.593724,102104,1499564633,593619108,0,493,159,74,65,63,166,128,236
2017/07/09/09:43:53.608146,102105,1499564633,607975006,0,482,158,93,102,83,174,143,260
2017/07/09/09:43:53.631224,102106,1499564633,630934953,0,509,160,91,106,90,151,133,268
2017/07/09/09:43:53.645566,102107,1499564633,645448923,0,532,162,95,105,91,159,144,297
2017/07/09/09:43:53.668616,102108,1499564633,668257951,0,487,148,93,105,89,146,146,317
2017/07/09/09:43:53.690784,102109,1499564633,690468072,0,461,156,96,115,98,178,156,313
2017/07/09/09:43:53.705959,102110,1499564633,705724000,0,471,148,77,85,82,151,170,297
2017/07/09/09:43:53.729682,102111,1499564633,729588031,0,457,142,79,78,74,162,172,291
2017/07/09/09:43:53.750556,102112,1499564633,750452041,0,436,137,87,83,71,150,182,269
2017/07/09/09:43:53.765323,102113,1499564633,765217065,0,438,146,93,86,79,156,178,280
2017/07/09/09:43:53.790241,102114,1499564633,789908885,0,420,127,87,79,71,117,167,264
2017/07/09/09:43:53.810917,102115,1499564633,810781955,0,348,117,85,89,88,192,169,247
2017/07/09/09:43:53.825749,102116,1499564633,825576066,0,307,114,91,92,97,194,177,258
2017/07/09/09:43:53.848132,102117,1499564633,847961902,0,338,123,87,87,98,198,163,256
2017/07/09/09:43:53.878990,102118,1499564633,878731012,0,352,111,82,83,90,202,160,234
2017/07/09/09:43:53.885861,102119,1499564633,885669946,0,358,103,83,79,87,211,163,266
2017/07/09/09:43:53.908167,102120,1499564633,908000946,0,386,104,83,67,71,152,130,277
2017/07/09/09:43:53.930737,102121,1499564633,930469036,0,411,105,76,64,52,135,115,269
2017/07/09/09:43:53.961950,102122,1499564633,961674928,0,386,93,69,61,52,152,107,263
2017/07/09/09:43:53.968116,102123,1499564633,967936038,0,369,90,68,55,56,225,127,252
2017/07/09/09:43:53.990639,102124,1499564633,990488052,0,344,86,63,53,58,223,127,224
2017/07/09/09:43:54.005582,102125,1499564634,5458116,0,310,93,58,53,60,217,118,214
2017/07/09/09:43:54.028378,102126,1499564634,28068065,0,296,98,56,47,59,217,116,199
2017/07/09/09:43:54.051162,102127,1499564634,50760030,0,293,106,59,45,55,225,118,207
2017/07/09/09:43:54.066998,102128,1499564634,66878080,0,304,111,57,43,49,140,102,201
2017/07/09/09:43:54.088021,102129,1499564634,87842941,0,346,114,56,47,47,143,133,214
2017/07/09/09:43:54.110700,102130,1499564634,110482931,0,346,111,60,42,40,139,133,247
2017/07/09/09:43:54.126010,102131,1499564634,125726938,0,358,120,64,45,40,138,150,263
2017/07/09/09:43:54.148321,102132,1499564634,148052930,0,332,116,60,48,46,103,158,269
2017/07/09/09:43:54.171019,102133,1499564634,170675992,0,292,109,57,50,50,101,156,263
2017/07/09/09:43:54.185802,102134,1499564634,185508966,0,248,116,63,44,64,109,175,276
2017/07/09/09:43:54.209942,102135,1499564634,209794044,0,271,118,56,52,153,115,172,255
2017/07/09/09:43:54.230583,102136,1499564634,230339050,0,478,164,61,51,202,118,174,264
2017/07/09/09:43:54.245646,102137,1499564634,245521068,0,504,184,77,51,210,111,173,289
2017/07/09/09:43:54.268472,102138,1499564634,268248081,0,508,189,82,81,349,140,175,289
2017/07/09/09:43:54.290954,102139,1499564634,290625095,0,520,197,83,102,370,139,140,291
2017/07/09/09:43:54.305743,102140,1499564634,305524110,0,518,197,86,101,357,132,140,305
2017/07/09/09:43:54.328391,102141,1499564634,328113079,0,419,164,88,112,345,133,120,319
2017/07/09/09:43:54.350969,102142,1499564634,350711107,0,409,232,121,112,343,131,113,320
2017/07/09/09:43:54.376243,102143,1499564634,376022100,0,402,239,125,125,395,186,128,326
2017/07/09/09:43:54.397059,102144,1499564634,396867990,0,376,232,125,124,462,217,302,332
2017/07/09/09:43:54.411076,102145,1499564634,410721063,0,453,256,131,136,477,221,317,374
2017/07/09/09:43:54.434000,102146,1499564634,433486938,0,409,264,130,142,476,228,338,375
2017/07/09/09:43:54.448183,102147,1499564634,447999954,0,405,203,100,155,491,241,348,353
2017/07/09/09:43:54.470488,102148,1499564634,470382928,0,403,197,105,293,645,398,452,410
2017/07/09/09:43:54.494151,102149,1499564634,493638038,0,408,204,119,448,740,513,411,407
2017/07/09/09:43:54.508166,102150,1499564634,507960081,0,334,198,113,461,737,543,408,360
2017/07/09/09:43:54.531000,102151,1499564634,530673027,0,274,189,113,471,778,557,402,344
2017/07/09/09:43:54.577419,102152,1499564634,576916933,0,260,194,114,501,872,639,459,346
2017/07/09/09:43:54.578575,102153,1499564634,578424930,0,270,196,104,454,742,585,395,272
2017/07/09/09:43:54.591100,102154,1499564634,590867996,0,386,231,110,328,657,494,360,244
2017/07/09/09:43:54.613145,102155,1499564634,612952947,0,387,311,232,320,717,489,367,271
2017/07/09/09:43:54.628279,102156,1499564634,627973079,0,385,324,248,306,748,550,366,272
2017/07/09/09:43:54.651387,102157,1499564634,650939941,0,405,314,243,247,640,477,285,281
2017/07/09/09:43:54.673456,102158,1499564634,673269033,0,438,316,243,197,589,419,233,299
2017/07/09/09:43:54.691457,102159,1499564634,688460111,0,368,298,234,146,565,473,219,327
2017/07/09/09:43:54.710862,102160,1499564634,710640907,0,375,194,132,118,515,450,220,302
2017/07/09/09:43:54.733262,102161,1499564634,733074903,0,361,168,100,105,400,360,237,305
2017/07/09/09:43:54.748574,102162,1499564634,748312950,0,338,210,108,110,453,333,248,280
2017/07/09/09:43:54.770442,102163,1499564634,770323991,0,307,221,119,106,451,327,236,274
2017/07/09/09:43:54.793160,102164,1499564634,793008089,0,285,229,118,104,400,200,218,256
2017/07/09/09:43:54.825444,102165,1499564634,825293064,0,250,285,118,107,358,197,195,266
2017/07/09/09:43:54.830588,102166,1499564634,830418109,0,252,293,122,107,354,180,172,248
2017/07/09/09:43:54.853107,102167,1499564634,852931976,0,240,277,153,109,291,158,170,257
2017/07/09/09:43:54.868085,102168,1499564634,867921113,0,202,262,146,105,286,169,168,229
2017/07/09/09:43:54.891210,102169,1499564634,890608072,0,176,259,147,102,276,165,169,196
2017/07/09/09:43:54.913452,102170,1499564634,913229942,0,152,324,168,85,262,176,164,209
2017/07/09/09:43:54.930193,102171,1499564634,928319931,0,187,343,171,81,302,179,135,211
2017/07/09/09:43:54.950646,102172,1499564634,950340032,0,185,340,149,73,274,181,124,249
2017/07/09/09:43:54.973875,102173,1499564634,973460912,0,191,348,149,73,256,176,125,261
2017/07/09/09:43:54.988681,102174,1499564634,988426923,0,261,352,151,66,248,171,115,263
2017/07/09/09:43:55.010434,102175,1499564635,10333061,0,276,242,110,68,250,161,126,237
2017/07/09/09:43:55.033325,102176,1499564635,33000946,0,252,198,100,65,211,174,134,234
2017/07/09/09:43:55.048692,102177,1499564635,48382043,0,262,211,104,66,221,175,130,245
2017/07/09/09:43:55.079050,102178,1499564635,78751087,0,290,215,113,72,223,187,139,249
2017/07/09/09:43:55.093168,102179,1499564635,92983961,0,252,205,109,70,216,185,136,250
2017/07/09/09:43:55.108157,102180,1499564635,107992887,0,244,197,107,85,263,195,129,274
2017/07/09/09:43:55.130804,102181,1499564635,130655050,0,244,195,102,88,263,188,144,283
2017/07/09/09:43:55.153246,102182,1499564635,153107881,0,227,168,84,82,263,199,149,279
2017/07/09/09:43:55.167987,102183,1499564635,167896032,0,206,156,83,78,278,177,154,299
2017/07/09/09:43:55.190771,102184,1499564635,190577030,0,197,163,99,83,277,175,155,303
2017/07/09/09:43:55.213457,102185,1499564635,213215112,0,192,165,98,72,245,156,156,284
2017/07/09/09:43:55.228212,102186,1499564635,227989912,0,190,163,103,74,257,162,138,263
2017/07/09/09:43:55.250671,102187,1499564635,250391960,0,200,153,99,71,238,139,122,235
2017/07/09/09:43:55.273762,102188,1499564635,273128986,0,212,151,86,68,213,144,119,249
2017/07/09/09:43:55.296300,102189,1499564635,295784950,0,226,126,68,66,239,156,141,242
2017/07/09/09:43:55.310782,102190,1499564635,310583114,0,225,118,63,56,218,151,138,231
2017/07/09/09:43:55.333160,102191,1499564635,332942008,0,223,122,55,54,181,126,141,237
2017/07/09/09:43:55.356098,102192,1499564635,355741977,0,214,132,62,55,177,132,164,229
2017/07/09/09:43:55.370610,102193,1499564635,370511054,0,188,117,60,60,173,139,165,229
2017/07/09/09:43:55.394402,102194,1499564635,394277095,0,146,112,70,62,165,138,149,246
2017/07/09/09:43:55.416949,102195,1499564635,416809082,0,142,167,111,65,149,135,169,264
2017/07/09/09:43:55.431224,102196,1499564635,430742025,0,217,184,112,58,144,132,186,265
2017/07/09/09:43:55.453724,102197,1499564635,453429937,0,214,190,111,59,161,126,165,263
2017/07/09/09:43:55.475723,102198,1499564635,475456953,0,214,194,112,55,225,135,167,215
2017/07/09/09:43:55.490671,102199,1499564635,490448951,0,218,192,105,46,207,132,186,201
2017/07/09/09:43:55.521608,102200,1499564635,521291017,0,215,146,64,43,216,133,163,182
2017/07/09/09:43:55.535837,102201,1499564635,535655021,0,141,122,62,46,218,138,149,185
2017/07/09/09:43:55.550671,102202,1499564635,550419092,0,149,108,61,51,253,149,148,176
2017/07/09/09:43:55.573266,102203,1499564635,573040008,0,143,97,61,59,241,149,136,161
2017/07/09/09:43:55.595901,102204,1499564635,595698118,0,128,186,96,62,244,141,111,149
2017/07/09/09:43:55.611107,102205,1499564635,610764026,0,125,192,103,59,251,155,128,167
2017/07/09/09:43:55.633024,102206,1499564635,632858037,0,128,237,138,62,263,160,159,184
2017/07/09/09:43:55.655978,102207,1499564635,655730962,0,121,237,142,71,225,149,174,203
2017/07/09/09:43:55.670875,102208,1499564635,670722961,0,122,240,143,67,188,132,176,208
