time,.header.seq,.header.stamp.secs,.header.stamp.nsecs,.header.frame_id,.ch0,.ch1,.ch2,.ch3,.ch4,.ch5,.ch6,.ch7
2017/07/09/09:43:01.146562,99489,1499564581,146280050,0,281,72,55,44,36,123,65,81
2017/07/09/09:43:01.168569,99490,1499564581,168093919,0,290,75,53,39,33,106,58,80
2017/07/09/09:43:01.191299,99491,1499564581,191098928,0,273,79,49,37,29,95,50,93
2017/07/09/09:43:01.213013,99492,1499564581,212806940,0,261,82,53,44,36,98,49,97
2017/07/09/09:43:01.229780,99493,1499564581,229475021,0,305,88,60,45,34,128,54,91
2017/07/09/09:43:01.250629,99494,1499564581,250355005,0,256,85,62,43,34,143,66,85
2017/07/09/09:43:01.273241,99495,1499564581,272989988,0,376,106,62,45,34,151,68,99
2017/07/09/09:43:01.289463,99496,1499564581,289349079,0,381,112,62,45,37,159,72,88
2017/07/09/09:43:01.312338,99497,1499564581,312165975,0,395,110,59,37,30,157,80,83
2017/07/09/09:43:01.333379,99498,1499564581,333116054,0,374,112,57,37,28,144,79,90
2017/07/09/09:43:01.349473,99499,1499564581,349308013,0,393,114,58,33,27,165,86,89
2017/07/09/09:43:01.371678,99500,1499564581,371591091,0,344,134,61,34,27,168,105,96
2017/07/09/09:43:01.393327,99501,1499564581,393151044,0,395,146,61,31,23,168,108,97
2017/07/09/09:43:01.415808,99502,1499564581,415550947,0,383,149,60,32,23,166,104,99
2017/07/09/09:43:01.433245,99503,1499564581,432813882,0,375,146,62,39,24,174,106,106
2017/07/09/09:43:01.452808,99504,1499564581,452722072,0,372,142,62,43,25,151,101,108
2017/07/09/09:43:01.469912,99505,1499564581,469733953,0,391,126,59,41,27,154,80,94
2017/07/09/09:43:01.491875,99506,1499564581,491763114,0,372,112,57,40,30,193,105,99
2017/07/09/09:43:01.513358,99507,1499564581,513154983,0,375,110,59,38,29,199,108,100
2017/07/09/09:43:01.535439,99508,1499564581,535289049,0,409,115,53,34,32,195,107,93
2017/07/09/09:43:01.560080,99509,1499564581,559797048,0,409,121,52,35,36,218,113,90
2017/07/09/09:43:01.573322,99510,1499564581,573111057,0,335,97,47,34,34,210,118,88
2017/07/09/09:43:01.595360,99511,1499564581,595211029,0,283,86,46,36,33,168,94,78
2017/07/09/09:43:01.611893,99512,1499564581,611732006,0,276,89,46,39,35,161,93,79
2017/07/09/09:43:01.633759,99513,1499564581,633102893,0,304,89,51,44,36,153,101,90
2017/07/09/09:43:01.663172,99514,1499564581,662941932,0,294,83,46,40,32,106,90,86
2017/07/09/09:43:01.672425,99515,1499564581,672260999,0,334,87,50,41,33,104,94,90
2017/07/09/09:43:01.693048,99516,1499564581,692840099,0,337,97,49,41,32,103,96,90
2017/07/09/09:43:01.715991,99517,1499564581,715550899,0,427,123,56,41,36,133,113,105
2017/07/09/09:43:01.732000,99518,1499564581,731899023,0,391,118,51,36,34,115,112,98
2017/07/09/09:43:01.754589,99519,1499564581,754345893,0,464,132,53,37,34,115,109,105
2017/07/09/09:43:01.775344,99520,1499564581,775243997,0,438,132,55,38,36,111,109,109
2017/07/09/09:43:01.792400,99521,1499564581,792037010,0,468,130,57,38,37,119,113,125
2017/07/09/09:43:01.813153,99522,1499564581,812851905,0,435,108,53,43,35,122,108,129
2017/07/09/09:43:01.837169,99523,1499564581,837084054,0,439,119,60,46,46,157,108,131
2017/07/09/09:43:01.851862,99524,1499564581,851768016,0,366,106,63,48,51,161,114,138
2017/07/09/09:43:01.873791,99525,1499564581,873275995,0,376,119,69,49,52,165,112,172
2017/07/09/09:43:01.896964,99526,1499564581,896683931,0,408,131,69,51,53,179,130,182
2017/07/09/09:43:01.911940,99527,1499564581,911767005,0,407,146,80,51,54,162,120,185
2017/07/09/09:43:01.932975,99528,1499564581,932789087,0,398,141,77,47,45,130,111,183
2017/07/09/09:43:01.955861,99529,1499564581,955612897,0,395,145,76,49,44,156,122,178
2017/07/09/09:43:01.971915,99530,1499564581,971689939,0,410,136,69,46,41,160,123,163
2017/07/09/09:43:01.994549,99531,1499564581,994273900,0,407,136,68,45,44,171,114,151
2017/07/09/09:43:02.015408,99532,1499564582,15273094,0,430,170,86,60,55,171,118,169
2017/07/09/09:43:02.037537,99533,1499564582,37302970,0,443,176,89,69,64,172,124,203
2017/07/09/09:43:02.053655,99534,1499564582,53297042,0,457,182,94,71,64,192,121,208
2017/07/09/09:43:02.077182,99535,1499564582,76989889,0,445,192,101,73,68,190,116,197
2017/07/09/09:43:02.092555,99536,1499564582,91938018,0,585,206,101,84,74,169,106,214
2017/07/09/09:43:02.113214,99537,1499564582,112999916,0,585,171,84,77,75,172,103,215
2017/07/09/09:43:02.136237,99538,1499564582,135927915,0,605,170,80,73,72,180,107,215
2017/07/09/09:43:02.152507,99539,1499564582,152322053,0,609,175,83,73,73,176,99,240
2017/07/09/09:43:02.174162,99540,1499564582,174088954,0,686,185,75,73,70,171,109,248
2017/07/09/09:43:02.195473,99541,1499564582,195266962,0,599,203,93,62,62,178,110,322
2017/07/09/09:43:02.212374,99542,1499564582,212142944,0,602,218,87,57,53,174,111,317
2017/07/09/09:43:02.233227,99543,1499564582,233036041,0,572,216,88,55,45,164,118,309
2017/07/09/09:43:02.255493,99544,1499564582,255285978,0,598,227,86,61,49,116,119,320
2017/07/09/09:43:02.279969,99545,1499564582,279593944,0,537,220,96,63,51,121,115,323
2017/07/09/09:43:02.293077,99546,1499564582,292905092,0,477,190,85,69,55,130,114,259
2017/07/09/09:43:02.315816,99547,1499564582,315504074,0,431,172,86,71,65,145,119,260
2017/07/09/09:43:02.332214,99548,1499564582,332092046,0,431,165,94,74,68,156,103,265
2017/07/09/09:43:02.352957,99549,1499564582,352722883,0,478,142,95,65,64,154,99,233
2017/07/09/09:43:02.375758,99550,1499564582,375405073,0,455,127,90,66,65,183,118,226
2017/07/09/09:43:02.391870,99551,1499564582,391717910,0,434,111,85,61,64,179,150,205
2017/07/09/09:43:02.429502,99552,1499564582,428786039,0,493,138,88,65,64,176,156,242
2017/07/09/09:43:02.436148,99553,1499564582,435853004,0,533,147,78,62,63,172,163,233
2017/07/09/09:43:02.452509,99554,1499564582,452083110,0,435,139,71,66,62,173,169,229
2017/07/09/09:43:02.474577,99555,1499564582,474328041,0,453,141,75,71,74,170,157,258
2017/07/09/09:43:02.496140,99556,1499564582,495738983,0,488,147,77,71,73,150,121,253
2017/07/09/09:43:02.512658,99557,1499564582,512516975,0,515,143,82,65,70,158,124,255
2017/07/09/09:43:02.534988,99558,1499564582,534657001,0,479,148,89,73,79,166,116,267
2017/07/09/09:43:02.555589,99559,1499564582,555358886,0,480,143,87,79,91,210,157,294
2017/07/09/09:43:02.579745,99560,1499564582,579452991,0,479,149,86,79,85,187,160,275
2017/07/09/09:43:02.594459,99561,1499564582,594278097,0,466,149,84,78,86,188,165,285
2017/07/09/09:43:02.616438,99562,1499564582,615804910,0,376,135,74,83,86,174,150,252
2017/07/09/09:43:02.631731,99563,1499564582,631650924,0,413,138,69,86,90,168,149,250
2017/07/09/09:43:02.652948,99564,1499564582,652828931,0,436,150,76,77,79,164,108,237
2017/07/09/09:43:02.676121,99565,1499564582,675812959,0,480,171,80,92,97,192,98,286
2017/07/09/09:43:02.692284,99566,1499564582,692080020,0,453,162,80,93,97,198,103,297
2017/07/09/09:43:02.714514,99567,1499564582,714270114,0,483,182,96,100,98,198,114,338
2017/07/09/09:43:02.735765,99568,1499564582,735387086,0,462,173,96,92,87,191,112,330
2017/07/09/09:43:02.752619,99569,1499564582,752239942,0,469,182,92,101,96,144,107,328
2017/07/09/09:43:02.773208,99570,1499564582,772932052,0,427,187,100,90,81,102,118,329
2017/07/09/09:43:02.797364,99571,1499564582,795521974,0,440,199,103,89,81,171,110,317
2017/07/09/09:43:02.811943,99572,1499564582,811810016,0,388,176,90,79,77,180,112,276
2017/07/09/09:43:02.834539,99573,1499564582,834228992,0,433,193,88,76,77,184,114,289
2017/07/09/09:43:02.855828,99574,1499564582,855592012,0,410,177,84,65,65,188,106,279
2017/07/09/09:43:02.872373,99575,1499564582,872230052,0,389,144,63,56,56,195,95,236
2017/07/09/09:43:02.892989,99576,1499564582,892833948,0,416,137,58,58,52,128,91,232
2017/07/09/09:43:02.915684,99577,1499564582,915313005,0,448,138,55,52,53,160,86,222
2017/07/09/09:43:02.932411,99578,1499564582,932203054,0,370,103,55,58,56,157,88,214
2017/07/09/09:43:02.953001,99579,1499564582,952783107,0,372,106,60,62,60,152,86,214
2017/07/09/09:43:02.975825,99580,1499564582,975481986,0,357,104,59,66,64,140,80,192
2017/07/09/09:43:02.991734,99581,1499564582,991656064,0,331,106,61,62,65,150,113,188
2017/07/09/09:43:03.013076,99582,1499564583,12875080,0,275,96,62,63,59,89,133,206
2017/07/09/09:43:03.035544,99583,1499564583,35398960,0,356,107,61,68,62,88,144,247
2017/07/09/09:43:03.052333,99584,1499564583,52148103,0,360,112,64,65,61,147,167,257
2017/07/09/09:43:03.073418,99585,1499564583,73162078,0,347,109,65,58,56,150,172,276
2017/07/09/09:43:03.095377,99586,1499564583,95226049,0,325,99,61,62,56,141,157,289
2017/07/09/09:43:03.112254,99587,1499564583,112152099,0,364,114,64,64,60,140,142,285
2017/07/09/09:43:03.140491,99588,1499564583,140269041,0,290,116,63,54,56,139,131,238
2017/07/09/09:43:03.155667,99589,1499564583,155458927,0,266,111,59,58,65,110,207,225
2017/07/09/09:43:03.172086,99590,1499564583,171989917,0,258,110,56,55,66,117,214,209
2017/07/09/09:43:03.194379,99591,1499564583,194179058,0,256,111,57,54,65,114,215,185
2017/07/09/09:43:03.216039,99592,1499564583,215775966,0,215,103,51,49,61,113,228,233
2017/07/09/09:43:03.238252,99593,1499564583,238076925,0,198,93,56,65,76,158,255,238
2017/07/09/09:43:03.254302,99594,1499564583,254162073,0,201,133,76,69,96,142,265,377
2017/07/09/09:43:03.275647,99595,1499564583,275352954,0,221,142,81,92,241,197,396,476
2017/07/09/09:43:03.297925,99596,1499564583,297749042,0,222,142,83,99,280,223,461,514
2017/07/09/09:43:03.314497,99597,1499564583,314348936,0,208,148,89,104,306,231,477,512
2017/07/09/09:43:03.335395,99598,1499564583,335211992,0,229,153,92,136,410,226,591,573
2017/07/09/09:43:03.358283,99599,1499564583,358144998,0,254,146,96,159,535,390,635,727
2017/07/09/09:43:03.374581,99600,1499564583,374480009,0,374,271,133,193,570,452,644,779
2017/07/09/09:43:03.396051,99601,1499564583,395584106,0,392,333,179,204,573,478,726,793
2017/07/09/09:43:03.425607,99602,1499564583,425244092,0,426,345,190,223,671,547,782,800
2017/07/09/09:43:03.434831,99603,1499564583,434521913,0,455,369,212,218,620,555,822,848
2017/07/09/09:43:03.455928,99604,1499564583,455730915,0,457,384,227,208,672,549,847,706
2017/07/09/09:43:03.479412,99605,1499564583,479293107,0,400,347,214,190,657,502,821,599
2017/07/09/09:43:03.494412,99606,1499564583,494270086,0,408,298,186,204,679,493,752,601
2017/07/09/09:43:03.517428,99607,1499564583,517201900,0,455,291,174,220,685,435,696,579
2017/07/09/09:43:03.538249,99608,1499564583,538059949,0,443,268,169,219,686,418,572,496
2017/07/09/09:43:03.554237,99609,1499564583,554079055,0,432,301,164,212,546,315,454,460
2017/07/09/09:43:03.575599,99610,1499564583,575324058,0,483,261,161,198,514,306,428,468
2017/07/09/09:43:03.605892,99611,1499564583,605602025,0,492,268,153,177,498,267,386,418
2017/07/09/09:43:03.614814,99612,1499564583,614650964,0,439,279,186,138,330,235,429,446
2017/07/09/09:43:03.635454,99613,1499564583,635175943,0,438,275,165,114,325,233,392,388
2017/07/09/09:43:03.658278,99614,1499564583,657959938,0,496,271,152,117,314,192,408,375
2017/07/09/09:43:03.675298,99615,1499564583,674585103,0,457,270,148,111,282,167,371,345
2017/07/09/09:43:03.695715,99616,1499564583,695523023,0,441,312,172,95,232,165,347,378
2017/07/09/09:43:03.718076,99617,1499564583,717897891,0,429,313,140,82,258,178,270,374
2017/07/09/09:43:03.734265,99618,1499564583,734127998,0,430,320,142,106,402,256,309,378
2017/07/09/09:43:03.755692,99619,1499564583,755542039,0,382,293,134,100,409,253,302,388
2017/07/09/09:43:03.779432,99620,1499564583,779207944,0,427,293,132,104,404,250,304,389
2017/07/09/09:43:03.794305,99621,1499564583,794150114,0,442,231,96,105,409,254,303,336
2017/07/09/09:43:03.815689,99622,1499564583,815305948,0,430,205,94,101,430,258,323,298
2017/07/09/09:43:03.838253,99623,1499564583,837918043,0,460,186,86,75,329,187,274,316
2017/07/09/09:43:03.854857,99624,1499564583,854495048,0,445,134,75,73,313,188,246,283
2017/07/09/09:43:03.875445,99625,1499564583,875272035,0,358,136,80,67,307,179,246,277
2017/07/09/09:43:03.897938,99626,1499564583,897753000,0,386,174,78,61,311,200,261,300
2017/07/09/09:43:03.914922,99627,1499564583,914849042,0,383,187,74,58,254,178,265,301
2017/07/09/09:43:03.944739,99628,1499564583,944381952,0,408,203,77,53,201,159,278,275
2017/07/09/09:43:03.957829,99629,1499564583,957657098,0,433,197,74,51,206,158,280,289
2017/07/09/09:43:03.974513,99630,1499564583,974395036,0,442,184,65,48,198,165,277,280
2017/07/09/09:43:03.995810,99631,1499564583,995554924,0,398,156,74,54,163,127,286,254
2017/07/09/09:43:04.018632,99632,1499564584,18152952,0,415,152,72,53,151,119,255,296
2017/07/09/09:43:04.042014,99633,1499564584,41910886,0,350,139,74,52,166,121,238,306
2017/07/09/09:43:04.057144,99634,1499564584,57044029,0,342,148,77,57,193,158,290,339
2017/07/09/09:43:04.078075,99635,1499564584,77868938,0,340,159,90,67,208,161,301,358
2017/07/09/09:43:04.094782,99636,1499564584,94471931,0,393,168,86,63,204,169,270,356
2017/07/09/09:43:04.115391,99637,1499564584,115212917,0,429,188,90,65,203,173,265,333
2017/07/09/09:43:04.138301,99638,1499564584,138097047,0,424,183,87,73,210,191,280,385
2017/07/09/09:43:04.160984,99639,1499564584,160769939,0,394,177,83,69,174,172,278,377
2017/07/09/09:43:04.175796,99640,1499564584,175570964,0,413,179,83,60,149,165,271,365
2017/07/09/09:43:04.197894,99641,1499564584,197710037,0,444,176,78,60,141,155,272,397
2017/07/09/09:43:04.222322,99642,1499564584,222138881,0,413,146,74,59,141,148,264,393
2017/07/09/09:43:04.235928,99643,1499564584,235523939,0,432,137,71,51,116,126,270,339
2017/07/09/09:43:04.257825,99644,1499564584,257719039,0,439,140,72,62,209,157,231,340
2017/07/09/09:43:04.280619,99645,1499564584,280389070,0,431,142,64,66,232,165,232,357
2017/07/09/09:43:04.302898,99646,1499564584,302653074,0,410,128,64,66,241,167,239,326
2017/07/09/09:43:04.318308,99647,1499564584,317995071,0,395,156,63,66,239,171,261,326
2017/07/09/09:43:04.348791,99648,1499564584,348550081,0,372,167,61,65,239,168,236,312
2017/07/09/09:43:04.363145,99649,1499564584,362864017,0,410,178,73,55,191,137,219,281
2017/07/09/09:43:04.378632,99650,1499564584,378344058,0,407,179,70,53,165,110,207,247
2017/07/09/09:43:04.400708,99651,1499564584,400533914,0,389,194,76,48,153,123,201,280
2017/07/09/09:43:04.416680,99652,1499564584,416594028,0,416,174,77,56,174,122,193,293
2017/07/09/09:43:04.437895,99653,1499564584,437721014,0,403,193,98,58,183,127,197,312
2017/07/09/09:43:04.468195,99654,1499564584,467999935,0,367,191,90,55,191,106,186,289
2017/07/09/09:43:04.482750,99655,1499564584,482358932,0,364,179,84,54,196,124,201,308
2017/07/09/09:43:04.497785,99656,1499564584,497642993,0,376,157,78,56,207,105,187,294
2017/07/09/09:43:04.520706,99657,1499564584,520323038,0,362,164,93,51,192,99,170,303
2017/07/09/09:43:04.537804,99658,1499564584,537571907,0,360,169,74,50,198,109,188,283
2017/07/09/09:43:04.558563,99659,1499564584,558357954,0,349,159,73,51,183,147,230,345
2017/07/09/09:43:04.580308,99660,1499564584,580163955,0,372,158,75,53,193,137,265,391
2017/07/09/09:43:04.597082,99661,1499564584,596846103,0,297,161,82,53,186,142,285,386
2017/07/09/09:43:04.618441,99662,1499564584,618201971,0,289,154,66,50,195,144,286,362
2017/07/09/09:43:04.640865,99663,1499564584,640398025,0,346,131,65,52,187,145,283,368
2017/07/09/09:43:04.656932,99664,1499564584,656697034,0,395,136,68,49,168,109,247,308
2017/07/09/09:43:04.677948,99665,1499564584,677656888,0,377,132,66,47,192,133,203,241
