time,.header.seq,.header.stamp.secs,.header.stamp.nsecs,.header.frame_id,.pose.position.x,.pose.position.y,.pose.position.z,.pose.orientation.x,.pose.orientation.y,.pose.orientation.z,.pose.orientation.w,.twist.linear.x,.twist.linear.y,.twist.linear.z,.twist.angular.x,.twist.angular.y,.twist.angular.z,.wrench.force.x,.wrench.force.y,.wrench.force.z,.wrench.torque.x,.wrench.torque.y,.wrench.torque.z
2017/07/09/09:38:54.199399,271886,1499564336,999433636,,0.796433632687,0.538351830927,0.242730202276,0.609330213246,0.78371507848,0.0715631482923,0.0968817980564,0.0994057690733,-0.336342822301,-0.00821800164228,-0.0541231028359,0.0330521561071,-0.417433765146,2.24572300911,1.50195252895,-0.998946368694,-0.461234748363,0.674025118351,-0.25139695406
2017/07/09/09:38:54.209159,271887,1499564337,9439289,,0.797499012976,0.534250323955,0.24236824911,0.611716806742,0.781927866729,0.0708310942809,0.0968210496954,0.0916993949364,-0.318969772607,-0.0242521804209,-0.0529295076647,0.0457007213646,-0.401638596429,2.69517421722,1.6959502697,-0.951977550983,-0.485146135092,0.878236293793,-0.248937010765
2017/07/09/09:38:54.219472,271888,1499564337,19433045,,0.797932908755,0.532261887344,0.242081102617,0.612320882108,0.781499369619,0.0703928854637,0.0967817870073,0.100149024039,-0.341272315953,-0.0320703467729,-0.0340607684482,0.0580837609416,-0.45870196559,2.89992117882,1.71245574951,-0.97051858902,-0.506349802017,0.945465743542,-0.237683951855
2017/07/09/09:38:54.229655,271889,1499564337,29429834,,0.799079068999,0.528189355992,0.24168311801,0.614452023562,0.779874260754,0.0696752280511,0.0969030997984,0.106835883795,-0.344998016523,-0.0150666558272,-0.0394644922042,0.022936515091,-0.4389709572,2.58669519424,1.6143206358,-0.937957644463,-0.486063450575,0.819026052952,-0.250089436769
2017/07/09/09:38:54.239326,271890,1499564337,39427624,,0.800165462362,0.525230527445,0.241584959449,0.615461833378,0.779066922179,0.0694287801922,0.0971653585519,0.079614239741,-0.305034841147,-0.017522926554,0.000274252210163,0.0570761098802,-0.408097649183,3.13299679756,1.73734843731,-0.913879334927,-0.485673427582,1.04952979088,-0.216815114021
2017/07/09/09:38:54.249058,271891,1499564337,49426034,,0.800751612251,0.522163746074,0.24175039815,0.617875324891,0.77720209054,0.0690336968292,0.0970635979841,0.0975224268944,-0.333865737906,-0.023150939294,-0.0103819430987,0.0497079298729,-0.443469152967,3.11078262329,1.62561380863,-1.02602612972,-0.457987070084,0.98080509901,-0.243430405855
2017/07/09/09:38:54.259311,271892,1499564337,59429955,,0.802429960869,0.518147383158,0.241644352005,0.619407070897,0.775944137432,0.0686931010341,0.0976055017776,0.0991284705593,-0.335201731408,-0.0165403288208,-0.0242463364021,0.0324934095825,-0.440683978854,3.37749814987,1.6345192194,-0.992623806,-0.463955163956,1.11362600327,-0.243708282709
2017/07/09/09:38:54.269315,271893,1499564337,69431706,,0.803111220829,0.515834254778,0.242206097595,0.620647938451,0.774921839311,0.0688677186652,0.0977216290291,0.0962724404103,-0.337772994618,-0.0200954394456,-0.0214380679999,0.0428751528975,-0.439187732485,3.08336782455,1.34809875488,-1.04161810875,-0.304956942797,1.02518379688,-0.171698331833
2017/07/09/09:38:54.279387,271894,1499564337,79436832,,0.803924357743,0.512035185017,0.241185315351,0.62271936499,0.773386458308,0.0677923262595,0.0974586018413,0.0987971383693,-0.332517696114,-0.011312289154,-0.00374673703472,0.0276925298793,-0.443885844131,2.80563592911,1.62605118752,-1.10093104839,-0.463814735413,0.869161009789,-0.256069511175
2017/07/09/09:38:54.289191,271895,1499564337,89426723,,0.804981504134,0.508095868875,0.241249840909,0.624969162373,0.771605090844,0.0674399570806,0.0974216713829,0.104279533507,-0.348905622944,-0.00405524620017,-0.00736867693137,0.0161510554297,-0.471964269902,2.50524663925,1.48407709599,-1.41556119919,-0.443958580494,0.707024157047,-0.234426826239
2017/07/09/09:38:54.299375,271896,1499564337,99436127,,0.806034661345,0.505427144024,0.241197231714,0.626130753619,0.770632010106,0.0674838053344,0.0976346270022,0.105005814191,-0.374666816678,-0.0210859243142,-0.0132835248262,0.0427296727849,-0.489673117739,3.16091942787,1.65686750412,-1.33512866497,-0.50529229641,0.961813032627,-0.27311205864
2017/07/09/09:38:54.309180,271897,1499564337,109431388,,0.806960547945,0.501581655213,0.240940951747,0.627977387141,0.769177208636,0.0667579237795,0.0977456012734,0.107780405124,-0.37116251755,-0.0133885518525,-0.0107218075433,0.0314776508353,-0.4964580431,2.59486675262,1.46326100826,-1.45369887352,-0.419514864683,0.734026312828,-0.231046557426
2017/07/09/09:38:54.319498,271898,1499564337,119437004,,0.807764185248,0.497836642611,0.240353925475,0.629972831467,0.767645179614,0.0662401504978,0.0973003200998,0.103295859834,-0.369503268842,-0.00447585858578,-0.0256383333906,0.0232386655557,-0.482480414919,2.28122758865,1.34744942188,-1.49649822712,-0.378310084343,0.608524858952,-0.252000153065
2017/07/09/09:38:54.329138,271899,1499564337,129436200,,0.808663569538,0.493946723416,0.240114816297,0.631995714543,0.766034388437,0.0655970414192,0.0973126954146,0.105842078381,-0.400125857174,-0.00745576032725,-0.0352992605236,0.0224896275519,-0.529459726683,2.7112903595,1.36626052856,-1.3562130928,-0.355718284845,0.809307336807,-0.22392386198
2017/07/09/09:38:54.339401,271900,1499564337,139461659,,0.810083892754,0.490905180498,0.24038785195,0.633509776402,0.76471647101,0.0660172114487,0.0975490131273,0.106966069124,-0.365661063081,-0.0178685408928,0.0105282910849,0.0274447659355,-0.483039124541,2.71543335915,1.19096708298,-1.40836405754,-0.291642606258,0.823558986187,-0.186220601201
2017/07/09/09:38:54.349868,271901,1499564337,149432486,,0.811430044513,0.487137147557,0.240572282645,0.635360818778,0.76313306366,0.0658012452958,0.0980548480585,0.10137960212,-0.346540684352,-0.00524728223522,0.0095036275859,0.0142803591836,-0.455143887834,3.08664679527,1.49773681164,-1.40928471088,-0.405364751816,0.946056246758,-0.255812048912
2017/07/09/09:38:54.359465,271902,1499564337,159445183,,0.81202382929,0.484575064093,0.240424360765,0.636911315883,0.76188845757,0.0656954007373,0.0977449141581,0.111106761622,-0.360029059566,0.00677382875273,0.00600003961523,-0.00634584763476,-0.483599484059,3.06982111931,1.33801913261,-1.27229642868,-0.35765209794,0.963874459267,-0.212197750807
2017/07/09/09:38:54.369191,271903,1499564337,169440240,,0.813591665382,0.480766853339,0.24114709601,0.638858213331,0.760138583071,0.0659453241042,0.09849229419,0.101601884049,-0.377214470263,0.00702708573299,-0.0200445615327,0.00676572470616,-0.495424932322,3.01055717468,1.59543883801,-1.37065601349,-0.496178001165,0.872065424919,-0.305780529976
2017/07/09/09:38:54.379863,271904,1499564337,179431514,,0.814162352516,0.47727637189,0.240318933212,0.640678816034,0.758728942637,0.064954209553,0.0981936706276,0.112006625082,-0.38011139202,0.00279509708195,-0.0256398304574,-0.013985184543,-0.488548318099,3.32444047928,1.56054520607,-1.18933999538,-0.464691191912,1.03065371513,-0.287096142769
2017/07/09/09:38:54.389336,271905,1499564337,189436861,,0.814872953307,0.473818275998,0.2402739333,0.642630049807,0.757122972826,0.0647770717823,0.0979558782081,0.108944602503,-0.364479894224,-0.000552971326613,0.00798243200974,-0.00475613312266,-0.489950074318,3.18646430969,1.48917341232,-1.29927718639,-0.440739572048,0.955119132996,-0.30923384428
2017/07/09/09:38:54.399459,271906,1499564337,199427774,,0.816467264299,0.469030240619,0.240260355663,0.644990282613,0.755079876439,0.0643718825143,0.0984793190137,0.113400114955,-0.371377873509,-0.000296658198763,0.024645635805,-0.0102996918243,-0.507979136728,3.32474136353,1.58629584312,-1.19084739685,-0.467925280333,1.03072738647,-0.28947198391
2017/07/09/09:38:54.409390,271907,1499564337,209430365,,0.817405964823,0.466024298003,0.240642119108,0.646214888857,0.753992139719,0.0644245827121,0.0987504116605,0.10779790487,-0.405506694998,-0.00178124833694,-0.0161836535235,0.00496762093511,-0.517896609004,2.86461210251,1.26155698299,-1.30972206593,-0.35684004426,0.845113277435,-0.238962009549
2017/07/09/09:38:54.419368,271908,1499564337,219436312,,0.818305881985,0.462732697108,0.24070235323,0.64805485818,0.752424715491,0.0644330665588,0.098642426173,0.10276990711,-0.379630282514,-0.00276610409989,0.0202308093582,0.00513817338245,-0.512963799896,2.80167627335,1.11038064957,-1.40594434738,-0.293358057737,0.814416408539,-0.238345995545
2017/07/09/09:38:54.429496,271909,1499564337,229436961,,0.819879667548,0.458289202823,0.241218093129,0.650151790525,0.75049443582,0.064493896352,0.099505218022,0.114758980873,-0.390903806229,0.0215263249181,0.0196833482608,-0.0442760353727,-0.532623818277,2.62813258171,0.842683970928,-1.41181445122,-0.162871390581,0.793762683868,-0.187013730407
2017/07/09/09:38:54.439367,271910,1499564337,239437748,,0.820673401152,0.454456066972,0.240929034476,0.652051340468,0.748897795502,0.0639332424034,0.0994669885012,0.106066034518,-0.407358761126,0.00413560637053,-0.01218636135,-0.00545712097437,-0.525603345882,2.52552628517,0.837590098381,-1.54830563068,-0.189442768693,0.704996466637,-0.229200541973
2017/07/09/09:38:54.449657,271911,1499564337,249432790,,0.821790256433,0.450721204756,0.241112305696,0.654074769163,0.747104067871,0.063873477159,0.0997090117826,0.105022211664,-0.394798109998,0.0109184965186,-0.00494631376961,-0.0168705849845,-0.522391499233,2.36954402924,0.901161432266,-1.54306340218,-0.208092287183,0.672498464584,-0.224896430969
2017/07/09/09:38:54.459289,271912,1499564337,259434449,,0.82244149774,0.447572916889,0.241001445422,0.655098601072,0.746226002656,0.0635100695299,0.0997950244361,0.105892556765,-0.400638109947,-0.000964255763567,-0.00557887817642,-0.0128087768495,-0.523618178931,2.31976556778,1.13148474693,-1.4363104105,-0.323374658823,0.68248462677,-0.257761418819
2017/07/09/09:38:54.469343,271913,1499564337,269428149,,0.823200941083,0.443314183814,0.240408623141,0.65756577246,0.74414519591,0.0628263022031,0.0995391282099,0.0914673577383,-0.39350777919,-0.00816077278752,0.0229473983181,0.019531909394,-0.52812136508,1.97149062157,1.00663089752,-1.45811772346,-0.286184489727,0.553377330303,-0.254903376102
2017/07/09/09:38:54.479308,271914,1499564337,279427293,,0.824360622919,0.43903438813,0.240310330926,0.659786041309,0.742150438204,0.0627428928298,0.0997919644356,0.113790070313,-0.433755167546,0.00783547682769,-0.00514695164667,-0.031240993631,-0.577335799702,1.88039255142,1.05390393734,-1.46760821342,-0.386711597443,0.48086220026,-0.311957478523
2017/07/09/09:38:54.489545,271915,1499564337,289430773,,0.825599504634,0.435043670499,0.24138147621,0.661651595345,0.740393536216,0.063051777047,0.100294821991,0.0914401071207,-0.415447303517,-0.00741479992779,0.0103312321114,0.0198074686001,-0.571491129576,2.16381430626,1.12560606003,-1.51966810226,-0.363903015852,0.602855503559,-0.320694833994
2017/07/09/09:38:54.499097,271916,1499564337,299432382,,0.826507530532,0.430951751818,0.240626974834,0.663679737686,0.738641139282,0.0625934413961,0.10010261854,0.0946073332123,-0.413278488861,0.000740235350785,0.0295437358753,0.00323747434983,-0.538403364504,2.04521632195,0.961844027042,-1.32543587685,-0.337502628565,0.59798002243,-0.291788011789
2017/07/09/09:38:54.509462,271917,1499564337,309436335,,0.827480806623,0.426999975332,0.2410699228,0.665653784739,0.736816573409,0.0624166906541,0.100551144896,0.0926156747562,-0.404429209366,-0.011652548281,0.0360195921071,0.00479020680367,-0.512723913813,2.18434286118,1.08944153786,-1.36132729053,-0.413420408964,0.631863355637,-0.333019584417
2017/07/09/09:38:54.519300,271918,1499564337,319437177,,0.828015888493,0.423077919403,0.240867203007,0.667827857649,0.734909444897,0.0623048084821,0.100160726782,0.0838981953127,-0.399722918064,0.00516791640679,0.0325715094937,-0.000839372599701,-0.526907182832,2.28977584839,0.974487423897,-1.19319868088,-0.344822525978,0.701161444187,-0.275822252035
2017/07/09/09:38:54.529229,271919,1499564337,329440472,,0.828387501499,0.418620758725,0.240075241669,0.669635759833,0.73338797336,0.0610630177097,0.100006687533,0.0872314624689,-0.454769130067,0.00888401062978,-0.0131985194861,0.00369128167021,-0.602198379424,1.99122130871,0.691401720047,-1.25445866585,-0.270213514566,0.569984376431,-0.270077347755
2017/07/09/09:38:54.539289,271920,1499564337,339436606,,0.829764081788,0.41367990259,0.240891073399,0.671640495081,0.731409241329,0.0609398706322,0.101123188409,0.0928909747919,-0.43260727085,0.00783872915859,0.0212449794538,-0.0150841040474,-0.572383461727,2.28591775894,0.905867815018,-1.20896649361,-0.358685284853,0.683067798615,-0.315142482519
2017/07/09/09:38:54.549222,271921,1499564337,349426930,,0.83031450385,0.410736109907,0.240553928707,0.67378540445,0.729528608441,0.061273993347,0.10023340738,0.0834005106226,-0.430121328356,-0.0112533002939,0.0176350078588,0.0184032118515,-0.576309033384,2.0310049057,0.883295297623,-1.1927677393,-0.345694363117,0.61193716526,-0.302358448505
2017/07/09/09:38:54.559437,271922,1499564337,359436739,,0.831788538309,0.40676793254,0.240649413291,0.675452790208,0.727884627822,0.0614383054712,0.100860455094,0.0813125347791,-0.419677393633,-0.00988754066013,-0.00120200270078,0.00820194079527,-0.530562537359,1.71354019642,0.907059907913,-1.27706456184,-0.40059107542,0.459174275398,-0.34505456686
2017/07/09/09:38:54.569459,271923,1499564337,369451319,,0.832216715102,0.402461939565,0.240562423003,0.677179270548,0.726306996849,0.0606453462138,0.101136164901,0.0879460489879,-0.42267101465,-0.0050156781988,0.00419140897118,-0.00572670934067,-0.559649567678,2.29110169411,0.879609942436,-1.17613661289,-0.358928322792,0.728291034698,-0.314563632011
2017/07/09/09:38:54.579379,271924,1499564337,379439954,,0.832643018264,0.398252452292,0.240339816319,0.679476059369,0.724241361944,0.0602307222168,0.100791837448,0.0791997699024,-0.403681498665,0.00543914365287,0.0260161869291,-0.0176963134992,-0.536063714033,2.01856470108,1.03032803535,-1.01657140255,-0.449216872454,0.645574867725,-0.391042530537
2017/07/09/09:38:54.589343,271925,1499564337,389433347,,0.833959827378,0.394278138181,0.241160786296,0.681301962017,0.722352212543,0.0606009424685,0.101796087144,0.075806918603,-0.438932741826,-0.00170661688269,-0.0200402090633,-0.00265779764898,-0.535944884144,2.43346190453,0.826451659203,-1.01472449303,-0.394873589277,0.829424023628,-0.36482667923
2017/07/09/09:38:54.599300,271926,1499564337,399464755,,0.834675529015,0.390482674832,0.241021512614,0.683155253054,0.720627645429,0.0604482709391,0.101689249231,0.0781747851019,-0.437571140863,0.00061897750962,-0.0264778805283,-0.0139958264828,-0.524764397721,2.47557663918,1.09538650513,-0.856018722057,-0.555078685284,0.867348253727,-0.454448729753
2017/07/09/09:38:54.609392,271927,1499564337,409429776,,0.835181513803,0.386214381975,0.240468189248,0.685152640041,0.718769025445,0.059815694306,0.101779323152,0.0679452976872,-0.397921860676,-0.00261056024857,0.0170784970584,-0.00236614594574,-0.533435298722,1.98105049133,0.949519097805,-0.75641065836,-0.419467568398,0.752215862274,-0.349784940481
2017/07/09/09:38:54.619310,271928,1499564337,419437011,,0.83621817793,0.381450902121,0.240414292699,0.686877518528,0.717074753207,0.0594780101926,0.102300729012,0.0684801622546,-0.415096718335,-0.00634109279287,-0.00231623222722,-0.00225999678208,-0.511817727947,1.75781106949,0.820374071598,-0.718613803387,-0.40899798274,0.675966560841,-0.384584188461
2017/07/09/09:38:54.629726,271929,1499564337,429432794,,0.836675998861,0.377730959635,0.240508455682,0.688807294086,0.715232733474,0.0593197071965,0.102312369336,0.0839723400644,-0.43811303411,0.00913448452044,0.0199726508122,-0.0359068447745,-0.568235508218,1.67728888988,0.897873044014,-0.758709549904,-0.453789502382,0.616720318794,-0.405777364969
2017/07/09/09:38:54.639391,271930,1499564337,439436460,,0.837436430029,0.372802597735,0.240463553629,0.69070772413,0.713383593868,0.058654922734,0.102792450434,0.0808904340476,-0.441383980005,0.0179421760662,0.00905969765414,-0.0450615248722,-0.563929606718,1.7315710783,0.91238707304,-0.772829055786,-0.467551440001,0.656922876835,-0.402689009905
2017/07/09/09:38:54.649480,271931,1499564337,449433200,,0.83808866518,0.369520892095,0.240993157288,0.692739536356,0.711390256692,0.0593107527388,0.10255765238,0.0657415904997,-0.436205497163,0.00853883391113,0.00246927902676,-0.0148122261413,-0.555532484381,1.84492135048,0.819255292416,-0.671362817287,-0.382011950016,0.747081637383,-0.390335798264
2017/07/09/09:38:54.659406,271932,1499564337,459437445,,0.838907428763,0.365426792676,0.240936443366,0.694240492396,0.709899976244,0.0591693730785,0.102816086951,0.0569081982974,-0.457176409143,-0.00515602873379,-0.00770685615177,0.0074257792336,-0.567540444389,1.71117150784,0.756525158882,-0.622942626476,-0.414301991463,0.703179657459,-0.422955334187
2017/07/09/09:38:54.669233,271933,1499564337,469432376,,0.839454684311,0.361245969862,0.240729802996,0.696259512409,0.707922443613,0.0587009293341,0.103066513013,0.0606657521956,-0.430458363366,0.0077303236381,-0.00417038103369,-0.0168421706906,-0.560714860927,1.51074063778,0.74173784256,-0.535909295082,-0.438281178474,0.649236619473,-0.423994600773
2017/07/09/09:38:54.679396,271934,1499564337,479438413,,0.839719179614,0.356659281346,0.240492133348,0.698535877594,0.70573541943,0.0580410800779,0.103035811733,0.0500357844913,-0.411421787507,-0.00817756919449,0.0169691741676,0.00822689469228,-0.544705494217,1.59795105457,0.896389782429,-0.602111637592,-0.437425673008,0.68821567297,-0.3921892941
2017/07/09/09:38:54.689311,271935,1499564337,489428629,,0.840346767295,0.352085635632,0.240247829242,0.700583533972,0.703720426605,0.0578357658517,0.103030564858,0.059637993597,-0.438265890142,-0.00765742548499,-0.00423255707276,-0.00481754970348,-0.565981846032,1.26769113541,0.600334346294,-0.633665502071,-0.352038621902,0.568805873394,-0.352949798107
2017/07/09/09:38:54.699195,271936,1499564337,499436173,,0.841104173791,0.348292995973,0.24099266453,0.70195838195,0.702221368159,0.0577527264298,0.103943266742,0.0540112525682,-0.417673182855,0.00298152959439,0.00347847047556,-0.0106421899529,-0.521972869183,1.2037088871,0.578787982464,-0.485203593969,-0.35900503397,0.551584303379,-0.356477081776
2017/07/09/09:38:54.709114,271937,1499564337,509431049,,0.841490543224,0.345101962732,0.240742366541,0.703456079578,0.700781456328,0.0579375033424,0.103431814635,0.0460376527249,-0.416861637516,-0.00955913967219,-2.93747195887e-05,0.0127409987037,-0.489811047729,0.69540309906,0.159024238586,-0.591489732265,-0.187098935246,0.365500509739,-0.281496852636
2017/07/09/09:38:54.719259,271938,1499564337,519437941,,0.841917582832,0.341053645204,0.241285430853,0.704765301104,0.699413167909,0.0576350368495,0.103948513421,0.0362121618952,-0.401433500791,-0.00188171979821,0.0208146462053,0.02105747851,-0.465096358554,1.15023243427,0.62325578928,-0.536103010178,-0.404426932335,0.52474462986,-0.346148312092
2017/07/09/09:38:54.729231,271939,1499564337,529470023,,0.842134097757,0.336472991964,0.240586309909,0.706182685944,0.698049302807,0.0566661494238,0.104029478676,0.0476295640634,-0.438025707044,0.00960578335485,-0.0289958282046,-0.0114283141236,-0.453860811864,0.753109574318,0.569834887981,-0.390782773495,-0.453262001276,0.409387528896,-0.364528894424
2017/07/09/09:38:54.739914,271940,1499564337,539436229,,0.842154161709,0.332951529132,0.240395363909,0.707594216491,0.696693968437,0.0562396564856,0.103754711558,0.0342819447983,-0.424089642589,-0.00343365641672,-0.0236851115456,0.0229851478063,-0.429875027839,0.853038132191,0.611345648766,-0.425602376461,-0.485919266939,0.40051010251,-0.38731366396
2017/07/09/09:38:54.749439,271941,1499564337,549432922,,0.842904095643,0.327612119351,0.240310017774,0.709597256318,0.694595657851,0.0557214972784,0.104420882309,0.0292077281008,-0.420285701414,-0.0100129125417,-0.0367007005326,0.0318912014368,-0.396346799148,0.729756832123,0.593306422234,-0.347648590803,-0.459576964378,0.357446342707,-0.368702530861
2017/07/09/09:38:54.759305,271942,1499564337,559467102,,0.843067458895,0.324678660197,0.239938884471,0.710238483841,0.694001973192,0.0555932529212,0.104076642463,0.0345789131098,-0.435998408206,-0.00769631977593,-0.0487366368527,0.0195419770465,-0.400232703552,0.494506061077,0.401979625225,-0.386692970991,-0.407984703779,0.272135436535,-0.330325067043
2017/07/09/09:38:54.769218,271943,1499564337,569429126,,0.843551767558,0.320392817586,0.240089936637,0.711844075212,0.692336490509,0.0554228175369,0.104290497124,0.0449727512351,-0.426035924161,0.00211682164292,-0.0065535825104,-0.0122815209175,-0.405187267734,0.193851917982,0.227110028267,-0.317386984825,-0.25986251235,0.195500925183,-0.238256782293
2017/07/09/09:38:54.779212,271944,1499564337,579434068,,0.84422121011,0.31634528653,0.241247679469,0.712752652712,0.691261258144,0.0554945775961,0.105175476703,0.032196854463,-0.412326365217,-0.0008063819675,-0.0132416179695,0.0181879116532,-0.364914565633,0.45323985815,0.23660312593,-0.398294895887,-0.326245903969,0.29247200489,-0.263697087765
2017/07/09/09:38:54.789414,271945,1499564337,589428763,,0.844365414976,0.312721571969,0.240732906576,0.713603538704,0.690449554598,0.0549436553268,0.105026648254,0.0164073857393,-0.415910531313,-0.0144051161762,-0.0336519792888,0.0505830322526,-0.365519883568,0.239950954914,0.318396806717,-0.339918494225,-0.316759198904,0.197577923536,-0.232979103923
2017/07/09/09:38:54.799406,271946,1499564337,599435973,,0.844120945456,0.309195886676,0.240370618313,0.714855939773,0.68925733065,0.0543487089042,0.10464958364,0.0241108949377,-0.414065860829,0.000589358107662,-0.0488454722624,0.0218898453067,-0.35376327281,0.474474489689,0.493918299675,-0.427140295506,-0.460896879435,0.231963545084,-0.276070266962
2017/07/09/09:38:54.809623,271947,1499564337,609429779,,0.844744119888,0.304830867816,0.240823895218,0.715824078614,0.68815242031,0.0542145284717,0.105370393379,0.020562948585,-0.400863368407,-0.00130167256059,-0.0256694646771,0.0176330352773,-0.341430740234,0.290334582329,0.247242897749,-0.379526764154,-0.367387145758,0.190822064877,-0.230317056179
2017/07/09/09:38:54.819277,271948,1499564337,619435139,,0.84460346302,0.300966366959,0.240441905012,0.71741122011,0.686580284915,0.053720278133,0.105084657982,0.0197233735883,-0.407641572695,-0.0137723355053,-0.0348590526062,0.0287045946944,-0.337062308655,0.303917080164,0.197079643607,-0.301772683859,-0.31047424674,0.237229034305,-0.196153581142
2017/07/09/09:38:54.829546,271949,1499564337,629432351,,0.844965713123,0.296855564279,0.239909930992,0.718818468103,0.685142568052,0.0534438663688,0.104992497372,0.0174134282027,-0.423935667557,0.00129515390886,-0.0327616072527,0.0146971280488,-0.371507955839,0.176889449358,0.134152665734,-0.208959460258,-0.369117856026,0.183947965503,-0.235282152891
2017/07/09/09:38:54.839370,271950,1499564337,639437359,,0.845229037971,0.291866545221,0.239926873426,0.719869590808,0.683993558976,0.0526323649393,0.105690196663,0.01743126356,-0.42849762785,-0.00820501961327,-0.0422527730047,0.0225784981273,-0.366288138531,0.0037010461092,0.000962868332863,-0.170485854149,-0.23403570056,0.147921606898,-0.181830853224
2017/07/09/09:38:54.849351,271951,1499564337,649432154,,0.845246906951,0.289188409168,0.240429936135,0.720946231995,0.682881976745,0.0529313699035,0.105389783607,0.00995195941088,-0.404716767267,-0.0124460087721,-0.036165329446,0.0369240193075,-0.321433924578,0.432105302811,0.0803241282701,-0.0896322727203,-0.291152238846,0.325826197863,-0.193725794554
2017/07/09/09:38:54.859324,271952,1499564337,659438036,,0.845420310507,0.285302291911,0.239771706409,0.722254679451,0.681505279145,0.0522902374659,0.105662025219,0.0169510970493,-0.394270486174,-0.0083274578351,-0.0312041211789,0.0138393803811,-0.321835993936,0.0594195052981,0.0377015247941,-0.146628439426,-0.260998100042,0.17948974669,-0.184234946966
2017/07/09/09:38:54.869484,271953,1499564337,669434476,,0.845486943993,0.281863238156,0.239703358956,0.722921284298,0.680843823466,0.0520170097207,0.105502300717,0.018807370145,-0.397861000944,-0.000431987220504,-0.0149093086463,-0.00186483566867,-0.368142086668,-0.166992932558,0.0626812577248,-0.0877810865641,-0.263871133327,0.10532681644,-0.157294511795
2017/07/09/09:38:54.879230,271954,1499564337,679428121,,0.845575059021,0.277340535791,0.240230507486,0.724613932542,0.6790055115,0.051776220003,0.105855501324,0.00822212834016,-0.388648595748,0.00532591285081,-0.0116519517359,0.011011140638,-0.374306159432,0.00968757644296,0.215286791325,-0.0404342077672,-0.374699383974,0.161547496915,-0.217124670744
2017/07/09/09:38:54.889301,271955,1499564337,689429697,,0.845506627818,0.274200352919,0.239680903673,0.725709620128,0.677912966828,0.0513462477448,0.105560975282,0.0104027728428,-0.421518898123,0.00872593959045,-0.0211435616825,-0.00664105549558,-0.446111218664,-0.32858017087,0.154926076531,-0.075373634696,-0.413430094719,0.0298557318747,-0.230973213911
2017/07/09/09:38:54.899369,271956,1499564337,699433657,,0.845688777674,0.268822204237,0.240003637754,0.727451329351,0.675977400096,0.0508632199049,0.106216998858,-0.00201687251029,-0.430511837865,-0.0096481730251,-0.0272494763563,0.0308696006308,-0.4392991951,-0.290042430162,0.225873470306,-0.0936440080404,-0.337157666683,0.0487684123218,-0.186420559883
2017/07/09/09:38:54.909133,271957,1499564337,709431603,,0.845897954274,0.265994244932,0.240296687175,0.728096082198,0.675237903481,0.0509542482583,0.106459069014,0.00226502717218,-0.429518508285,0.0065322559852,-0.0402503139974,0.00944908541721,-0.394448945293,-0.217999219894,0.101915709674,-0.144410759211,-0.300679951906,0.072590880096,-0.228587836027
2017/07/09/09:38:54.919272,271958,1499564337,719435843,,0.845722135904,0.261783654776,0.240008951908,0.729164701957,0.674142903561,0.050266800313,0.106411614897,0.010329861019,-0.401602124149,0.0102056928087,-0.0370969943547,-0.0124282177984,-0.331703457484,-0.119965411723,0.165084332228,0.152288809419,-0.302476465702,0.179793149233,-0.225833237171
2017/07/09/09:38:54.929534,271959,1499564337,729430197,,0.846190923962,0.258144363038,0.240347752493,0.730762756079,0.672302142161,0.0506390068117,0.1069173277,0.0080405316274,-0.390283119615,-0.00638672054634,-0.0269949090138,0.000938644076964,-0.334115117062,0.132981061935,0.260902613401,0.19750353694,-0.357216656208,0.310463756323,-0.274107515812
2017/07/09/09:38:54.939384,271960,1499564337,739436487,,0.846254872608,0.253708407737,0.240008105011,0.731990280859,0.670961109834,0.0498812442993,0.107299950072,0.0249124311047,-0.379663585731,0.0166421809978,-0.0294325090804,-0.0652272432172,-0.373446987022,0.322062581778,0.421951055527,0.386730968952,-0.460212886333,0.430435925722,-0.303669631481
2017/07/09/09:38:54.949277,271961,1499564337,749437893,,0.846327640704,0.250093510124,0.239857396911,0.733442594732,0.669349422497,0.0497200701452,0.107523139187,0.0213156935325,-0.372937767044,0.0042380546322,-0.0255922460305,-0.0559142582544,-0.377063127114,-0.821441650391,0.201256915927,0.184116125107,-0.351305902004,0.00102278217673,-0.231318503618
2017/07/09/09:38:54.959328,271962,1499564337,759437790,,0.846664524755,0.248059892573,0.240438602713,0.734126659352,0.66853888136,0.0504479601231,0.10755842811,0.00239614784582,-0.387128762667,-0.00771036204531,-0.00982289193973,-0.0136735664151,-0.441626388331,-0.865725517273,0.20930095017,0.191764473915,-0.348694801331,-0.0105669088662,-0.222061425447
2017/07/09/09:38:54.969416,271963,1499564337,769428239,,0.846496321678,0.243814813633,0.239892096191,0.735719090557,0.666822829752,0.0496325183645,0.107709547548,0.0103082164697,-0.374960587344,0.0132256899613,0.00445387155974,-0.0551896392758,-0.44496121498,-1.48829233646,0.14629483223,0.0345863588154,-0.330223977566,-0.251187950373,-0.179637730122
2017/07/09/09:38:54.979345,271964,1499564337,779439367,,0.847232817815,0.239203708365,0.240692872078,0.737432539251,0.664697408647,0.0500803614171,0.108915390981,0.015820247353,-0.370842973888,0.00637620130843,0.00142763804788,-0.0615218313291,-0.422473546843,-1.21527564526,0.109526604414,0.0189525187016,-0.249202623963,-0.187632128596,-0.171227216721
2017/07/09/09:38:54.989661,271965,1499564337,789437471,,0.846940297563,0.236688887585,0.240183159398,0.738167200101,0.663964542618,0.0498983754099,0.108491580195,0.0128806054005,-0.37641547189,1.75716406849e-05,0.00443239234392,-0.0495231318946,-0.416549783216,-1.49251675606,0.269142597914,0.00417954474688,-0.422506034374,-0.330617189407,-0.221219927073
2017/07/09/09:38:54.999268,271966,1499564337,799437290,,0.846874031791,0.232259017151,0.240497926659,0.740012303795,0.661830546617,0.0495519498992,0.109117927296,0.010816153775,-0.362419573217,-0.00165513878415,0.0093697475668,-0.0540396665021,-0.407288893364,-1.30656528473,0.309199333191,-0.0107642039657,-0.411294460297,-0.279686152935,-0.23259088397
2017/07/09/09:38:55.009488,271967,1499564337,809439238,,0.847537597103,0.23043344446,0.241007431547,0.740918154954,0.660708529256,0.0506886194801,0.109248299223,0.00986534817887,-0.368857384602,-0.00568463166769,0.0100290253324,-0.0513147816642,-0.414188514937,-2.31116986275,-2.41231369972,0.356990069151,0.214304864407,-0.662085533142,-0.0115070939064
2017/07/09/09:38:55.019364,271968,1499564337,819448892,,0.847583167279,0.226163256995,0.240194675827,0.742341332128,0.659130612813,0.0502870132165,0.1093041544,0.0210983275783,-0.350004678167,0.00655234078382,0.0267483849104,-0.0869325135423,-0.398697109417,-2.79663133621,-2.79396128654,-0.0523652806878,0.0742301493883,-0.877324044704,-0.0463649332523
2017/07/09/09:38:55.029298,271969,1499564337,829427922,,0.847546356967,0.223643264626,0.239791365633,0.743294146575,0.65807929893,0.0501415958048,0.109230345406,0.00723079221336,-0.349174678801,-0.019488454663,0.00884307967246,-0.044462307147,-0.380868115096,-3.24793410301,-1.47984695435,0.368164926767,0.117262072861,-1.03349304199,0.0520111322403
2017/07/09/09:38:55.039270,271970,1499564337,839433037,,0.847789575081,0.220166453604,0.240318782488,0.744860269273,0.656170598287,0.0505645644513,0.10984784943,0.0188876628295,-0.33909080623,-0.0112773678804,0.0155420458192,-0.077545018597,-0.374240042316,-3.97672510147,-1.72141194344,0.421969115734,0.353660494089,-1.27339291573,0.232052132487
2017/07/09/09:38:55.049457,271971,1499564337,849428837,,0.847876714433,0.217456224726,0.240311245548,0.745899915573,0.654997009586,0.0509409305611,0.109623241033,0.0225743780692,-0.309456157509,0.00908978429303,0.0557736533895,-0.106609518372,-0.38246409782,-5.34687376022,-1.78420472145,0.909396409988,0.490304380655,-1.87278664112,0.289920300245
2017/07/09/09:38:55.059326,271972,1499564337,859439675,,0.848585747853,0.214210305899,0.240436484661,0.746985794089,0.653549323916,0.0516029236021,0.110556062309,0.0126118923165,-0.326636634479,0.0100798057688,0.0241995177958,-0.0851133727363,-0.406646178728,-5.85063552856,-1.71475744247,0.282724142075,0.440951704979,-2.0761218071,0.258453816175
2017/07/09/09:38:55.069345,271973,1499564337,869430398,,0.84836900351,0.211445307626,0.24030586646,0.748206402993,0.652193702996,0.0517649219268,0.110231325627,0.0188932391682,-0.283031466412,0.00227201254138,0.0651138073639,-0.0949258154184,-0.36214729962,-5.39897203445,0.00581684708595,0.67870080471,-0.703937649727,-1.83750081062,-0.204981863499
2017/07/09/09:38:55.079216,271974,1499564337,879436152,,0.848488862068,0.209392669314,0.239918696663,0.749789993782,0.650407920385,0.0522279737034,0.109803192515,0.0100844982104,-0.270867841784,-0.0141174505753,0.0820640407038,-0.0655581136077,-0.36170318633,-4.65420532227,2.93652296066,0.920230090618,-1.99010872841,-1.52172982693,-0.654948472977
2017/07/09/09:38:55.089302,271975,1499564337,889430433,,0.848529113334,0.206479422065,0.239799005884,0.750988675811,0.648987837159,0.0524440124121,0.109910971176,0.0226345739127,-0.255684697717,-0.00316134688329,0.12052952424,-0.10067288625,-0.371584156112,-5.05575275421,3.42712020874,0.425943762064,-2.3887193203,-1.67099702358,-0.69183754921
2017/07/09/09:38:55.099685,271976,1499564337,899433592,,0.848545141565,0.202673418588,0.239740069949,0.752105293838,0.647621532846,0.0519479046764,0.1105684963,0.0164623082906,-0.324132817584,0.00129083131708,0.0483636623332,-0.095002661265,-0.438742979921,-6.05434179306,2.6187684536,0.630818843842,-2.06394815445,-2.01784539223,-0.590883374214
2017/07/09/09:38:55.109344,271977,1499564337,909426928,,0.849042914364,0.199329639233,0.240210308613,0.753697584884,0.645612241996,0.0525912317192,0.111170795943,0.00791595547174,-0.291478382898,0.00326433567465,0.0127708375111,-0.0745492310701,-0.359867696838,-6.87187767029,0.905646681786,0.925439655781,-0.966823101044,-2.29853868484,-0.18454605341
2017/07/09/09:38:55.119401,271978,1499564337,919433652,,0.849144330008,0.197159614832,0.240501080392,0.754092287882,0.645031500003,0.0525281019936,0.111892733732,0.00628265709928,-0.308028602078,-0.00301021610855,-0.0106516670565,-0.0716694693949,-0.364631092389,-7.00477313995,0.233087956905,0.865906774998,-0.491630136967,-2.37329792976,-0.0911308825016
2017/07/09/09:38:55.129093,271979,1499564337,929431027,,0.848959371578,0.193691864019,0.24000358049,0.75515939174,0.64374623977,0.0520187464098,0.112334864899,0.00481983010484,-0.326581053304,0.0201504154301,-0.0716771826769,-0.0929441458616,-0.359392588449,-7.17349910736,-0.588917255402,0.698187172413,-0.156057193875,-2.38228869438,0.035357862711
2017/07/09/09:38:55.139431,271980,1499564337,939436211,,0.848399918959,0.190994607785,0.239897033083,0.756469960441,0.642297549935,0.0516518126016,0.111978330728,-0.00980564992732,-0.300278918412,-0.00741428056399,-0.0358563009733,-0.0437474862861,-0.359426709671,-7.10752058029,-1.1339867115,0.587980985641,-0.0396035313606,-2.31027340889,0.0662157684565
2017/07/09/09:38:55.149316,271981,1499564337,949428110,,0.848514624616,0.189236276071,0.240003874955,0.75728808018,0.641298909662,0.052184497439,0.111925199621,-0.0122159475179,-0.271436618318,-0.0138966146376,0.0177806180613,-0.0211006107993,-0.340393305,-6.88999223709,-0.263038307428,0.790175437927,-0.366480380297,-2.32183170319,-0.0506312996149
2017/07/09/09:38:55.159297,271982,1499564337,959436873,,0.848786676957,0.186576203092,0.239768467781,0.758052685925,0.640302544252,0.0521297474695,0.11247784944,0.00187298813784,-0.289756752651,0.00360000406332,0.00627482913602,-0.066246410497,-0.364340573999,-7.74647855759,0.419599056244,0.533775866032,-0.55952501297,-2.67644095421,-0.0635181665421
2017/07/09/09:38:55.169308,271983,1499564337,969438389,,0.848774316971,0.184098570197,0.239655981145,0.759369378992,0.638717351371,0.0521163266606,0.112615184596,0.00669033094542,-0.277055076282,0.00817130315118,-0.00798684729585,-0.0745188820428,-0.340544640024,-8.47787666321,0.790975511074,0.584533452988,-0.63517343998,-2.9906835556,-0.0665825307369
2017/07/09/09:38:55.179454,271984,1499564337,979427379,,0.848976403231,0.181051472627,0.240602916783,0.7602257035,0.637494050173,0.052410667235,0.113628067361,-0.00756864981845,-0.288284392389,-0.0132389388922,-0.0230887664848,-0.032617528517,-0.338727607106,-8.672706604,0.966230869293,0.531706929207,-0.669700622559,-3.03369188309,-0.0513428747654
2017/07/09/09:38:55.190193,271985,1499564337,989430546,,0.848874208654,0.178246304375,0.239844107466,0.760872604445,0.636684451531,0.0518698145093,0.114084667358,0.00405737719838,-0.265526922869,-0.00310584559095,-0.0462127309737,-0.0657570414362,-0.297800067044,-9.97001838684,0.239931702614,0.798694193363,-0.382629215717,-3.40943908691,0.0658093541861
2017/07/09/09:38:55.199267,271986,1499564337,999430375,,0.849299539644,0.17645667054,0.239685152542,0.76193292793,0.635355914681,0.0523335419568,0.114202781933,0.0182486223763,-0.248349501674,0.00159969164379,-0.080115310949,-0.0952754983983,-0.245253247927,-9.38663864136,0.783662319183,0.629121661186,-0.540917575359,-3.18555164337,-0.0206484645605
2017/07/09/09:38:55.209476,271987,1499564338,9428046,,0.849203698745,0.173668590414,0.239759360787,0.76275568342,0.634277455991,0.0518849346201,0.114907918753,0.00829447030117,-0.270793583827,-0.0132046576567,-0.0930916942937,-0.0623910418891,-0.275695621394,-8.68678092957,0.442799627781,0.920471668243,-0.40380063653,-2.8562836647,0.0394231826067
2017/07/09/09:38:55.219460,271988,1499564338,19428895,,0.849374530756,0.170734701604,0.239695204857,0.763114732702,0.633677077025,0.0513291758273,0.116080069329,0.00723486646104,-0.283381554871,-0.0179920516127,-0.123843016337,-0.0493910785038,-0.279850490173,-8.39782714844,0.232477843761,0.386637032032,-0.360049456358,-2.86181235313,0.0152814090252
2017/07/09/09:38:55.229177,271989,1499564338,29430578,,0.849118882195,0.166529556967,0.239652016994,0.764289815328,0.632125338202,0.0504831475187,0.11717545308,0.00929225115266,-0.277395506541,-0.000697737564812,-0.150239464188,-0.0727998224462,-0.241927532733,-8.81444358826,-0.407801777124,0.347238093615,-0.356764316559,-3.0043387413,0.0758272856474
2017/07/09/09:38:55.239464,271990,1499564338,39432678,,0.849462238629,0.164730025426,0.239469333369,0.764642056911,0.631572061016,0.0503713258558,0.117906683778,0.00277192896873,-0.308478420438,-0.0125900481402,-0.169118629987,-0.0511925907315,-0.283357021605,-7.84019947052,0.771079063416,0.115392491221,-0.603565871716,-2.75465393066,-0.0459905266762
2017/07/09/09:38:55.249332,271991,1499564338,49433322,,0.849519016201,0.162626199446,0.239258310994,0.764976552759,0.631069533996,0.0497225537019,0.118700398674,0.00610385056922,-0.310476595159,-0.0188365530422,-0.191460582402,-0.0484216663471,-0.273974188234,-8.33731174469,1.3658696413,-0.451188027859,-0.705038905144,-2.99068546295,-0.010052755475
2017/07/09/09:38:55.259368,271992,1499564338,59433904,,0.850061766698,0.159632275804,0.239546288863,0.765625514323,0.630041160758,0.0498233774127,0.119930557539,0.00897143386933,-0.284585221553,-0.0299023734793,-0.193889961595,-0.0442425445317,-0.247369798322,-9.00926017761,0.888167262077,0.0283786058426,-0.472330033779,-3.21840143204,0.0495534092188
2017/07/09/09:38:55.269408,271993,1499564338,69429431,,0.849773992711,0.156924813834,0.238695201138,0.766140149135,0.629394797003,0.0487880547085,0.120462388765,0.00936748676758,-0.296895201523,-0.0217405513093,-0.187101117331,-0.0532511045129,-0.240083203466,-9.96601867676,0.973186373711,-0.340011924505,-0.24216940999,-3.51379489899,0.106634587049
2017/07/09/09:38:55.279333,271994,1499564338,79428398,,0.850170995373,0.154822460795,0.238636420775,0.767010623923,0.628200322871,0.0489667659616,0.121083908781,0.0127725037032,-0.28879131418,-0.0191101415614,-0.156762076793,-0.0658557676493,-0.238802356698,-10.0611371994,1.3389236927,-0.359292834997,-0.0641280934215,-3.57655596733,0.214142858982
2017/07/09/09:38:55.289044,271995,1499564338,89431100,,0.849956586584,0.152018185802,0.238680173062,0.767762609553,0.627220850228,0.0486666494055,0.121515997498,0.000110954888983,-0.262069445116,-0.0196448017059,-0.11605463907,-0.0373890298869,-0.233339268364,-10.3305358887,0.844053864479,-0.482174992561,-0.0852118879557,-3.68603873253,0.240153461695
2017/07/09/09:38:55.299351,271996,1499564338,99428586,,0.850080951167,0.148764971187,0.238121812069,0.768634102168,0.626051387578,0.0483212025169,0.122173395156,0.0117517333833,-0.273385338443,-0.0240413196458,-0.0817962068716,-0.0706622506905,-0.258488992391,-10.3124198914,0.498340964317,-0.287154495716,-0.118628203869,-3.63177609444,0.29526039958
2017/07/09/09:38:55.309507,271997,1499564338,109437042,,0.850062010449,0.147211372727,0.237491413526,0.768472967976,0.626236160827,0.0478861804448,0.122411119127,0.0222013662836,-0.253162932232,-0.0219119569499,-0.0918631841578,-0.0801260307468,-0.174705447872,-9.82716941833,1.07569479942,-0.103693179786,-0.161133930087,-3.40397262573,0.268492341042
2017/07/09/09:38:55.319147,271998,1499564338,119433246,,0.850298033845,0.142989474689,0.237566784831,0.769419823148,0.624856913642,0.047472511497,0.123666219613,0.011107547934,-0.226202122447,-0.0349954220543,-0.0998371603554,-0.030594133081,-0.115605325577,-10.5116529465,0.122125044465,-0.244100883603,-0.0601304024458,-3.76421046257,0.329631209373
2017/07/09/09:38:55.329213,271999,1499564338,129429247,,0.850085203513,0.142042862767,0.237088759629,0.769088311318,0.62531511383,0.047005536813,0.123590684594,-0.00959072760183,-0.289867790208,-0.037752342557,-0.123082042734,0.00883796708136,-0.189680345215,-11.6014728546,1.3613191843,-0.345946997404,-0.177539229393,-4.26255369186,0.369717121124
2017/07/09/09:38:55.339717,272000,1499564338,139436514,,0.84985947697,0.138643316499,0.236417743608,0.769843378383,0.624368937391,0.046235032905,0.123963399892,-0.00892190970488,-0.251253524903,-0.034549440448,-0.124774352923,0.0201383408045,-0.121525496147,-11.7498397827,0.464786887169,-0.833776772022,-0.0415508486331,-4.37891197205,0.441301584244
2017/07/09/09:38:55.349708,272001,1499564338,149430222,,0.85013848717,0.137137829715,0.236258531648,0.769885118776,0.624253546699,0.0462093037687,0.124294463133,-0.0123565521228,-0.269196809011,-0.0407267039176,-0.141515285517,0.0354291382399,-0.121335515985,-10.6474056244,1.09464228153,-0.483356356621,-0.140573889017,-4.02664899826,0.37239536643
2017/07/09/09:38:55.359282,272002,1499564338,159438093,,0.849458404416,0.134607378251,0.23539221373,0.769907028442,0.624316680812,0.0448793580739,0.124328970216,-0.00816871215156,-0.222640669581,-0.0451961177489,-0.11972598283,0.0415229112395,-0.0498779368888,-10.4815444946,0.502071678638,-0.834785223007,-0.123297825456,-3.896453619,0.331176042557
2017/07/09/09:38:55.369038,272003,1499564338,169429099,,0.849698155771,0.132925239517,0.235772775169,0.769551780116,0.624627662061,0.0447373796622,0.125015632502,-0.0139343658903,-0.279835756406,-0.0305557665717,-0.137947595111,0.0322565236967,-0.115953847176,-9.8067855835,1.57650184631,-0.318338662386,-0.450019836426,-3.66690087318,0.20815448463
2017/07/09/09:38:55.379489,272004,1499564338,179436883,,0.849228833585,0.129037169107,0.234515949638,0.770266870613,0.623791713372,0.0434743431205,0.125231097796,-0.0116404684776,-0.244154251073,-0.0344985178594,-0.135992198622,0.0513902377133,-0.019229111094,-10.2118291855,0.921216905117,-1.11483240128,-0.409859448671,-3.80616497993,0.218026414514
2017/07/09/09:38:55.389365,272005,1499564338,189442541,,0.849135625862,0.127537034057,0.234583062014,0.770102404273,0.62395007832,0.042950176899,0.125633868847,-0.0197739366138,-0.270281044016,-0.0548233278338,-0.144534769326,0.0808674715367,-0.0623835163058,-9.97060775757,0.939721167088,-0.706715703011,-0.404761880636,-3.72311592102,0.287329316139
2017/07/09/09:38:55.399383,272006,1499564338,199426671,,0.849240234263,0.123648382491,0.234373372696,0.77032893791,0.623558152926,0.0422642891419,0.126421071036,-0.028550109515,-0.275270396458,-0.0507650754648,-0.166876801851,0.0999903118496,-0.0462746497839,-10.3096189499,0.458411455154,-0.636766195297,-0.251129478216,-3.88983917236,0.410211145878
2017/07/09/09:38:55.409129,272007,1499564338,209427453,,0.848844393077,0.121772812732,0.233648575859,0.770081057999,0.623875772569,0.0411062773809,0.126745644788,-0.0237465999968,-0.269831729847,-0.0382892331072,-0.189987724305,0.0861588651165,-0.0171977912361,-10.8397626877,0.442288041115,-0.570716440678,-0.173311084509,-4.09802150726,0.481879711151
2017/07/09/09:38:55.419358,272008,1499564338,219435942,,0.848359880962,0.117628214393,0.233495273023,0.770568491859,0.623212018935,0.0398275529657,0.127454873714,-0.0358173056022,-0.32061495182,-0.0366282093593,-0.215179823559,0.0910255615583,-0.0858300174804,-11.0339841843,0.424971342087,-0.667942345142,-0.185024276376,-4.28409767151,0.500399291515
2017/07/09/09:38:55.429061,272009,1499564338,229429761,,0.848049102917,0.115053345281,0.232945683282,0.770693827326,0.623077265733,0.0389658216473,0.127622138329,-0.0333571886438,-0.308834479572,-0.0355887883388,-0.24156893455,0.103362157272,-0.0440798158623,-11.1098737717,0.702222943306,-0.913947105408,-0.290501147509,-4.38560247421,0.445162177086
2017/07/09/09:38:55.439271,272010,1499564338,239437020,,0.847483642297,0.112500705342,0.232669683047,0.770454799717,0.623339410666,0.0375470741148,0.128209195962,-0.0359432741276,-0.28165552401,-0.0446912312985,-0.212143458759,0.126224237088,-0.0285714696141,-10.950343132,0.837712287903,-1.26000416279,-0.279436975718,-4.42484092712,0.52826833725
2017/07/09/09:38:55.449416,272011,1499564338,249430135,,0.84729235514,0.111136707975,0.231922770875,0.770304851162,0.623617419632,0.0367961068477,0.127975766179,-0.0445659294982,-0.280317748488,-0.0547859127693,-0.177953787447,0.14820647269,-0.0461192963164,-10.2964954376,1.87492251396,-1.59331393242,-0.524757802486,-4.32572937012,0.438269615173
2017/07/09/09:38:55.459738,272012,1499564338,259433462,,0.846820307176,0.107885698958,0.231020214566,0.770303782788,0.623610046856,0.0354143793954,0.128407217147,-0.0370529103016,-0.280646826696,-0.0667140366115,-0.189595825193,0.135966426354,-0.033227319017,-9.75081539154,1.47091066837,-1.21285533905,-0.41031947732,-4.08443260193,0.483069121838
2017/07/09/09:38:55.469179,272013,1499564338,269434056,,0.846549953887,0.105460319731,0.229983930128,0.770310219827,0.623648567046,0.0344635606901,0.128440231374,-0.0247983288729,-0.282935931373,-0.0652881912801,-0.217983694274,0.113148292512,-0.0241113890244,-10.435333252,1.29883289337,-1.61900532246,-0.548560202122,-4.32204008102,0.482173502445
2017/07/09/09:38:55.479270,272014,1499564338,279430752,,0.846484624274,0.102149133394,0.229969732697,0.770742895964,0.62295016729,0.0335767527455,0.12946458616,-0.0172300110558,-0.298219384472,-0.0499495476717,-0.20514282046,0.0828945469295,-0.0523890349769,-10.3537883759,1.2256565094,-1.06617319584,-0.429221242666,-4.25344848633,0.557401478291
2017/07/09/09:38:55.490033,272015,1499564338,289454380,,0.846640467644,0.100503428112,0.229582222684,0.770387946775,0.62332530564,0.0328152124553,0.129965905699,-0.0133144553014,-0.276069451748,-0.0476242553647,-0.187778079601,0.0699465697465,-0.0829769998414,-10.871254921,1.7682813406,-1.07535099983,-0.525172948837,-4.43523931503,0.583182156086
2017/07/09/09:38:55.499546,272016,1499564338,299438434,,0.846451659536,0.0973373356803,0.229224586743,0.771177262021,0.622288559696,0.03218760001,0.130409115547,-0.00155501075482,-0.295603565953,-0.0244491315791,-0.19514712055,0.0150562311905,-0.164310502334,-10.1150350571,1.10645210743,-1.66145288944,-0.429320603609,-4.13276481628,0.531034290791
2017/07/09/09:38:55.509507,272017,1499564338,309431052,,0.846029752412,0.094075733068,0.228345102334,0.771672923905,0.621654132797,0.030822440549,0.130832010025,-0.0268635290037,-0.294875579239,-0.0627667688228,-0.174415079876,0.0950028778644,-0.183752079077,-9.42358875275,0.935068070889,-2.24216485023,-0.316591858864,-3.85738325119,0.556558728218
2017/07/09/09:38:55.519527,272018,1499564338,319435596,,0.846053304005,0.0919350255412,0.228077719246,0.77151027486,0.621811978929,0.0300957844462,0.131209764897,-0.0385208792595,-0.291271727841,-0.0731493923122,-0.191996741923,0.140032221178,-0.113634816861,-8.40318202972,1.23394870758,-1.69213020802,-0.36882725358,-3.44116711617,0.450907200575
2017/07/09/09:38:55.529035,272019,1499564338,329434810,,0.845936188379,0.0888572203707,0.227943632065,0.770713602462,0.622675496634,0.0289326211416,0.132055565223,-0.0274820927153,-0.257753156808,-0.0705469035908,-0.204079447082,0.148791483119,0.0448191128335,-8.63587379456,1.07027113438,-0.893323540688,-0.374803394079,-3.46536946297,0.464148640633
2017/07/09/09:38:55.539146,272020,1499564338,339440806,,0.845436994147,0.0863343063997,0.22708863973,0.771102166287,0.622264381956,0.0276941516641,0.131990613529,-0.0359435887236,-0.283420043874,-0.0516588053108,-0.214908194067,0.165630937793,0.0288889847476,-9.41068649292,0.983588814735,-0.903357386589,-0.31508436799,-3.82291674614,0.496020078659
2017/07/09/09:38:55.549194,272021,1499564338,349439722,,0.844462168769,0.0838093691443,0.225885741466,0.771447029367,0.622022894561,0.0262002907717,0.131417442853,-0.0424535865583,-0.289616482752,-0.0481618933082,-0.188508967881,0.147195075733,-0.0783834893472,-9.04333877563,1.29609382153,-0.702276706696,-0.455696284771,-3.54655718803,0.397684276104
2017/07/09/09:38:55.559352,272022,1499564338,359437383,,0.843994014135,0.0811066186113,0.224603629821,0.771918726721,0.621493979001,0.0247665485995,0.131428046756,-0.0361507781929,-0.252425985764,-0.0715962529201,-0.136548352067,0.152023382316,-0.103472429636,-8.68763160706,0.929074585438,-0.868602395058,-0.36711871624,-3.3040561676,0.398976922035
2017/07/09/09:38:55.569409,272023,1499564338,369433340,,0.844034762636,0.0787419665448,0.224417178811,0.772088008979,0.62122291524,0.0241268634853,0.131833570954,-0.0480352561087,-0.282873250331,-0.0812445875577,-0.157614167382,0.166816267416,-0.157168434363,-7.5635061264,1.20409309864,-0.726690888405,-0.462316274643,-2.90812349319,0.278959989548
2017/07/09/09:38:55.580054,272024,1499564338,379433497,,0.843572148742,0.0761384718658,0.223845233879,0.772590258007,0.620637549678,0.0230422169558,0.131842259534,-0.0476434312307,-0.27157653535,-0.0860734384186,-0.115683721477,0.163279086498,-0.185919618567,-7.4330368042,1.21519505978,-0.435749143362,-0.39556235075,-2.80902528763,0.323885798454
2017/07/09/09:38:55.589085,272025,1499564338,389440684,,0.843232169199,0.0732087474756,0.22386320531,0.773237780177,0.619784987304,0.0221298575506,0.132212609926,-0.0437594229725,-0.258215148363,-0.0692912951883,-0.113040033463,0.162006979914,-0.174308079211,-7.54017496109,1.02065968513,-1.00741875172,-0.390602082014,-2.88285756111,0.329459697008
2017/07/09/09:38:55.599263,272026,1499564338,399437360,,0.84304523892,0.0713190838397,0.222932287746,0.773730973815,0.619249471578,0.0214641514844,0.131946058337,-0.0491592704366,-0.259527625552,-0.0687337340883,-0.0952906198744,0.170831587735,-0.180055445136,-7.98172426224,1.02579391003,-0.862641096115,-0.31016933918,-3.09628939629,0.414314925671
2017/07/09/09:38:55.609552,272027,1499564338,409428617,,0.84202884175,0.0689149135543,0.221847115168,0.774382623328,0.618636130125,0.0201421472564,0.131206650347,-0.0470068325803,-0.238680574407,-0.0698793413962,-0.0655640731523,0.166742762797,-0.176646172046,-7.26694154739,1.2037011385,-1.55066382885,-0.436019837856,-2.82686829567,0.335898816586
2017/07/09/09:38:55.619304,272028,1499564338,419438302,,0.842177511838,0.0670893203427,0.221153402253,0.774508743023,0.618478992504,0.0196871875291,0.131272074179,-0.0477118395968,-0.229944200649,-0.0865572463595,-0.0311044048468,0.174925806142,-0.195791514419,-5.65378046036,1.28521573544,-1.16146969795,-0.447663784027,-2.28729367256,0.202701434493
2017/07/09/09:38:55.629416,272029,1499564338,429430919,,0.84174988669,0.0646899729303,0.220497599758,0.77506706354,0.617862284529,0.0186793464832,0.131027960327,-0.0393826644344,-0.251442547719,-0.0688618781289,-0.066324625776,0.133316566408,-0.208864805091,-5.82616615295,1.06061530113,-0.650008261204,-0.384212195873,-2.24386811256,0.209038868546
2017/07/09/09:38:55.639551,272030,1499564338,439434452,,0.841227887351,0.0633150601983,0.219225392555,0.775946340117,0.617012722355,0.0182971911281,0.129876058255,-0.0289542205313,-0.211595308437,-0.0661744283931,-0.0291502953828,0.124651105154,-0.143093892447,-5.65580749512,1.41795659065,-0.463430941105,-0.486315071583,-2.13206839561,0.119700133801
2017/07/09/09:38:55.649018,272031,1499564338,449429309,,0.840955503247,0.0602322317989,0.218704169784,0.776460013605,0.616357082383,0.017451434539,0.130035540149,-0.0251168405471,-0.215103652521,-0.0730172845547,-0.0379354138744,0.125972444444,-0.149552936679,-5.98364305496,1.08237218857,-0.58318156004,-0.325331687927,-2.2403960228,0.196042612195
2017/07/09/09:38:55.659474,272032,1499564338,459427442,,0.840783868904,0.0588620999911,0.21877650382,0.776671793748,0.616132994351,0.0171542950911,0.129872199596,-0.0304835426034,-0.223033090182,-0.0696685356981,-0.0357925704543,0.124143884968,-0.165528198056,-6.65359640121,1.03611326218,-0.1920709759,-0.308452606201,-2.49842071533,0.25836700201
2017/07/09/09:38:55.669054,272033,1499564338,469431033,,0.840420336668,0.0562832942658,0.217550799058,0.77738181758,0.615333567394,0.0164683169317,0.129502529209,-0.0311798307701,-0.255118713335,-0.070065981581,-0.026339629278,0.106782566483,-0.220865011798,-5.80964660645,1.09791076183,-0.78241443634,-0.39736366272,-2.18567633629,0.177579954267
2017/07/09/09:38:55.679400,272034,1499564338,479457302,,0.840659604125,0.0546816987199,0.216957611889,0.777760173366,0.61489809317,0.0162067368335,0.129332089691,-0.0248117269781,-0.220466983142,-0.0846893825167,-0.00555535796302,0.115339636862,-0.15512618557,-4.81431913376,1.2685123682,-1.09236288071,-0.386740595102,-1.89191913605,0.137631863356
2017/07/09/09:38:55.689095,272035,1499564338,489452064,,0.840430069371,0.0524029207635,0.216462799086,0.778151600231,0.614428736125,0.0158770491591,0.129249118341,-0.0120965745709,-0.194978295615,-0.0602484886959,0.0151347026125,0.0838246977332,-0.119036255294,-4.51138973236,1.12545394897,-1.21700382233,-0.341917097569,-1.81740772724,0.122723147273
2017/07/09/09:38:55.699389,272036,1499564338,499435991,,0.840143392403,0.0500318465916,0.216391641694,0.778719909759,0.613752110568,0.0153461451731,0.129105169321,-0.024456727363,-0.210658039306,-0.0663839585449,0.00675120642962,0.102941571249,-0.144772499145,-5.1873497963,0.770838260651,-0.497442007065,-0.29821485281,-2.09450173378,0.206100851297
2017/07/09/09:38:55.709650,272037,1499564338,509438046,,0.840086128744,0.0484394532942,0.215491627985,0.779104187099,0.613367549011,0.0152399034011,0.128626050271,-0.015209337188,-0.189391687797,-0.0582796486196,0.0369923443986,0.078962426253,-0.134942599725,-5.42098760605,0.616917967796,-0.771884322166,-0.29525116086,-2.25073409081,0.222856655717
2017/07/09/09:38:55.719279,272038,1499564338,519436673,,0.839947209547,0.0467267429232,0.214614658988,0.779514796178,0.61294334309,0.0148369221321,0.128206889218,-0.00446060218799,-0.168375948599,-0.0623050450207,0.0608683527643,0.0653545770311,-0.102132566784,-5.08499717712,0.886291086674,-1.01986479759,-0.31252259016,-2.1425909996,0.240986332297
2017/07/09/09:38:55.729134,272039,1499564338,529429791,,0.839679687129,0.0443849593412,0.21379972753,0.77989563106,0.612516956065,0.0142182890033,0.127998529067,-0.0126472591136,-0.195096959044,-0.0678854331403,0.011117281102,0.0885493159366,-0.115483689081,-4.50718784332,0.427120923996,-1.21244323254,-0.301606178284,-1.88721203804,0.144431784749
2017/07/09/09:38:55.739223,272040,1499564338,539428016,,0.839642749987,0.0430963237676,0.213493331394,0.780192534836,0.612227227221,0.0142161472506,0.127574809398,0.00362666101157,-0.199480436765,-0.0404083011532,0.00216917975839,0.0321109304013,-0.112013406843,-4.409055233,0.630463838577,-0.487587839365,-0.328031361103,-1.78922510147,0.122221559286
2017/07/09/09:38:55.749090,272041,1499564338,549428399,,0.839780636852,0.0410665916865,0.213070363619,0.78064383465,0.611691447488,0.0143099622495,0.127373472409,0.00979385423595,-0.194934270957,-0.0446016730199,0.037880610696,0.00958420363555,-0.127710268816,-4.17380952835,0.625679671764,-0.61809438467,-0.242896914482,-1.66804468632,0.125372946262
2017/07/09/09:38:55.759505,272042,1499564338,559429089,,0.839914008691,0.0387401013438,0.212529874942,0.780856140992,0.611402421911,0.0139844305492,0.127495887221,0.0044594711457,-0.184145852632,-0.0521404223171,0.0280136714736,0.0304528509498,-0.103352232642,-4.08771324158,0.230298280716,-0.453030496836,-0.252249479294,-1.60991322994,0.115333303809
2017/07/09/09:38:55.769335,272043,1499564338,569432357,,0.840224921202,0.0375396355422,0.212442387226,0.781108304028,0.61108220701,0.0141650062931,0.127466490698,0.00400948466915,-0.184612205418,-0.0419716303805,0.0146695988964,0.0354401286672,-0.096029794504,-4.11329221725,0.949835777283,-0.375221610069,-0.33086669445,-1.60296773911,0.116183742881
2017/07/09/09:38:55.779413,272044,1499564338,579427992,,0.840182374426,0.0354678091125,0.212374973976,0.781201055326,0.610946617615,0.0138209997961,0.127585741942,0.00573583383119,-0.200746098172,-0.0405655358102,0.00631224046959,0.0278739399888,-0.106570546011,-4.77137041092,0.524475336075,-0.548920989037,-0.357041418552,-1.81640064716,0.0740546882153
2017/07/09/09:38:55.789049,272045,1499564338,589428089,,0.839781734704,0.0339287004044,0.211077170917,0.781816080208,0.610390443532,0.0134127362316,0.12651964938,-0.00509113148941,-0.189385473594,-0.0378871140904,0.0105779919694,0.0561891462733,-0.106194773984,-4.13537311554,0.92167288065,-1.10217547417,-0.395972818136,-1.68402099609,0.0755125284195
2017/07/09/09:38:55.799103,272046,1499564338,599432012,,0.840063988024,0.0319364626163,0.211257285282,0.781910487021,0.610172095974,0.0133921909021,0.126990758738,-0.0143091745587,-0.178534963854,-0.0548338850454,0.0126656789077,0.093554681765,-0.0669303690434,-2.90183258057,0.431137174368,-0.951542079449,-0.264705866575,-1.34115242958,0.0118287801743
2017/07/09/09:38:55.809556,272047,1499564338,609431821,,0.839497760537,0.030501158834,0.210166770777,0.782200291359,0.610010199319,0.0127906204438,0.126042298271,-0.00656371919358,-0.192571561572,-0.0408950867605,-0.00796595438817,0.0641533851689,-0.0777658666326,-2.34925365448,1.08278822899,-0.725539386272,-0.404188603163,-1.11065340042,-0.03666241467
2017/07/09/09:38:55.819290,272048,1499564338,619436625,,0.840182999154,0.028083551395,0.21117609433,0.78253533993,0.60937489703,0.013106649247,0.126999576284,-0.00458506877261,-0.168183470232,-0.0484685625883,0.042996742775,0.0614616659843,-0.0659386427404,-0.841686964035,0.0993639230728,0.303332179785,-0.143019303679,-0.518289208412,-0.0643396750093
2017/07/09/09:38:55.829259,272049,1499564338,629439066,,0.840217105537,0.0276276842243,0.21032019817,0.782354985189,0.609788237763,0.0131373275989,0.12612054892,0.000935540741968,-0.204904990211,-0.0246082471511,0.01899264439,0.0181131504908,-0.102564124889,-0.964857935905,1.39876389503,-0.0284203067422,-0.36642575264,-0.597235918045,-0.125132232904
2017/07/09/09:38:55.839136,272050,1499564338,639432735,,0.839845961414,0.0261933410434,0.209396136666,0.782688293977,0.609503922118,0.0128127400388,0.12545850743,0.00242885500705,-0.179122157323,-0.0310601516628,0.0258480712451,0.0273596489459,-0.0794723244716,-1.35453081131,1.05513834953,-0.564478933811,-0.367206126451,-0.701557338238,-0.0795983970165
2017/07/09/09:38:55.849764,272051,1499564338,649436426,,0.840131425655,0.0232968929404,0.209936323625,0.782863237219,0.609129857671,0.0126813493721,0.126194895629,0.00977948187833,-0.182128986366,-0.0270764746382,0.0102369806336,0.00825285195889,-0.0646190484013,-1.55645215511,0.595872998238,-0.326908022165,-0.324155211449,-0.712675392628,-0.128553435206
2017/07/09/09:38:55.859598,272052,1499564338,659429657,,0.840384376123,0.0219211317452,0.20933860576,0.782893248188,0.609120860035,0.0127186718074,0.126048305025,0.00982411077787,-0.17664018469,-0.0324056108137,-0.000966161516229,0.0292708602203,-0.0165360452425,-1.47106277943,0.588808298111,-0.156274914742,-0.226928621531,-0.649787068367,-0.0766709670424
2017/07/09/09:38:55.869328,272053,1499564338,669436907,,0.840243632941,0.0198746616863,0.209199903648,0.782897794545,0.609136047473,0.0124738805237,0.125971112844,-0.000621359964035,-0.163862816659,-0.0398482853548,0.00702486626405,0.059204053117,-0.00834818921309,-1.67034053802,0.378897428513,-0.152462542057,-0.228475123644,-0.630145967007,-0.114562667906
2017/07/09/09:38:55.879354,272054,1499564338,679437030,,0.839407091678,0.0176203223226,0.208341760072,0.783368772737,0.60870450917,0.0114653220991,0.125222732781,-0.0118387396145,-0.182755820451,-0.0260088154087,-0.0136340200178,0.0683097259584,-0.00969736886954,-2.06216526031,0.0593074262142,-0.891579985619,-0.224196404219,-0.808056533337,-0.105051204562
2017/07/09/09:38:55.889049,272055,1499564338,689429836,,0.839853426582,0.0163623030609,0.208603182419,0.783146855918,0.608958733242,0.0117534879317,0.12534799079,-0.0161897669866,-0.193507159573,-0.0312685512837,-0.0118415355526,0.0819324279681,-0.0398082379179,-2.14844727516,0.294393271208,-0.369823038578,-0.216165840626,-0.924691438675,-0.0694458037615
2017/07/09/09:38:55.899237,272056,1499564338,699437660,,0.839771277639,0.0151391718646,0.207726396427,0.783168334235,0.609047618803,0.0115604225535,0.124798697556,-0.0212847845833,-0.177926697043,-0.040286660791,0.00952422911019,0.0983003553278,-0.0182772536424,-0.611055076122,0.493267953396,-0.602076768875,-0.251273959875,-0.357731729746,-0.186726823449
2017/07/09/09:38:55.909718,272057,1499564338,709429084,,0.839383649082,0.0147039595739,0.207360863059,0.782768937434,0.609742591306,0.010998561071,0.123958842323,-0.0288498518314,-0.182053343696,-0.0478731213138,0.0132518044926,0.114944756439,-0.0172614601873,-0.3483543396,1.55649614334,-0.245163023472,-0.484410226345,-0.293279796839,-0.247314736247
2017/07/09/09:38:55.919503,272058,1499564338,719436129,,0.839264280763,0.0111941453692,0.207224087241,0.783238694916,0.609030614807,0.010552989915,0.124529078606,-0.0184875000528,-0.175075001237,-0.0415118248763,0.0067562684276,0.0959552497972,0.00898171215077,-0.262319177389,0.243141114712,-0.161152407527,-0.24436172843,-0.230656862259,-0.209176167846
2017/07/09/09:38:55.929331,272059,1499564338,729429678,,0.838940317691,0.010349807417,0.206592942316,0.783025160459,0.609474173472,0.0101534395449,0.12373252452,-0.0218733527337,-0.185583622156,-0.0417565496641,-0.00380679009962,0.0966305648496,0.0155488730209,-0.550334095955,1.11889302731,-0.389126479626,-0.421561539173,-0.300893992186,-0.221614256501
2017/07/09/09:38:55.939202,272060,1499564338,739428197,,0.839335810997,0.00837290445246,0.206585794591,0.782759201325,0.609772687139,0.0105076895507,0.123914854721,-0.0142134558904,-0.196706489082,-0.0270625662056,-0.0189619693489,0.0686819449212,0.0125427568681,-0.387690663338,0.711091518402,0.262767642736,-0.193868547678,-0.259975224733,-0.188325852156
2017/07/09/09:38:55.949083,272061,1499564338,749435175,,0.838096447252,0.00585155845056,0.205308237622,0.783065811233,0.609539413668,0.00886567315065,0.123251930221,-0.018860750572,-0.188718054287,-0.0408599940003,0.00571826561609,0.0834968846267,0.0445830366762,-0.289490461349,0.389195948839,-0.487350165844,-0.119982272387,-0.131877750158,-0.188315063715
2017/07/09/09:38:55.959447,272062,1499564338,759435997,,0.838616404621,0.00460049169749,0.205529303225,0.782494488362,0.610249463111,0.00934579233537,0.12333136106,-0.0209752093564,-0.189143889863,-0.0517838250194,-0.00642931414372,0.0934369047747,0.0477472038281,0.94446015358,0.259549438953,0.0152634382248,-0.11788661778,0.329640358686,-0.312042027712
2017/07/09/09:38:55.969088,272063,1499564338,769441439,,0.838780123617,0.00417635295021,0.204796260117,0.781778169282,0.611291729801,0.0092323400295,0.122719513563,-0.0128025466217,-0.156934276386,-0.0494529143441,0.0218125687438,0.0993108816978,0.107509425395,0.869830965996,0.840082764626,0.0471005067229,-0.271485447884,0.27375254035,-0.3380856812
2017/07/09/09:38:55.979157,272064,1499564338,779436912,,0.838260585684,0.00165243263062,0.204590122141,0.781836558382,0.611244951881,0.00858633376198,0.122627401709,-0.0127222349049,-0.17122629299,-0.0335135607701,-0.0171674904793,0.0941502343025,0.120894047406,0.246013879776,0.488496005535,0.321626633406,-0.228624045849,0.0891328454018,-0.266160428524
2017/07/09/09:38:55.989474,272065,1499564338,789429603,,0.837850154032,-0.00064692459225,0.203786248602,0.781575900724,0.611632365426,0.00795261827062,0.122399823669,-0.0135897699463,-0.183209242195,-0.0402719716578,-0.0234230257939,0.0907290037333,0.116377147632,-0.0672289058566,-0.24561548233,-0.0809550955892,-0.0462120957673,-0.0739235132933,-0.183238461614
2017/07/09/09:38:55.999196,272066,1499564338,799429167,,0.83768502751,-0.00260053610989,0.203302103081,0.781423872792,0.611876156428,0.00775360965415,0.122164568362,-0.024073286755,-0.184192586129,-0.0544670356341,-0.0118737184221,0.116405338563,0.120218111538,0.305648118258,-0.513890624046,0.369120597839,0.0468221604824,0.0615359693766,-0.169579029083
2017/07/09/09:38:56.009549,272067,1499564338,809457473,,0.837710907893,-0.00401689414737,0.202794216144,0.780705223984,0.612851097405,0.00749836811375,0.121887899846,-0.0186080656724,-0.178663589311,-0.054505476892,0.00114274597163,0.0888733889153,0.131595855214,0.677357554436,-0.00729560852051,0.67121309042,-0.048750448972,0.222939550877,-0.239019244909
2017/07/09/09:38:56.019522,272068,1499564338,819442446,,0.837499260651,-0.00535759987168,0.201738924117,0.78012994265,0.613718484996,0.00731585134253,0.121216220339,-0.0154060296924,-0.183315385416,-0.0506698039535,-0.0110301467783,0.0856015425338,0.160535574277,0.524361908436,0.255440950394,0.358202457428,-0.135243937373,0.234317421913,-0.274495184422
2017/07/09/09:38:56.030346,272069,1499564338,829427433,,0.83765539824,-0.00677345690109,0.202188806842,0.779660711574,0.614254984234,0.0072786430248,0.121519589072,-0.0139104487279,-0.177339774752,-0.0461531143347,-0.0187913137491,0.0789830398298,0.169158354326,1.05022799969,0.612794995308,0.657219052315,-0.25346571207,0.488485813141,-0.324606060982
2017/07/09/09:38:56.039231,272070,1499564338,839436094,,0.837592079309,-0.00786033068422,0.201290671055,0.778962760118,0.615251537007,0.0073340925703,0.120949475596,-0.00334669709391,-0.177084533536,-0.0305430945815,-0.0217961845214,0.0439248017575,0.171558122237,0.593144595623,0.6705981493,0.258246958256,-0.275541692972,0.314161598682,-0.309603631496
2017/07/09/09:38:56.049291,272071,1499564338,849430447,,0.837351816032,-0.00982101886807,0.201380558203,0.778377617319,0.61596289989,0.00697991692186,0.121116768353,0.000756721856438,-0.166997871857,-0.0290907788912,-0.0164890319978,0.0331462965808,0.197025445711,-0.021111510694,0.47936719656,0.480791002512,-0.243512064219,0.0765284821391,-0.217839300632
2017/07/09/09:38:56.059563,272072,1499564338,859437473,,0.836907755038,-0.0123996803538,0.200389182335,0.778066322027,0.616370468222,0.00624151986179,0.121083805113,-0.0163156434481,-0.164724751352,-0.0538986818558,-0.023689733457,0.0892122036019,0.209721512936,1.13895773888,-0.0671835541725,0.179598271847,-0.111545063555,0.533620715141,-0.295290827751
2017/07/09/09:38:56.069491,272073,1499564338,869436293,,0.837380417656,-0.0132279602954,0.200376723374,0.777286394414,0.617360159981,0.00687963445454,0.121016381358,-0.0186661329374,-0.177806052421,-0.0532438144795,-0.0474325730115,0.0858481710011,0.218119812814,1.26714551449,-0.245893701911,0.515653550625,-0.0274205803871,0.485938608646,-0.255165755749
2017/07/09/09:38:56.079554,272074,1499564338,879432440,,0.837286624915,-0.0147761863055,0.199828189457,0.776366517684,0.618525770023,0.00657713829907,0.120986128498,-0.00456010322751,-0.157937636163,-0.0358246249034,-0.00972096710502,0.0329039802786,0.217782606382,1.50554037094,0.620585203171,0.13866469264,-0.258867144585,0.592428803444,-0.350467026234
2017/07/09/09:38:56.089274,272075,1499564338,889435852,,0.837054025474,-0.0163394285578,0.199277067787,0.775971092374,0.619152376582,0.00695416761124,0.120294795918,-0.00487480676076,-0.144248837458,-0.0578171544558,0.0231556250542,0.0465579681247,0.247252895997,0.514441370964,-0.0871000736952,0.224588364363,-0.179714590311,0.206691458821,-0.26680496335
2017/07/09/09:38:56.099198,272076,1499564338,899433964,,0.837314334046,-0.0170769259447,0.199064650266,0.775340599767,0.619928167247,0.00717213193403,0.120351910368,0.0072349689306,-0.136853337655,-0.050199342728,0.0572492297273,0.00962326942179,0.244511951827,0.581739604473,0.361807584763,0.395060896873,-0.200936719775,0.40109834075,-0.25057297945
2017/07/09/09:38:56.109418,272077,1499564338,909436648,,0.837242087786,-0.0186870101736,0.198333398612,0.774402274002,0.62117623308,0.00758543426296,0.119931925126,9.85128108242e-05,-0.121208362068,-0.0626018297859,0.0995503025369,0.0195157473238,0.23531385668,0.346610486507,-0.433382093906,0.796798288822,-0.0315899327397,0.347681969404,-0.247235178947
2017/07/09/09:38:56.119434,272078,1499564338,919437181,,0.837279764043,-0.0192991569334,0.197459029669,0.773985365896,0.621863889335,0.0083782368544,0.119003200243,0.0187920000016,-0.09841017147,-0.0434319282897,0.0941903116649,-0.0268448303248,0.270863584506,0.306814819574,0.798427522182,0.591636359692,-0.327520012856,0.326594233513,-0.25653475523
2017/07/09/09:38:56.129399,272079,1499564338,929434956,,0.837601210675,-0.0197412317991,0.197483211176,0.773084169202,0.623039883659,0.00903477208904,0.118661466337,0.00441069474759,-0.0928539846878,-0.0617688813699,0.142370041804,0.00644411547104,0.249357465173,1.34142768383,0.863929212093,1.12918245792,-0.237922206521,0.752792239189,-0.31706982851
2017/07/09/09:38:56.139021,272080,1499564338,939434175,,0.837298098785,-0.0208685625763,0.196570756807,0.773116581591,0.623181209175,0.00960371453699,0.117659255768,-0.0046869276055,-0.0843732659203,-0.0665995226759,0.194907160511,0.0122567530444,0.206317708906,0.107063144445,0.535015821457,1.01199138165,-0.214686483145,0.290673673153,-0.212804704905
2017/07/09/09:38:56.149043,272081,1499564338,949431603,,0.837187053922,-0.021246316445,0.195547251926,0.772993232871,0.623508030611,0.0103624449079,0.11666969373,0.00216667933929,-0.0630856529546,-0.0602951142365,0.207543278881,-0.0105565651416,0.16122139493,0.407529056072,0.623383641243,0.406317353249,-0.374370038509,0.451001286507,-0.268026798964
2017/07/09/09:38:56.159571,272082,1499564338,959453903,,0.836704431178,-0.0230433491774,0.194892962565,0.77339434851,0.623045015304,0.0100414564666,0.116512916665,-0.013786413238,-0.070942574407,-0.073910107629,0.211184626582,0.0100022746599,0.0529409394933,0.62112480402,-0.0345175415277,0.745867729187,-0.381002247334,0.562954485416,-0.277903735638
2017/07/09/09:38:56.169095,272083,1499564338,969435211,,0.836966570464,-0.023477962606,0.194985164607,0.773541471872,0.622925194775,0.0112199864639,0.116068535412,-0.0145148186141,-0.103682974604,-0.0613792566136,0.157600989839,-0.0162300804131,-0.0537137945965,0.754127681255,0.17572170496,1.00340616703,-0.53811955452,0.706251561642,-0.342358142138
2017/07/09/09:38:56.179433,272084,1499564338,979438376,,0.837111142534,-0.024133949493,0.194127014248,0.773483505707,0.623052427915,0.0116091123972,0.11573317147,-0.00676342959228,-0.0956700733603,-0.047674687457,0.117538479155,-0.0260324455009,-0.0625338651193,1.28392708302,0.392860800028,0.29848575592,-0.64241361618,0.892527759075,-0.422170937061
2017/07/09/09:38:56.188995,272085,1499564338,989436766,,0.836792033672,-0.0251644487788,0.193725311915,0.773091700227,0.62362533913,0.0116864066639,0.115256615142,-0.0136102069115,-0.0825763959623,-0.0570733856777,0.115190662896,0.0073168387035,0.00375501812374,1.01535773277,0.403215229511,0.687712550163,-0.693323373795,0.849894404411,-0.370883226395
2017/07/09/09:38:56.199076,272086,1499564338,999428870,,0.836616731754,-0.0258654588212,0.193095619376,0.772137186328,0.624864145386,0.0116045837909,0.114953464218,-0.0118345207208,-0.0957073228136,-0.0473318528579,0.0357387688071,0.0248620079269,0.155595818228,0.515644907951,-0.134237155318,0.54064065218,-0.463495522738,0.672563910484,-0.293547928333
2017/07/09/09:38:56.210180,272087,1499564339,9434885,,0.836575763709,-0.0260201264693,0.193021958349,0.771749188184,0.625432365411,0.0119953943696,0.114427520064,-0.0311393826569,-0.104991134723,-0.0626556218404,0.0261640718698,0.0795593294546,0.234146147547,0.706168293953,0.744833409786,0.495925217867,-0.507765352726,0.599706888199,-0.304579794407
2017/07/09/09:38:56.219382,272088,1499564339,19429158,,0.835962089873,-0.0272996322786,0.191781025448,0.771152056106,0.626224487684,0.0111198928473,0.114209217543,-0.0180669923855,-0.0762462575144,-0.058238676566,0.0214838496348,0.0735899881839,0.281240581855,-0.186063885689,0.752673983574,0.243513733149,-0.551334142685,0.311352223158,-0.227475911379
2017/07/09/09:38:56.229470,272089,1499564339,29430060,,0.8353628808,-0.0289469440033,0.191025122108,0.770891901715,0.626642050302,0.0110443812029,0.113681301486,-0.0120773477816,-0.0776631375584,-0.0468305960075,0.0309277800363,0.0411824807078,0.26075092991,-1.3251619339,-0.154967650771,-0.0105425864458,-0.460280686617,-0.0612877011299,-0.1640997082
2017/07/09/09:38:56.239980,272090,1499564339,39437196,,0.835845466583,-0.0289810509601,0.191036771438,0.7696399081,0.628153163712,0.0114497764635,0.113784521784,-0.0255799652636,-0.0827671366563,-0.0631130004124,0.0281489476459,0.0788658100311,0.239788502689,-1.35532796383,0.279588252306,0.0978848412633,-0.593279123306,-0.0734759196639,-0.126776784658
2017/07/09/09:38:56.249253,272091,1499564339,49430855,,0.836187881622,-0.0297346085483,0.191044038308,0.768946954207,0.628955218056,0.0119881690022,0.113983328163,-0.0137329243489,-0.067105507996,-0.0529629940318,0.0515287739849,0.0472242638616,0.242243570628,-0.564102590084,0.767403304577,0.299729466438,-0.667284786701,0.0638044402003,-0.153068259358
2017/07/09/09:38:56.259715,272092,1499564339,59440103,,0.83596365147,-0.0294744810717,0.190513270822,0.768537269187,0.62960828761,0.0123430171141,0.113099601997,-0.00277766707204,-0.0483480476021,-0.043345504692,0.0700496719302,0.0162886863704,0.217465436755,-0.570687115192,0.393094450235,-0.0317194722593,-0.534885644913,0.052467867732,-0.0964695364237
2017/07/09/09:38:56.269382,272093,1499564339,69428360,,0.835204054966,-0.0308158831174,0.189513481588,0.768535127567,0.62970784685,0.0118956493268,0.112606744196,-0.00511295855137,-0.0390446101907,-0.0603415413098,0.0733789954502,0.0357019304777,0.168048189922,-1.411444664,-0.418675452471,-0.319702625275,-0.447688758373,-0.306837111712,0.0187444742769
2017/07/09/09:38:56.279094,272094,1499564339,79431376,,0.834907805765,-0.0310632164402,0.188864450075,0.768119835846,0.630317026445,0.0117308200942,0.112047988882,-0.0226008727045,-0.0339062241108,-0.0689208397503,0.0960212306297,0.0670880095438,0.12683883653,-1.33825302124,0.313780039549,-0.336183011532,-0.444131702185,-0.293131649494,0.0324687473476
2017/07/09/09:38:56.289065,272095,1499564339,89430829,,0.835146723987,-0.031462346988,0.188555400432,0.767822514448,0.630693706248,0.012181761188,0.111918005249,-0.0242975001669,-0.0491048996993,-0.0506602644955,0.0579445667907,0.0503943744064,0.0707231279026,-1.93367004395,0.119752176106,-0.483097702265,-0.551966428757,-0.535468220711,0.0276207029819
2017/07/09/09:38:56.299346,272096,1499564339,99433143,,0.834403561511,-0.0322073580169,0.187739620031,0.768341654322,0.630196097716,0.0121006942574,0.111164535064,-0.0224082527552,-0.0322694187967,-0.0379386939692,0.0841804443366,0.0367494718258,0.0363833851913,-2.41449570656,0.0954845994711,-0.0784260630608,-0.43373042345,-0.676357984543,0.0592606663704
2017/07/09/09:38:56.309518,272097,1499564339,109431363,,0.834530675246,-0.0322196698718,0.187261342513,0.768254077818,0.630349629022,0.0126328773173,0.110839647776,-0.0149253127555,-0.0657055161388,-0.0319138436366,0.0805710931417,-0.0220961405799,-0.0673842525993,-1.65147435665,0.628151893616,-0.201294854283,-0.528220951557,-0.402538746595,0.00830279197544
2017/07/09/09:38:56.319204,272098,1499564339,119456978,,0.834265871251,-0.0328208182847,0.187028710807,0.768620142629,0.629908226996,0.0123909663587,0.110838467423,-0.0151194325697,-0.016861150218,-0.0565792368834,0.0968378792591,0.0186043604612,-0.0420390762224,-0.253331065178,0.388524144888,0.233917981386,-0.444300353527,0.257815599442,-0.116735570133
2017/07/09/09:38:56.329309,272099,1499564339,129434746,,0.834612105627,-0.0322487507909,0.186712848664,0.768695121066,0.629894872046,0.0133801450229,0.110277979393,-0.00589174152847,-0.027682411117,-0.0516693127876,0.0847678617749,-0.00628855016888,-0.0423966032905,0.604802072048,0.569979906082,0.507213413715,-0.344616830349,0.567955553532,-0.157695427537
2017/07/09/09:38:56.339168,272100,1499564339,139429383,,0.834471618988,-0.032937102563,0.18612070774,0.769007727695,0.629532450158,0.0132995421632,0.110177725162,-0.0127130092559,-0.039619624654,-0.0553193327852,0.0934525104031,-0.00161759435762,-0.0584512164014,-0.324642390013,0.240415260196,0.503166556358,-0.262233883142,0.304360449314,-0.0741878598928
2017/07/09/09:38:56.349730,272101,1499564339,149430324,,0.834522108692,-0.0322783287012,0.185492950639,0.768978124319,0.6297089664,0.0141732015816,0.10926290455,-0.0178504580009,-0.0309489490346,-0.0489177977039,0.0723502892446,0.0187984153309,-0.0534320831859,-1.53048837185,0.782503247261,0.182616636157,-0.490816742182,-0.203402638435,-0.0767493695021
2017/07/09/09:38:56.359526,272102,1499564339,159441731,,0.834181174317,-0.0337058533469,0.185656665192,0.769324480993,0.629209338048,0.0136636754065,0.109766824824,0.00269771470079,-0.00463857978681,-0.0376285805728,0.0796813740585,-0.0101410366769,-0.0129073266934,-2.49975514412,0.444914638996,0.361695021391,-0.331266462803,-0.536416530609,0.056077376008
2017/07/09/09:38:56.369357,272103,1499564339,169431278,,0.834641165105,-0.032483589167,0.185255014522,0.769259151121,0.629397267009,0.014833665084,0.108992665252,-2.48823097013e-05,-0.019609967536,-0.0373485787878,0.0948494963212,-0.017429100866,-0.0441981854676,-1.6613701582,1.11726546288,0.318812787533,-0.418104976416,-0.315859884024,-0.0250299237669
2017/07/09/09:38:56.379579,272104,1499564339,179456084,,0.833681009261,-0.0335869006527,0.184742912678,0.769702618736,0.628948754804,0.0140627661407,0.108552204722,-0.0104528442381,-0.00567268491568,-0.0349511297921,0.0980571635843,0.00923195620933,-0.0241405842728,-2.52172422409,0.364887773991,0.135852456093,-0.288041353226,-0.614054322243,0.0725299865007
2017/07/09/09:38:56.388979,272105,1499564339,189428974,,0.834051151864,-0.0332772956761,0.184160120093,0.769420251044,0.629301429629,0.0142727057804,0.108482615293,-0.00837677624122,-0.00285705912324,-0.0255322549877,0.0717041293379,0.0105812257495,-0.0109084996982,-2.08778429031,1.04187107086,0.00821269210428,-0.448048651218,-0.518684148788,0.000904960557818
2017/07/09/09:38:56.399250,272106,1499564339,199430001,,0.833904245482,-0.0337181070899,0.184751223353,0.76975470825,0.628870961558,0.0145482546415,0.10856956812,-0.0171132472161,-0.00835141286226,-0.0303209104597,0.0863196720736,0.0223625928714,-0.0291810697436,-0.074357829988,-0.105918854475,0.294682532549,-0.215153560042,0.316615611315,-0.0939786881208
2017/07/09/09:38:56.409353,272107,1499564339,209429961,,0.833433438771,-0.0332047679778,0.18345326827,0.769979304638,0.628815801913,0.014551446649,0.10728845741,-0.0245069632982,-0.0316441405522,-0.037996720016,0.0677379037541,0.0276076673865,-0.0488878414401,-0.461479753256,0.51777023077,0.232255712152,-0.342675536871,0.158961370587,-0.0920174121857
2017/07/09/09:38:56.419755,272108,1499564339,219437714,,0.833684012359,-0.0337292407023,0.183640128375,0.770055164557,0.628647165526,0.0148652830989,0.107688477436,-0.00910052782599,-0.0311268456744,-0.0313165285612,0.0405947187575,-0.000847149688621,-0.0506876189879,-0.821624875069,0.958358883858,0.345868468285,-0.4526668787,-0.021540466696,-0.0833261311054
2017/07/09/09:38:56.429413,272109,1499564339,229431333,,0.833913412095,-0.033351742258,0.183465527137,0.769877822702,0.628894046887,0.0153953153483,0.107440216712,-0.00107460576817,-0.0203693987006,-0.0237071725008,0.0406548131732,-0.0157173909669,-0.0177089198675,-0.87219029665,1.17264592648,0.476325601339,-0.525111794472,0.0251849032938,-0.0679150596261
2017/07/09/09:38:56.439238,272110,1499564339,239439179,,0.833872988223,-0.0336035836227,0.182659277409,0.770234854929,0.628494461477,0.0154161452261,0.107216242293,0.0218269523606,0.019751570344,-0.0258687737703,0.0687058332149,-0.0429434577845,0.0149402871683,-2.4231262207,0.703752875328,0.401788264513,-0.448778241873,-0.585628330708,0.00314077362418
2017/07/09/09:38:56.449367,272111,1499564339,249430873,,0.833636189846,-0.0345277965347,0.182455132784,0.770459681022,0.628196466774,0.0152333293893,0.107373296159,-0.000857486974873,0.00120858334098,-0.0404250897273,0.0619463670083,0.00141594033059,-0.028141190841,-1.91752290726,0.0509580671787,0.29062923789,-0.3572050035,-0.391006082296,-0.00387740484439
2017/07/09/09:38:56.459539,272112,1499564339,259436228,,0.83378996323,-0.0343338747239,0.182646109088,0.770265786937,0.628415622148,0.0155591662056,0.107435262653,-0.00850168381177,-0.0312372985843,-0.0307445078318,0.029390037253,-0.00501917747942,-0.0585651890177,-1.84496033192,0.379802852869,0.363910138607,-0.357203245163,-0.486518740654,0.00908752996475
2017/07/09/09:38:56.469347,272113,1499564339,269435177,,0.833856627287,-0.0340487617825,0.182614458765,0.770321774687,0.628378662852,0.0158591117671,0.107205914432,0.00217705653206,-0.0422111590905,-0.00862517763174,0.016643007554,-0.0470890317666,-0.052777684277,-1.24415266514,0.527316272259,0.29243722558,-0.286531090736,-0.347889721394,0.017154244706
2017/07/09/09:38:56.479284,272114,1499564339,279431418,,0.834231531487,-0.0343392181238,0.182328227295,0.770201211892,0.628466145304,0.0161096950376,0.107521510096,-0.000739403951659,-0.0228969981707,-0.0241764040575,0.0233695012331,-0.0114859974444,-0.021360877885,-0.745366752148,0.718613624573,0.15881486237,-0.386922866106,-0.203991174698,-0.0136578707024
2017/07/09/09:38:56.488904,272115,1499564339,289437565,,0.833821879087,-0.0337978782719,0.181588472741,0.770077390222,0.628763646206,0.0157375566945,0.106721223695,0.0092624884202,0.0216001325835,-0.0241285931024,0.0275103903508,0.00352878181672,0.0315660243415,-0.862714469433,0.709218382835,-0.434068083763,-0.395812481642,-0.185106500983,-0.0406334623694
2017/07/09/09:38:56.499190,272116,1499564339,299433482,,0.833748050951,-0.0345111956597,0.181321034781,0.77051053205,0.628216550919,0.0158870963168,0.106794594065,0.0151528769168,0.00376292628033,-0.0210988958083,0.0247208531776,-0.0215696543012,0.00691796371954,-1.11392974854,0.542567491531,-0.502241671085,-0.410071760416,-0.197731390595,-0.0459695868194
2017/07/09/09:38:56.509464,272117,1499564339,309427912,,0.833874179256,-0.0345955849003,0.181371174537,0.770538410369,0.62816020374,0.0161233280883,0.106889451655,0.014095186403,-0.0272543090349,-0.00605977076001,-0.00410429351585,-0.0450150841887,-0.029362453822,-1.82921361923,0.62746655941,-0.394831717014,-0.402945607901,-0.438514381647,0.00485771894455
2017/07/09/09:38:56.519315,272118,1499564339,319437696,,0.834260868532,-0.0345515849477,0.18129099537,0.770554693191,0.628101847488,0.0165368799376,0.10705169585,0.00984781767389,-0.000147385482629,0.00126805176833,0.00990444901475,-0.0262979495948,0.0206097157253,-2.42340540886,0.695899784565,-0.24821691215,-0.395709782839,-0.644300282001,0.0591611862183
2017/07/09/09:38:56.529359,272119,1499564339,329432490,,0.834249411439,-0.0345000476502,0.181727733824,0.770499860697,0.628156887219,0.0164740201328,0.107133077837,-0.00108067504902,-0.0232251539003,-0.00565531265036,0.00743541221626,-0.0235451097968,-0.0473947987517,-2.53125309944,0.840666770935,-0.146724149585,-0.42871978879,-0.633635938168,0.0152876861393
2017/07/09/09:38:56.540221,272120,1499564339,339436534,,0.834213300224,-0.0339994720217,0.181308776961,0.770274730797,0.628483856927,0.0162981182722,0.106860900326,0.00142778641906,-0.00952006500942,-0.0033798839042,0.00593229851496,-0.00609607675387,0.00393642684438,-2.36326670647,1.52817523479,-0.202647939324,-0.535996556282,-0.660851359367,0.027364898473
2017/07/09/09:38:56.549034,272121,1499564339,349432104,,0.833744061994,-0.0349047147227,0.180847141477,0.770470421342,0.628284417296,0.0161422101723,0.106646377678,-0.0064495535794,-0.0185565591533,-0.00830347774367,-0.015737343127,0.00813117990022,-0.00791928441041,-1.73655891418,0.875724315643,-0.732117474079,-0.428467661142,-0.392667382956,-0.00915222987533
2017/07/09/09:38:56.559489,272122,1499564339,359430190,,0.833828768318,-0.0353533987659,0.181156625927,0.770842860803,0.62774523195,0.0161112238889,0.107133730347,-0.00473811163856,0.00272209647916,-0.0253109969799,0.0306139370731,0.0176172384697,0.00694110309373,-1.7665541172,0.0908332914114,-0.509580075741,-0.281791418791,-0.383796572685,0.00141438469291
2017/07/09/09:38:56.569273,272123,1499564339,369437369,,0.833919495694,-0.0345117811257,0.18088338467,0.770611128301,0.628102662039,0.0162120774895,0.106689753124,-0.0130436704633,-0.00238072194699,-0.015257668562,0.0218610767264,0.0357008902761,-0.0416873456557,-1.66691422462,1.15168702602,-0.231371194124,-0.442641317844,-0.431648612022,-6.16637989879e-05
2017/07/09/09:38:56.579372,272124,1499564339,379428240,,0.833800960876,-0.0342056150651,0.180589829948,0.770089610802,0.628808159876,0.0160728350885,0.106320051635,-0.00165833418176,-0.00843661134615,-0.00114850416217,-0.00763884675109,0.00588611017951,-0.00264681295632,-1.9767100811,1.40126419067,-0.185279577971,-0.448468208313,-0.564817488194,0.00939545035362
2017/07/09/09:38:56.589184,272125,1499564339,389428414,,0.833570058195,-0.0356597746137,0.181269512326,0.770900584441,0.627702917686,0.0159410230596,0.106991681084,-0.0248977982514,-0.0102701446897,-0.0204481000346,-0.0179797331155,0.0651596732692,0.0169909639272,-1.75201797485,0.382601261139,0.312047034502,-0.277037829161,-0.438265472651,0.0260320678353
2017/07/09/09:38:56.599971,272126,1499564339,399433634,,0.833703614933,-0.0355914895166,0.181017726325,0.770667284734,0.627954574909,0.0155822451908,0.107248224815,0.00143670878364,0.0010059062879,-0.00728296765297,-0.00706591413809,0.00981995108035,0.0131123454969,-0.909573376179,-0.0307186990976,0.0855089053512,-0.102212846279,-0.0907825231552,-0.0148330722004
2017/07/09/09:38:56.609600,272127,1499564339,409430703,,0.833277691917,-0.0353834668462,0.180276579649,0.770820245664,0.627915174587,0.0155889772201,0.106375120152,0.00782059422259,0.000446583202812,-0.00747942886967,-0.00869174122859,-0.0102748226069,-0.014579394978,-2.05524277687,0.196200415492,-0.519070446491,-0.13874912262,-0.532148599625,0.0760184824467
2017/07/09/09:38:56.619324,272128,1499564339,419436622,,0.833643150075,-0.0348671369171,0.180441904397,0.7704759218,0.628309546322,0.015714505577,0.106522402531,0.00212077035195,0.000553815021316,-0.00997519973262,-0.000524792050533,0.0060736400882,0.0120271007728,-1.28473353386,0.716005265713,-0.142400145531,-0.177716568112,-0.314556181431,0.0391143523157
2017/07/09/09:38:56.629129,272129,1499564339,429428340,,0.834249009461,-0.0347093718344,0.180572959743,0.770606290792,0.628095773715,0.0165117206364,0.106719289332,0.00564668218491,0.0223150254419,-0.00714070823166,0.0132846244909,0.0055863972905,0.0275333961784,-1.34775924683,-0.168761625886,0.145486116409,5.73676079512e-05,-0.293660670519,0.0528936870396
2017/07/09/09:38:56.639209,272130,1499564339,439437389,,0.83422581919,-0.0343734131695,0.180782983312,0.770302393159,0.628434073935,0.0160890327099,0.10698589083,-0.000142551334338,0.00358688885023,-0.0114743217527,0.0137934815467,0.00601057671718,-0.00263879560106,-1.33786582947,0.509217321873,0.079112790525,-0.0563562214375,-0.35829153657,0.0767294168472
2017/07/09/09:38:56.649444,272131,1499564339,449428413,,0.834186153036,-0.0350258811231,0.180982860899,0.770262850277,0.628422537473,0.015854580723,0.107372660156,0.00984940896036,-0.0121466283678,0.00378828364531,-0.0200336256853,-0.0237400353044,-0.00148725895928,-1.25501823425,0.162112832069,0.279959768057,-0.0526251420379,-0.254782915115,0.0270247682929
2017/07/09/09:38:56.659538,272132,1499564339,459437174,,0.833997559887,-0.0343197042102,0.180350480774,0.770466671777,0.628298905681,0.0160436174022,0.106602979048,0.00935344695969,-0.0166330599763,0.00506618452038,-0.0435955115057,-0.0174146257046,0.00299864978651,-1.63619446754,0.605482637882,0.0392822474241,-0.0725335329771,-0.372185647488,0.0568291656673
2017/07/09/09:38:56.669191,272133,1499564339,469440983,,0.834376228059,-0.0356498272742,0.180928531391,0.770386664824,0.628178440582,0.0157001930627,0.107933949186,-0.00272111762269,-0.0207579103931,-0.00646128720764,-0.0268937436916,0.000379177269634,-0.0109163990431,-1.58246243,0.555817782879,0.0832169726491,-0.15468095243,-0.386779844761,0.0147063471377
2017/07/09/09:38:56.679555,272134,1499564339,479437129,,0.834078590398,-0.0347709022137,0.18025191197,0.770519185705,0.628187141289,0.0159009507316,0.106903038995,-0.00257836768544,-0.0116891051828,-0.00392586626133,-0.000453654729744,-0.0034555682478,-0.0243810001954,-2.20368742943,1.06105494499,-0.118953876197,-0.236786156893,-0.683022558689,0.0639678612351
2017/07/09/09:38:56.688994,272135,1499564339,489430587,,0.834009250029,-0.0353792107329,0.180398775271,0.770607982295,0.628043252411,0.0158277956941,0.107119053432,0.0120380075688,0.0135854233449,0.00283538517184,0.0162082105365,-0.0230168088051,0.00617415704451,-2.30563807487,0.427192181349,-0.333736866713,-0.150969386101,-0.658174097538,0.0801283940673
2017/07/09/09:38:56.699258,272136,1499564339,499438465,,0.834129738187,-0.0348626052344,0.180154080627,0.770476444806,0.628249076745,0.0160268699197,0.106828296853,0.00155989377412,-0.0103326554643,-0.00542448045316,-0.0183807732169,-0.00139274581309,0.00226409373581,-2.89434766769,0.520714581013,-0.347838550806,-0.169924169779,-0.91831600666,0.0843745917082
2017/07/09/09:38:56.709341,272137,1499564339,509430084,,0.834119438804,-0.034406527657,0.17999281011,0.770415760244,0.628373832364,0.0162093818846,0.106504174129,-0.0081363422449,-0.0181694407607,-0.00282308660881,-0.0134487994764,0.00747758345809,-0.0111079370824,-2.79958844185,0.726351618767,-0.128329411149,-0.167705103755,-0.937131047249,0.1427603513
2017/07/09/09:38:56.719429,272138,1499564339,519437766,,0.834046569546,-0.0357980828868,0.18013026578,0.77067942429,0.627939321015,0.0159558966377,0.107195351868,0.0090696888605,0.0130609425699,-0.0025500522865,0.0174035601361,-0.0157687699842,0.0142619693319,-2.19904875755,-0.0497597418725,-0.1663749367,-0.0737454891205,-0.682546973228,0.091233342886
2017/07/09/09:38:56.729486,272139,1499564339,529428616,,0.834305243621,-0.0344694491097,0.180190404896,0.770376284591,0.628362711626,0.0160561458239,0.106877888073,0.00820652905479,0.00950048887657,-0.00805768676613,0.00980488681527,-0.0120720330297,0.0130791620585,-2.27835345268,1.09449398518,-0.139809414744,-0.204999670386,-0.736065626144,0.0789180994034
2017/07/09/09:38:56.739213,272140,1499564339,539439210,,0.834054000635,-0.0354376427934,0.180452216994,0.770497520055,0.628159651179,0.0161462537059,0.107183593482,-0.00560836518765,-0.0180318151957,0.00479746612947,-0.0220369639945,-0.00129734161665,-0.0220721658461,-1.5231719017,0.404936701059,0.00954952929169,-0.0234704315662,-0.470761835575,0.0910994559526
2017/07/09/09:38:56.749130,272141,1499564339,549432859,,0.834422389571,-0.0347356588632,0.1799364782,0.770299067143,0.628425539657,0.0160546266028,0.107065107431,0.0035358780191,-0.00308618855656,-0.000739610011705,0.0134555273274,-0.0147761859099,0.000522077885028,-1.82679891586,0.655360877514,-0.176837906241,-0.14226976037,-0.522981703281,0.0501905865967
2017/07/09/09:38:56.759534,272142,1499564339,559435650,,0.834212471399,-0.0349488513031,0.180004915932,0.770518849286,0.628177731059,0.016167898088,0.10692071908,-0.00423650306942,-0.00806788298696,-0.00308147282342,0.0165940110932,0.0018782568511,-0.0135109834586,-1.77793443203,0.295184791088,-0.287875384092,-0.068249464035,-0.511239111423,0.0783151239157
2017/07/09/09:38:56.769326,272143,1499564339,569430538,,0.834235646487,-0.0348167326751,0.179667717299,0.770385367586,0.628338726183,0.0159498347857,0.106969310362,-0.00500969397862,0.00682629687827,-0.00957923669126,0.00707358789899,0.0199441207298,0.00855234511795,-2.09169578552,0.760304331779,-0.454233556986,-0.174112081528,-0.673532664776,0.0672603994608
2017/07/09/09:38:56.779331,272144,1499564339,579433956,,0.834447885303,-0.0352061224034,0.180098774657,0.770257159745,0.628432075926,0.0163312041554,0.107286185409,0.000628497857631,-0.00938317553155,-0.00212942937684,-0.0368228782217,0.00505349845054,0.0185908542587,-1.88042497635,0.371792733669,-0.240693598986,-0.0906889885664,-0.546137213707,0.0804888159037
2017/07/09/09:38:56.789102,272145,1499564339,589431794,,0.833953886141,-0.03456956586,0.179543822869,0.770462652293,0.628341357599,0.0160044329867,0.106387489289,0.001675252159,-0.00914492355809,0.00381999941628,0.00926688979722,-0.0165357876291,-0.0155659235945,-1.78161871433,1.52447748184,-0.318247973919,-0.277106195688,-0.515393614769,0.0344858281314
2017/07/09/09:38:56.799158,272146,1499564339,599436598,,0.834456171511,-0.0348744966694,0.179896737996,0.770555884844,0.628122495853,0.0164634899804,0.106933212954,-0.00107184687704,0.00896875231542,-0.010206595205,0.0200955360807,0.00764883441751,-0.00500395436626,-0.982535004616,0.592844724655,-0.0816565752029,-0.161116734147,-0.239485695958,0.014097169973
2017/07/09/09:38:56.809366,272147,1499564339,609436563,,0.834307480665,-0.035538237023,0.180529868547,0.770487016494,0.628115794706,0.0160208373013,0.107534360216,0.00372317964082,-0.00951526757517,0.0117157326771,-0.00536634064535,-0.0184423491699,-0.0232131323564,-1.18235731125,0.254647195339,-0.11050952971,-0.0682155042887,-0.312190175056,0.0252298936248
2017/07/09/09:38:56.819338,272148,1499564339,619436965,,0.834323589263,-0.0353001728346,0.180030407568,0.770636739476,0.62800138417,0.0161629721188,0.107107588817,-0.00613483512099,-0.0104514252275,0.00652227662972,-0.0216623126179,0.00645701427028,-0.0135586131691,-2.05700731277,0.652234375477,-0.117173440754,-0.1405518502,-0.665013551712,0.0859078913927
2017/07/09/09:38:56.829547,272149,1499564339,629428932,,0.83404963926,-0.0354401563519,0.180044083338,0.770900268149,0.627700165992,0.016157561775,0.106977620927,0.000543910473381,-0.00135693475045,0.0067406182085,0.0104963231345,-0.00950524417234,-0.00422101104738,-2.14839959145,0.462764620781,-0.389959841967,-0.186980590224,-0.633056163788,0.0747521966696
2017/07/09/09:38:56.839359,272150,1499564339,639431757,,0.834206621245,-0.0360628084416,0.180075838822,0.770949020392,0.627573476362,0.0161111903771,0.10737583186,-0.00349328172447,0.000524254772351,-0.00744000310719,0.00145101355539,0.014680303264,0.0139135460371,-1.5791503191,0.0814321413636,-0.339001178741,-0.0727378353477,-0.439439862967,0.0406812205911
2017/07/09/09:38:56.849254,272151,1499564339,649430823,,0.833724317731,-0.0359421854316,0.179536308453,0.771119015685,0.627459364089,0.0158251114584,0.10686335159,0.0044507499451,-0.00304600290646,-0.00945410482067,0.00309436715337,-0.010766869936,-0.0128481126159,-1.69228553772,0.293365091085,-0.419387370348,-0.112663730979,-0.428986102343,0.0396787002683
2017/07/09/09:38:56.859620,272152,1499564339,659429496,,0.834356282239,-0.035267567159,0.179973180126,0.770596394766,0.628054129102,0.016400960026,0.107052397456,-0.00268374758898,0.0142983135453,-0.0234571786186,0.00438901946128,0.0272197203479,0.0198675704517,-1.51246535778,0.20999494195,0.0740100890398,-0.0634061992168,-0.387125402689,0.0232795476913
2017/07/09/09:38:56.869426,272153,1499564339,669434575,,0.834037399603,-0.0356645248046,0.179879598227,0.770832352456,0.627773963417,0.015907493559,0.107071410341,-0.000295739815443,-0.000158189548911,0.00582808537344,-0.00043819444598,-0.00300956194642,0.00320344165115,-2.27658033371,0.262257307768,-0.0107087083161,-0.118061237037,-0.63411206007,0.0637330412865
2017/07/09/09:38:56.879307,272154,1499564339,679441794,,0.834150396427,-0.0353697112415,0.179878639798,0.770711977367,0.627921821593,0.0159275680099,0.107067952666,0.00439207580857,0.00204911541432,0.00162385056175,0.0109642219384,-0.0126538199418,0.0135807527697,-1.91762340069,0.537485063076,-0.0505967438221,-0.0999875068665,-0.499551534653,0.0809660553932
2017/07/09/09:38:56.889000,272155,1499564339,689464198,,0.834204272481,-0.035418965808,0.179641050197,0.770631981171,0.628029439433,0.0160653616655,0.106991948095,0.00885588625093,-0.00445214943559,-0.00541130620168,-0.00813382158203,-0.019738841554,0.00845327393209,-2.16410040855,0.64230042696,0.0413530245423,-0.236926645041,-0.572243392467,0.0110565088689
2017/07/09/09:38:56.898983,272156,1499564339,699429724,,0.834748658134,-0.0340066731717,0.179828326057,0.770241099492,0.628543617944,0.0166596632771,0.106695944699,-0.00594467723438,-0.00524578260729,-0.00608901585782,0.00891804960779,0.00972677383206,-0.0095246254128,-2.09233593941,1.67323100567,-0.135115236044,-0.435464024544,-0.593498587608,0.0203729774803
2017/07/09/09:38:56.909519,272157,1499564339,709430663,,0.83468227193,-0.0349981179864,0.179740042039,0.770326917792,0.62835913682,0.0165581235556,0.107177718973,-0.00881995850548,0.00548793828488,-0.00910302498975,0.0111482113999,0.029105176694,0.00144733711983,-1.16851425171,0.806310415268,0.201212704182,-0.221495971084,-0.262409031391,-0.0151905044913
2017/07/09/09:38:56.919302,272158,1499564339,719431754,,0.834324985232,-0.0351833985298,0.179372457069,0.770608725055,0.628098487563,0.0165032200562,0.106687049437,0.00612139312954,0.0028205875811,0.00518304120425,-0.0119214581128,-0.00956584584089,0.0110563014549,-1.13175618649,0.00457328185439,0.545442640781,0.0179009884596,-0.210688993335,0.0335397198796
2017/07/09/09:38:56.929319,272159,1499564339,729436799,,0.834287613585,-0.0347645510958,0.17964106489,0.770537021999,0.628202787796,0.0163749146323,0.106610587211,-0.00122478066247,-0.00546403881408,-0.00210721866999,-0.010441410399,0.0091598266462,0.00266023686305,-1.43794763088,0.431832224131,0.0210769213736,-0.123339563608,-0.327085345984,0.020170070231
2017/07/09/09:38:56.939265,272160,1499564339,739430765,,0.834377496805,-0.0350341098518,0.179846715012,0.770574261361,0.628119356339,0.0164497191307,0.10682129311,-0.00537166758155,-0.0215690295701,-0.00437912358964,-0.0237344340974,0.00242668465057,-0.034259883989,-1.4034537077,0.665694832802,0.459649771452,-0.169675439596,-0.285032451153,-0.0182679258287
