time,.header.seq,.header.stamp.secs,.header.stamp.nsecs,.header.frame_id,.pose.position.x,.pose.position.y,.pose.position.z,.pose.orientation.x,.pose.orientation.y,.pose.orientation.z,.pose.orientation.w,.twist.linear.x,.twist.linear.y,.twist.linear.z,.twist.angular.x,.twist.angular.y,.twist.angular.z,.wrench.force.x,.wrench.force.y,.wrench.force.z,.wrench.torque.x,.wrench.torque.y,.wrench.torque.z
2017/07/09/09:35:49.729425,253439,1499564152,528832892,,0.805817324651,0.530496202315,0.258066352886,0.617209228349,0.776505674873,0.0827751046261,0.0961248531029,0.0878817231084,-0.276743626376,0.0026698866024,-0.00833821706249,0.0225117064221,-0.371714181248,3.70679688454,1.79211878777,1.16649830341,-0.678184390068,1.36887097359,-0.180085763335
2017/07/09/09:35:49.739218,253440,1499564152,538829439,,0.807133982294,0.527373456709,0.258634915019,0.618948017986,0.775087260098,0.0830042950179,0.0961944763152,0.102410173946,-0.320466628613,0.00365527875531,-0.0318032500757,0.0191725210111,-0.42897001346,4.34381628036,2.15056705475,1.17925608158,-0.920334398746,1.54714930058,-0.279716670513
2017/07/09/09:35:49.749214,253441,1499564152,548841978,,0.808142856144,0.523677602345,0.258685046951,0.621101592626,0.773427373375,0.0824466387531,0.0961533229244,0.0970341212344,-0.330172380674,-0.00580297494351,-0.0317068019899,0.0462523516378,-0.422854852648,3.87239170074,2.06895232201,1.10576152802,-0.835739910603,1.40684151649,-0.248443379998
2017/07/09/09:35:49.759293,253442,1499564152,558828876,,0.809065349687,0.521041908575,0.258490467013,0.622609190236,0.772224061467,0.0821590490613,0.0963207442984,0.0907858499069,-0.310542197744,0.0135689291171,-0.0073862244193,0.0324950247186,-0.405064853393,3.78079748154,1.93399178982,1.12258720398,-0.802102744579,1.40797567368,-0.23194296658
2017/07/09/09:35:49.769186,253443,1499564152,568852662,,0.809319576935,0.518530996478,0.258387488595,0.623538019654,0.771604891554,0.0814630796023,0.0958644670228,0.0872667224811,-0.318057118184,0.000534775140407,-0.0261465206507,0.0502760838023,-0.430389802316,4.27103614807,2.0717151165,1.15335059166,-0.865386962891,1.61579954624,-0.242487564683
2017/07/09/09:35:49.779063,253444,1499564152,578831162,,0.809834575074,0.514675405904,0.257840034258,0.625551738035,0.770124007409,0.0802586501445,0.0956691451344,0.0789639330192,-0.326744528006,0.0104605477814,-0.0274417807169,0.0650052033786,-0.432267889111,3.49619030952,1.77135074139,1.00490486622,-0.764082729816,1.32083272934,-0.250594764948
2017/07/09/09:35:49.789223,253445,1499564152,588830027,,0.811198310439,0.511025266507,0.258253102635,0.627032088653,0.768858136761,0.0797974687876,0.0965416454719,0.0787695710301,-0.337639002605,0.0073636462774,-0.0275589758412,0.0727143964686,-0.458157689795,4.08052253723,1.8513623476,1.15184283257,-0.781194508076,1.60836935043,-0.221719324589
2017/07/09/09:35:49.798985,253446,1499564152,598829073,,0.811654684172,0.507202816666,0.257971418513,0.629479351267,0.767022509417,0.079104560144,0.0957845756946,0.0730426614194,-0.344785577297,-0.00989395811859,-0.0513415468918,0.0943667913416,-0.45164339095,4.42342185974,1.84943509102,1.0332518816,-0.819072902203,1.70903944969,-0.256766945124
2017/07/09/09:35:49.809242,253447,1499564152,608829296,,0.812114045007,0.504352542228,0.257316592569,0.630697353061,0.76611995405,0.0780581092994,0.0958540370577,0.0728183755493,-0.349687722917,-0.0081293662395,-0.0563418026001,0.0906494228618,-0.454642802576,3.7135052681,1.80190169811,0.975010097027,-0.825351774693,1.43542647362,-0.287421613932
2017/07/09/09:35:49.820312,253448,1499564152,619824369,,0.812952820376,0.501166781343,0.258073870956,0.63214413081,0.764933650816,0.077836667727,0.0959779187587,0.0683469122549,-0.328310134698,0.00910180229846,-0.0485582494429,0.0669884608492,-0.398797730137,4.10009860992,1.7818530798,1.02324748039,-0.800690948963,1.59400987625,-0.266261041164
2017/07/09/09:35:49.829113,253449,1499564152,628835154,,0.813972587492,0.498140716195,0.258603793837,0.63366728581,0.76365119693,0.0777703451252,0.0961997595661,0.0623526135402,-0.339595427796,-0.000874612851741,-0.0578036071717,0.0944602831935,-0.430615471226,4.00092935562,1.81890594959,0.884152710438,-0.793614089489,1.52855980396,-0.287688821554
2017/07/09/09:35:49.839424,253450,1499564152,638831852,,0.814665352361,0.494846764744,0.257970375815,0.635154778139,0.762478006094,0.0768834327138,0.0964086915413,0.0796521058764,-0.345151658663,-0.001759328632,-0.0440635627235,0.0655726254894,-0.444922363472,3.6652765274,1.6208384037,0.709370553493,-0.708763182163,1.34456586838,-0.272844851017
2017/07/09/09:35:49.850087,253451,1499564152,649823243,,0.815443377818,0.490929959324,0.258007568693,0.636829030054,0.761157541897,0.0760208038362,0.0964822277797,0.064041958654,-0.315282115814,-0.0157995769616,-0.0183810053933,0.0917539958835,-0.413188716011,4.11776304245,1.92532265186,0.850424826145,-0.858691215515,1.54125106335,-0.319363564253
2017/07/09/09:35:49.859948,253452,1499564152,659829197,,0.816058273066,0.488895223145,0.258197436865,0.638459800367,0.759813594392,0.0762151880104,0.0961437996415,0.0786310336464,-0.325581362852,0.00428250445474,-0.00666318372047,0.0427167462604,-0.448589967838,3.97491931915,1.76346862316,0.990209937096,-0.816588521004,1.54791176319,-0.305979371071
2017/07/09/09:35:49.869366,253453,1499564152,668834892,,0.816953789652,0.484666605341,0.257578583079,0.640318612387,0.758340517247,0.0750956924945,0.0962931539691,0.0722764551037,-0.332715517744,0.00100745649164,-0.0108993865533,0.0636080559652,-0.43171516746,4.02402544022,1.88794350624,1.10514986515,-0.922877132893,1.5909832716,-0.330511927605
2017/07/09/09:35:49.879365,253454,1499564152,678835000,,0.817656808893,0.481440732924,0.258279358933,0.641968835309,0.756901088567,0.0749299819432,0.096758743399,0.0636187757573,-0.332153634643,-0.00599964821181,-0.0417946727768,0.0718434901871,-0.412746153869,3.8671901226,1.66681432724,0.91615575552,-0.783486962318,1.50147998333,-0.29640007019
2017/07/09/09:35:49.890549,253455,1499564152,689825302,,0.818268539325,0.478453757637,0.257895431716,0.643779654911,0.755472296689,0.0745708914384,0.0961693662659,0.0743291261821,-0.340028229909,-0.00931548756803,-0.0345582814853,0.0593515980442,-0.441749311777,3.70271015167,1.30548357964,1.0079921484,-0.64592063427,1.48802113533,-0.258100956678
2017/07/09/09:35:49.899362,253456,1499564152,698829163,,0.818514227889,0.476439572608,0.257459481287,0.644527161899,0.754908313687,0.073942132431,0.0960767222158,0.0769274492458,-0.35023860561,-0.0140623976318,-0.0308846754915,0.0596407347846,-0.475328929107,3.6614317894,1.54816102982,1.06122303009,-0.739969491959,1.44902122021,-0.30424836278
2017/07/09/09:35:49.910302,253457,1499564152,709827153,,0.819833372906,0.472061971495,0.257722761877,0.646441043558,0.753217749291,0.0735853868688,0.0967584114969,0.073982568819,-0.326055894264,-0.019411825777,-0.0211743487178,0.0543729689788,-0.416788141356,3.80586600304,1.59351313114,1.2383377552,-0.702213943005,1.55094563961,-0.313372850418
2017/07/09/09:35:49.920436,253458,1499564152,719829121,,0.820762454624,0.46905235903,0.257716328175,0.648089825372,0.751812229389,0.0737708145087,0.0965184796629,0.0797358009943,-0.33604245475,-0.0228893746511,-0.0205369817902,0.0491115737096,-0.409347736766,3.67045450211,1.72870326042,1.14991676807,-0.820258677006,1.42233538628,-0.385934263468
2017/07/09/09:35:49.930231,253459,1499564152,729825279,,0.821117451308,0.46572100251,0.256827831859,0.649682211648,0.750576237217,0.0724255473057,0.0964514182922,0.0857947553544,-0.336045029294,-0.0108610727595,-0.00969351427413,0.0192704865365,-0.451556216229,3.32185459137,1.48052382469,1.21447813511,-0.715584099293,1.2846416235,-0.344916075468
2017/07/09/09:35:49.939245,253460,1499564152,738835966,,0.82230796208,0.462615843426,0.257192426452,0.651243649237,0.749139995414,0.0727793144235,0.0968201838028,0.0818226968354,-0.362091304935,-0.0108721481691,-0.0269646038432,0.0393481070519,-0.466145050362,3.08240032196,1.44291567802,1.12526214123,-0.682744324207,1.18011832237,-0.338163614273
2017/07/09/09:35:49.949146,253461,1499564152,748837936,,0.823096366025,0.459214863022,0.257427396862,0.65314628595,0.747491571076,0.0726365158797,0.0968515197687,0.0850910917775,-0.326683454365,-0.0111558178533,0.0174522038791,0.0127578378517,-0.452033104843,3.16009092331,1.43439614773,1.26051151752,-0.65456533432,1.25394320488,-0.292340546846
2017/07/09/09:35:49.959206,253462,1499564152,758828808,,0.824450468385,0.45580684969,0.257530666925,0.654593164102,0.746123799648,0.0727631414729,0.0975325092104,0.0921724106166,-0.340906577372,0.00469130788113,0.00291161446138,-0.0143566862672,-0.429319785295,2.38070392609,1.23406481743,1.12748086452,-0.620429098606,0.962338030338,-0.315028756857
2017/07/09/09:35:49.970140,253463,1499564152,769822271,,0.824921703266,0.453112891312,0.257178375067,0.655753022471,0.745189002282,0.0722446008599,0.0972730283507,0.0863519916579,-0.331409847458,-0.00482393464765,0.0121053827227,0.00401179071834,-0.441288282447,2.52625155449,0.996279239655,1.37086880207,-0.526268959045,1.05188310146,-0.295016407967
2017/07/09/09:35:49.979183,253464,1499564152,778829787,,0.825252553701,0.449777471454,0.257181208904,0.6575585519,0.743644470683,0.0717034876645,0.0973049942331,0.0879735077087,-0.359480061858,-0.00635850759211,-0.0134014854685,0.00375023217839,-0.471688237783,2.36846017838,0.983405590057,1.30067050457,-0.518731832504,1.0107653141,-0.265327900648
2017/07/09/09:35:49.989208,253465,1499564152,788829699,,0.826233498543,0.446457366004,0.256762980411,0.658951946188,0.742431172831,0.0714320125713,0.0973434836232,0.0870291156386,-0.343925733701,-0.0125062663083,-0.00371934884546,0.00745876998558,-0.456365320124,2.36806821823,1.12416613102,1.36603522301,-0.562354803085,0.981198549271,-0.318074375391
2017/07/09/09:35:50.000289,253466,1499564152,799829072,,0.827547565072,0.442224155085,0.256055517444,0.661196317228,0.740439957868,0.0712598100597,0.0974173411001,0.0783518537492,-0.360201369391,-0.00308770629479,-0.0154111349943,0.0187694549403,-0.45945755164,1.29983758926,0.886671543121,1.33226037025,-0.519114017487,0.539535462856,-0.314250707626
2017/07/09/09:35:50.009952,253467,1499564152,809825602,,0.828074900257,0.438896530979,0.256218150167,0.662770911303,0.739082028913,0.0708421843502,0.097333748438,0.085735584891,-0.355793121192,-0.0130848208663,0.0111526265976,0.0152317403139,-0.484261305846,1.26651573181,0.837776243687,1.2980120182,-0.51882237196,0.536628067493,-0.312291920185
2017/07/09/09:35:50.019269,253468,1499564152,818829246,,0.828489580271,0.436493865344,0.25683670668,0.663873961109,0.738054618051,0.0707886379405,0.097650976817,0.0825793497048,-0.351758189572,-0.0116353193204,0.00603298051333,0.0127463206309,-0.460627298624,1.58547115326,0.941940307617,1.36876404285,-0.576119661331,0.635252833366,-0.356144726276
2017/07/09/09:35:50.029320,253469,1499564152,828828985,,0.829698671454,0.432026648702,0.256618054082,0.66632347356,0.735858261484,0.070577043611,0.0976961028081,0.0641324499974,-0.346749114203,-0.0189717163358,0.0210133887491,0.0526594095477,-0.460542490165,1.37912642956,0.948108375072,1.54976582527,-0.566007733345,0.6001329422,-0.297314822674
2017/07/09/09:35:50.039257,253470,1499564152,838827875,,0.830030398144,0.429258999369,0.256375752481,0.667646543231,0.73469215627,0.0702364904912,0.0976850256252,0.0641128748622,-0.367196051892,-0.0236670813891,-0.00902008832431,0.0513514442744,-0.479455952421,1.58960711956,0.552961647511,1.53745353222,-0.384718507528,0.679540395737,-0.262366682291
2017/07/09/09:35:50.049999,253471,1499564152,849823430,,0.831098416542,0.425186568429,0.256537159785,0.669418823968,0.733048403859,0.0699681903516,0.098096524174,0.0761749630103,-0.388559548177,-0.0195809680243,-0.0299616542257,0.0253224332674,-0.503256011632,1.68939769268,0.761734724045,1.71511006355,-0.469462513924,0.723008811474,-0.277165234089
2017/07/09/09:35:50.059361,253472,1499564152,858830817,,0.831688524565,0.421352967733,0.256010996754,0.671271006369,0.731408782831,0.0692251709883,0.0982054179117,0.0913033128185,-0.374407537033,0.0123913434801,-0.00520037892861,-0.0366627538368,-0.482229751791,0.973648607731,0.614252746105,1.60974431038,-0.44663888216,0.440546184778,-0.301274508238
2017/07/09/09:35:50.070276,253473,1499564152,869825859,,0.83172561561,0.418913540952,0.255683632174,0.672653432038,0.730244995235,0.0688936584898,0.0976384715245,0.0665671743776,-0.334824980696,-0.00987756675325,0.0109591852197,0.0200550290936,-0.432976508796,0.978656291962,0.676956176758,1.67548036575,-0.415934026241,0.444495737553,-0.253328502178
2017/07/09/09:35:50.079145,253474,1499564152,878828172,,0.832820795618,0.415617661683,0.255693399946,0.674182083323,0.728769940366,0.0690307662936,0.0980185995083,0.0625346923652,-0.364644921458,-0.0105120245368,-0.00286400964876,0.0272832695925,-0.482263390241,0.753630757332,0.64212679863,1.84537601471,-0.453909337521,0.389028757811,-0.286277234554
2017/07/09/09:35:50.089498,253475,1499564152,888829533,,0.833297595335,0.411903747092,0.255737255784,0.676123542454,0.727003107728,0.0686408172883,0.0980401698037,0.0672764252007,-0.358515469983,-0.012706018839,0.0153308606129,0.0234926863813,-0.472917938426,0.682222485542,0.584113657475,1.76286113262,-0.446709156036,0.31915473938,-0.294867157936
2017/07/09/09:35:50.099194,253476,1499564152,898835093,,0.83403229673,0.407715789903,0.255184166576,0.677861563475,0.725421096956,0.0678578626546,0.0983017971871,0.0653173410913,-0.366579455518,-0.0230721839064,-0.00181668089651,0.036923819683,-0.46716291985,0.152997627854,0.62426930666,1.68809473515,-0.474896520376,0.0874629989266,-0.303497165442
2017/07/09/09:35:50.109302,253477,1499564152,908840641,,0.83495476714,0.405106007687,0.255679337098,0.679211519858,0.724101041273,0.0683200201208,0.098395976392,0.0681523992488,-0.361979071631,-0.000826579721322,0.0207491576966,0.00221370573728,-0.484749555353,0.0919504761696,0.681328654289,1.7540140152,-0.543409824371,0.0527523756027,-0.335632324219
2017/07/09/09:35:50.120212,253478,1499564152,919832014,,0.835332966245,0.401551082939,0.255419009338,0.680920215765,0.722546270434,0.0679276657332,0.0982872274115,0.0541947014777,-0.359479095258,-0.0152017565746,0.0159254161877,0.0406096192867,-0.468038354528,-0.0575554668903,0.23462125659,1.73917090893,-0.353019654751,0.033449973911,-0.213513284922
2017/07/09/09:35:50.129138,253479,1499564152,928827975,,0.835977764642,0.398642560822,0.255550147894,0.682201344305,0.721332200185,0.067961507176,0.0982975907508,0.0589441923707,-0.381830983603,-0.0080104173724,0.0124020094438,0.0272188415759,-0.492107877637,-0.133537113667,0.474002599716,1.69873809814,-0.547138094902,-0.0117674469948,-0.341588795185
2017/07/09/09:35:50.139305,253480,1499564152,938832546,,0.836419620502,0.39590900242,0.2554254879,0.683945029624,0.719713328867,0.0681421438331,0.0979212384356,0.0648938573957,-0.345073127173,0.00675066065924,0.0336073750132,-0.0102852300241,-0.458259815414,0.0233482867479,0.609685182571,1.85394215584,-0.605713009834,0.0885288119316,-0.361956655979
2017/07/09/09:35:50.150112,253481,1499564152,949823979,,0.837109563071,0.390128109481,0.255019752805,0.686123431604,0.717676502029,0.0671193259287,0.098336519799,0.0714902314196,-0.338480486811,-0.0017933402262,0.0304965518815,-0.0318787076552,-0.435488206126,-0.734951913357,0.388806521893,1.78665590286,-0.532639503479,-0.115471042693,-0.379239529371
2017/07/09/09:35:50.159097,253482,1499564152,958829176,,0.837979110358,0.387672047461,0.255176476413,0.687335334238,0.716423859563,0.0675393637694,0.0987189247215,0.0676078428336,-0.347626396815,-0.0081098654975,0.0178406128751,-0.0252091434244,-0.427877259095,-0.472764074802,0.38410282135,1.80601358414,-0.512639403343,0.0505509153008,-0.378976196051
2017/07/09/09:35:50.170102,253483,1499564152,969822473,,0.839074270293,0.38331981701,0.254726262559,0.689069861314,0.714682445856,0.0674579769513,0.0993033189764,0.07692662696,-0.353209780746,-0.0137365522919,0.0166385415466,-0.0496986275555,-0.435486131369,-0.210005283356,0.718324899673,2.03757166862,-0.707655072212,0.27556720376,-0.459581017494
2017/07/09/09:35:50.179353,253484,1499564152,978828848,,0.83952785578,0.38072378579,0.254845487145,0.690082962885,0.713668304996,0.0673458704536,0.0996372847514,0.0630707179649,-0.359218207729,-0.0201024228123,0.0110457864285,-0.0203814013914,-0.444820507157,-0.721795678139,0.624121427536,2.07102847099,-0.652948498726,0.193070232868,-0.436664313078
2017/07/09/09:35:50.189113,253485,1499564152,988830568,,0.839795515694,0.377057800966,0.254672022362,0.691900685119,0.711965696803,0.0668835109262,0.0995232860867,0.0624878092444,-0.380121588953,-0.0294573138285,0.00804924637952,-0.00823879663107,-0.480994732507,-0.820781230927,0.446370184422,1.98772537708,-0.663011074066,0.162219703197,-0.444391936064
2017/07/09/09:35:50.199258,253486,1499564152,998829022,,0.840116162018,0.372854653883,0.253509416284,0.693707807603,0.710305168456,0.0661960260156,0.0992679780972,0.0519387609175,-0.376242233391,-0.025205367881,-0.0182799720322,0.00123334803385,-0.453579375716,-1.75863027573,0.374729275703,1.72533488274,-0.630343735218,-0.22142252326,-0.445935249329
2017/07/09/09:35:50.210327,253487,1499564153,9828173,,0.840759434839,0.370141421548,0.254132261358,0.695087606061,0.708870134407,0.0666272616681,0.0995849408797,0.038580950133,-0.363886564562,-0.0309985201953,-0.0216483228786,0.0256509508663,-0.443802724273,-1.76947808266,0.182835146785,1.67263329029,-0.484009861946,-0.251007825136,-0.35904738307
2017/07/09/09:35:50.219141,253488,1499564153,18833427,,0.841403110799,0.366884391939,0.254225104971,0.696129546161,0.707792371082,0.0664496235703,0.100090268891,0.0400320536517,-0.366845340565,-0.037602537159,0.0090289294058,0.0327181395282,-0.481555357892,-1.4363758564,0.408697634935,1.55174863338,-0.601049721241,-0.24715423584,-0.437630802393
2017/07/09/09:35:50.230337,253489,1499564153,29823187,,0.841368290498,0.363319945456,0.253403570105,0.697970724756,0.706090198356,0.0659518526581,0.0996185339203,0.0490676033299,-0.344858294947,-0.0119337598556,0.0100297921261,-0.0219275741601,-0.414090242297,-1.29669058323,0.47058391571,1.55355906487,-0.553371489048,-0.24310913682,-0.437254309654
2017/07/09/09:35:50.239276,253490,1499564153,38828419,,0.84172981612,0.358969862471,0.252914010337,0.70003314278,0.704093071745,0.0651838625394,0.0997878218774,0.049492852226,-0.38331798595,-0.0210327782536,0.00125410725704,-0.0106457406826,-0.464791204687,-1.33425438404,0.595338225365,1.59302616119,-0.645481944084,-0.285727083683,-0.478847742081
2017/07/09/09:35:50.250174,253491,1499564153,49820216,,0.842430503384,0.354874663416,0.252782457069,0.701416409014,0.702631353002,0.0649678811009,0.100515557853,0.0339932103941,-0.394037126067,-0.0357842960217,-0.031385540166,0.0252347648367,-0.457555325496,-1.53529882431,0.475305438042,1.39433240891,-0.590361952782,-0.388118803501,-0.461212337017
2017/07/09/09:35:50.260254,253492,1499564153,59828006,,0.842863374787,0.352885254979,0.25223831778,0.702011860162,0.702042910429,0.0654473585208,0.100158591102,0.0441441009621,-0.381145571374,-0.0337946928718,-0.018450669935,-0.00314625799377,-0.432607571319,-1.70945847034,0.550044178963,1.52846717834,-0.625352084637,-0.409184157848,-0.434475600719
2017/07/09/09:35:50.269408,253493,1499564153,68828232,,0.843400208395,0.34956226657,0.252013217982,0.703101491369,0.7009072409,0.0652853924024,0.100574102173,0.0571053792563,-0.35617648354,-0.024443882498,0.00768159690105,-0.0492084333513,-0.395460634953,-1.96915757656,0.377921134233,1.53069281578,-0.579543113708,-0.446532309055,-0.392608344555
2017/07/09/09:35:50.280200,253494,1499564153,79827690,,0.843542810871,0.345794593189,0.251814009547,0.704027968702,0.700019427441,0.0649187908968,0.100513536794,0.0494200953303,-0.357206311549,-0.0458269491432,-0.00204766484699,-0.016957145528,-0.346846391582,-1.35091781616,0.309022724628,1.81015694141,-0.568192660809,-0.123682886362,-0.390950322151
2017/07/09/09:35:50.289118,253495,1499564153,88830011,,0.844237083904,0.34233314439,0.25104729727,0.705573739216,0.698415504725,0.0650888178846,0.100722028748,0.0518603854982,-0.36401342407,-0.0369146604538,-0.00286879210591,-0.0327915050481,-0.31550844421,-1.39256596565,0.240488708019,1.87293052673,-0.576882898808,-0.151864737272,-0.371264994144
2017/07/09/09:35:50.299191,253496,1499564153,98835073,,0.844463810492,0.337625773319,0.250641783477,0.706909728602,0.697058774391,0.0641567045133,0.101348990717,0.0339506964586,-0.358265031701,-0.0478105053626,-0.0109997103039,0.00161078990452,-0.285812824659,-1.77915942669,0.284222900867,1.64593291283,-0.58861130476,-0.385951966047,-0.378262788057
2017/07/09/09:35:50.309041,253497,1499564153,108835248,,0.84491478966,0.335028375038,0.250123040644,0.707092930014,0.696878372549,0.0641294644527,0.101328840842,0.0269372402637,-0.371275912386,-0.0592034356328,-0.0578811724427,0.0286680443305,-0.269445137193,-1.48611783981,0.413018077612,1.63481462002,-0.613272964954,-0.314574420452,-0.333767294884
2017/07/09/09:35:50.319270,253498,1499564153,118833714,,0.845093718038,0.331636468798,0.249934474322,0.707960440169,0.6960073825,0.06389365209,0.101406803932,0.035876275268,-0.365579832059,-0.0302909846796,-0.0466356806428,-0.0130936906804,-0.246901912076,-2.31076836586,0.32720053196,1.35254633427,-0.582779943943,-0.68577760458,-0.322686970234
2017/07/09/09:35:50.329331,253499,1499564153,128829503,,0.846045843642,0.327322438422,0.24993365199,0.709436736918,0.69438358895,0.0642104667571,0.10201942789,0.0358947758833,-0.391393954517,-0.0466955874666,-0.0457398108337,-0.00847434597398,-0.282706857798,-2.04904317856,0.151944026351,1.41448414326,-0.535108983517,-0.541631639004,-0.278380930424
2017/07/09/09:35:50.339257,253500,1499564153,138843878,,0.846245825488,0.324322418949,0.249276462542,0.709707944126,0.694090899677,0.0639812551715,0.102268548522,0.0338715692037,-0.401707972327,-0.047119617665,-0.0549595570135,-0.00578302620431,-0.280168730823,-2.10496973991,0.0672105252743,1.39803600311,-0.441469848156,-0.55810624361,-0.232703119516
2017/07/09/09:35:50.350352,253501,1499564153,149823470,,0.84673381245,0.319848088287,0.248627181563,0.710370970154,0.693370770657,0.0635483353187,0.102818618155,0.0325390941355,-0.396635535831,-0.0541962344299,-0.0805466618821,-0.00402740435739,-0.221575286461,-2.15703392029,0.275475680828,1.35907900333,-0.588210701942,-0.561743855476,-0.269632458687
2017/07/09/09:35:50.360304,253502,1499564153,159822157,,0.847168611275,0.316401514458,0.248739073547,0.711306864108,0.692339807782,0.0637723480761,0.103156304962,0.0404779294602,-0.375603545955,-0.0391483931939,-0.0536594086447,-0.0398762762543,-0.199909271423,-2.61417651176,-0.0664115101099,1.05013549328,-0.407752662897,-0.771007657051,-0.175617724657
2017/07/09/09:35:50.369331,253503,1499564153,168833919,,0.846867081987,0.312702696227,0.247661438355,0.712437448741,0.691311447431,0.0629663229879,0.102745347592,0.0293719269682,-0.375885749152,-0.0471901950547,-0.0402443195991,-0.0132784587585,-0.226596951317,-2.85684919357,0.00998957455158,0.923519551754,-0.462692260742,-0.881507277489,-0.183522552252
2017/07/09/09:35:50.380286,253504,1499564153,179829294,,0.847226870066,0.308888888019,0.247301777007,0.713403768059,0.690286885964,0.062876139276,0.102983833172,0.020696935759,-0.41126835366,-0.0601928057773,-0.030353885097,0.0154838405657,-0.295880020623,-2.32844209671,0.0981615036726,1.02436316013,-0.476851642132,-0.648901879787,-0.174620807171
2017/07/09/09:35:50.389282,253505,1499564153,188829953,,0.84759977495,0.304569885457,0.246717560004,0.714405971634,0.689189652454,0.062279902943,0.103744611102,0.0220363756199,-0.394816646362,-0.0495519538444,-0.0399412609533,0.00194654141091,-0.298083808746,-2.13364243507,0.0547981187701,1.10887122154,-0.451108306646,-0.552437067032,-0.191016405821
2017/07/09/09:35:50.400343,253506,1499564153,199821063,,0.847724976301,0.300515322966,0.246416599939,0.71523979891,0.688287254659,0.0616451372613,0.104367438324,0.0225818695695,-0.390534928868,-0.0511502717105,-0.0468117356417,-0.0172676041591,-0.301834547495,-2.12989473343,0.137456834316,1.16809988022,-0.509529590607,-0.49863794446,-0.206805944443
2017/07/09/09:35:50.410071,253507,1499564153,209823591,,0.847665950238,0.296381901252,0.244917165665,0.716421255674,0.687191271461,0.0612459116462,0.103719232318,0.0157757200715,-0.425106691904,-0.0648753943629,-0.0585747228442,0.00587359527577,-0.358043820866,-2.60918498039,0.0529270917177,1.16777610779,-0.42237585783,-0.698262393475,-0.159384310246
2017/07/09/09:35:50.420303,253508,1499564153,219826491,,0.84801251485,0.293173938212,0.244858290291,0.716780049785,0.68672812179,0.0611101312562,0.104385817192,0.0114300261824,-0.384176107252,-0.0600779870291,-0.0387117822699,0.00825961916415,-0.231517329644,-3.22837734222,0.27996981144,0.900256156921,-0.572917640209,-0.973178386688,-0.191586583853
2017/07/09/09:35:50.429240,253509,1499564153,228864597,,0.847904299611,0.289538077994,0.244206834279,0.717777849623,0.685753998707,0.060826570198,0.104098704145,0.0145332603242,-0.403008735939,-0.0567158716237,-0.04657639467,0.0126563780551,-0.215417226592,-3.62198185921,0.15797162056,0.705949902534,-0.496604651213,-1.15468239784,-0.155876785517
2017/07/09/09:35:50.440227,253510,1499564153,239827083,,0.848050770229,0.28429640467,0.243427418688,0.718199815665,0.685285368651,0.0601682829883,0.104655463373,0.00445591883605,-0.421888011475,-0.0538673099215,-0.0843990579431,0.0203204443753,-0.16399739455,-3.91641426086,0.199176684022,0.648938596249,-0.55955272913,-1.27732002735,-0.207460194826
2017/07/09/09:35:50.450256,253511,1499564153,249822869,,0.848347643491,0.28109821063,0.243468374882,0.718833339061,0.684527651421,0.0603697957841,0.105147576535,0.00882212363925,-0.421351935197,-0.0526754932013,-0.0678740232228,-0.00380889221007,-0.202098845309,-2.8209836483,0.285349994898,0.850966513157,-0.556527495384,-0.817803740501,-0.206970989704
2017/07/09/09:35:50.460025,253512,1499564153,259820368,,0.848679446397,0.27810482193,0.243112985488,0.719717114276,0.683522201946,0.0607583542828,0.105418676001,0.0205073333041,-0.406793035408,-0.0452318114902,-0.0456170533606,-0.04623427525,-0.274677132426,-2.17556238174,0.10758664459,1.06623017788,-0.448098421097,-0.524957001209,-0.179476559162
2017/07/09/09:35:50.469325,253513,1499564153,268828650,,0.848925888894,0.27379683436,0.242966677006,0.720823396528,0.682283376723,0.060514793596,0.106023509758,0.0197292689236,-0.39261654138,-0.053514086712,-0.00322575445559,-0.0462421630853,-0.31457710454,-1.80048131943,0.147720858455,1.20360195637,-0.471705317497,-0.300467610359,-0.206944465637
2017/07/09/09:35:50.480122,253514,1499564153,279829687,,0.848754087847,0.26939240253,0.241901462503,0.722093889912,0.68097954566,0.0598830917997,0.106119215325,0.00541486092745,-0.389016423979,-0.0795955813545,-0.0139639460918,0.00193492396276,-0.312523173408,-1.64719104767,0.402510046959,1.28886973858,-0.61305886507,-0.25062456727,-0.26780512929
2017/07/09/09:35:50.490321,253515,1499564153,289827510,,0.848800795557,0.26578859216,0.241093707757,0.723025539838,0.680007052902,0.059699103175,0.106115474017,0.00576217687793,-0.386083837704,-0.0631771327888,-0.0253902646304,-0.0115330438205,-0.313652240859,-2.78800606728,0.287076532841,0.860244691372,-0.588320672512,-0.798782289028,-0.261028051376
2017/07/09/09:35:50.499219,253516,1499564153,298829309,,0.849348061064,0.262157416936,0.240770332694,0.724072521083,0.678761647367,0.0598802686158,0.106845513278,0.0166349576313,-0.42602714828,-0.0640339525981,-0.0456148018644,-0.0419868030957,-0.380426523117,-2.75032281876,0.159721076488,0.791054666042,-0.547645449638,-0.809171915054,-0.216239839792
2017/07/09/09:35:50.508969,253517,1499564153,308828247,,0.849258063931,0.258553013321,0.240061215897,0.725106500031,0.677670886983,0.05968942387,0.106863956632,0.0320147015184,-0.41389037194,-0.0426786242488,-0.0132525990656,-0.0905160418656,-0.359832978774,-2.69513916969,0.165860265493,0.91827827692,-0.556717216969,-0.758905649185,-0.240962952375
2017/07/09/09:35:50.519150,253518,1499564153,318828951,,0.849349050502,0.255245152412,0.239742746649,0.726246990514,0.676427184623,0.0598433923696,0.106912773149,0.0266828063893,-0.395687523465,-0.0419217117889,0.00117687932958,-0.0931045170302,-0.34916127033,-4.01129674911,-2.86482310295,0.790154218674,0.0137571021914,-1.23771393299,-0.0213738679886
2017/07/09/09:35:50.530402,253519,1499564153,329821832,,0.849791630737,0.251130461942,0.239166022686,0.727446802355,0.675025993689,0.0602395141584,0.107388353754,0.0217291695579,-0.423676744545,-0.0509776976121,-0.0145594145794,-0.0787896656899,-0.389609452575,-3.67250418663,-2.53472089767,0.617218971252,0.00343462824821,-1.15864253044,-0.0721854418516
2017/07/09/09:35:50.540231,253520,1499564153,339827196,,0.850058329925,0.246828317522,0.238562229356,0.728812446484,0.673487136393,0.0601717577977,0.107827893082,0.00952611145437,-0.372759633745,-0.0546184135403,0.0197435067061,-0.0577645217607,-0.353825396866,-4.5315747261,-1.83542644978,0.435871899128,-0.0489259362221,-1.5045388937,-0.013419277966
2017/07/09/09:35:50.549126,253521,1499564153,348829491,,0.850317304632,0.243940794644,0.237875694111,0.729850481913,0.672308186746,0.0604888444359,0.107986461115,0.00964190114501,-0.360863222668,-0.0593519469871,0.021543491784,-0.0532429352627,-0.329089649282,-5.49917078018,-2.35611248016,0.543363332748,0.504591226578,-1.89218103886,0.262195467949
2017/07/09/09:35:50.559096,253522,1499564153,358828935,,0.850417418661,0.241022832747,0.237936694061,0.730868180147,0.671160111484,0.0611951644863,0.107846927842,0.0182583693135,-0.378018432159,-0.0495958519237,0.0555267519132,-0.0841531119408,-0.344814469592,-5.47220945358,-1.96591567993,0.775304496288,0.528814792633,-1.810531497,0.30149975419
2017/07/09/09:35:50.570555,253523,1499564153,369824144,,0.850686738006,0.237767497632,0.237326509134,0.731641808122,0.670238808969,0.0614084462931,0.108209085956,0.028913759956,-0.343788221202,-0.0412096525631,0.099218278641,-0.116657223427,-0.339783921018,-5.28790569305,-1.36766922474,0.575211286545,0.312068074942,-1.73431432247,0.201032340527
2017/07/09/09:35:50.580061,253524,1499564153,379827613,,0.850870504709,0.234740808438,0.236088986552,0.732783808983,0.669014156675,0.0618974633821,0.107780571015,0.0318506152943,-0.303952245432,-0.0563912379176,0.0888466724566,-0.111492045368,-0.29362611937,-4.17597007751,1.97046136856,0.150798588991,-1.55784928799,-1.29771769047,-0.540251195431
2017/07/09/09:35:50.590416,253525,1499564153,389864514,,0.851224447515,0.23098560619,0.235783772402,0.734326520595,0.667218060874,0.0624633210715,0.108087713988,0.0326571433875,-0.273707526049,-0.0535472248689,0.12030223973,-0.107016836744,-0.303748075194,-3.84170818329,2.49597215652,0.171960279346,-2.16589975357,-1.23891329765,-0.719632744789
2017/07/09/09:35:50.599264,253526,1499564153,398832446,,0.851659373006,0.227934683262,0.235995300535,0.735917165938,0.665335057351,0.0632407858013,0.108424117929,0.0307697286501,-0.302586678092,-0.0649208908528,0.144417354686,-0.0959831603504,-0.3737078039,-3.16396045685,3.04999041557,0.648748636246,-2.34185171127,-0.998907566071,-0.734816849232
2017/07/09/09:35:50.609044,253527,1499564153,408827851,,0.851440313216,0.22561489336,0.234790477173,0.736963317296,0.664279460185,0.0631723083547,0.107829157434,0.0283378399211,-0.34897284512,-0.0540785595018,0.136896997403,-0.106677797449,-0.454383803495,-3.95369386673,2.12576055527,0.192007780075,-1.75489008427,-1.3307005167,-0.448273986578
2017/07/09/09:35:50.619247,253528,1499564153,418830406,,0.85194906096,0.221868697301,0.23475771365,0.738292884098,0.662662509435,0.063609896098,0.108424153204,0.0227768949181,-0.32379120749,-0.0401375057818,0.0903766431519,-0.100733466824,-0.402632955319,-3.99362182617,0.336112260818,0.323638021946,-0.796300709248,-1.39186298847,-0.134114578366
2017/07/09/09:35:50.629210,253529,1499564153,428828050,,0.85227814109,0.218403020319,0.234260716889,0.73935202719,0.661357815314,0.0637476054755,0.109090159087,0.0168193950207,-0.36635451787,-0.0456216296131,0.0327701536385,-0.0765999309146,-0.41536554063,-3.82119655609,-0.89706414938,-0.00678068585694,-0.377591013908,-1.33009886742,-0.101628065109
2017/07/09/09:35:50.639365,253530,1499564153,438828847,,0.85257506797,0.215848369847,0.234290082087,0.740165516873,0.660337373224,0.0640809100412,0.109559107901,0.00172072764117,-0.385646582041,-0.0591197033526,-0.0109286789907,-0.0373627240196,-0.425645163398,-3.54559731483,0.629298269749,0.484618127346,-0.610033094883,-1.24000275135,-0.172600418329
2017/07/09/09:35:50.649322,253531,1499564153,448830959,,0.852050544416,0.212547785977,0.233433885673,0.741773843632,0.658665036649,0.0637766432666,0.108924167076,0.00961946766304,-0.32651698913,-0.0358368357366,0.0107097455875,-0.0656395075692,-0.378117644656,-4.33268976212,0.278494566679,0.656203985214,-0.675769209862,-1.4867503643,-0.216080203652
2017/07/09/09:35:50.659286,253532,1499564153,458830197,,0.852395137026,0.208815731253,0.232974999681,0.743376387647,0.656784073865,0.0639308083532,0.10926608966,0.00698624996434,-0.328154405132,-0.0505787516329,0.0251964900653,-0.046162967134,-0.383398722039,-4.21108341217,-0.0106823146343,0.736547350883,-0.624975562096,-1.40668714046,-0.176280289888
2017/07/09/09:35:50.669163,253533,1499564153,468829250,,0.852261987978,0.205141277836,0.231815247189,0.744953725856,0.65507827595,0.0639540360333,0.108748701081,-0.00450332436037,-0.354526999752,-0.0617772209826,0.0578100787082,-0.0204728133799,-0.444128570023,-6.10031843185,-0.709233403206,0.00655182823539,-0.340416520834,-2.06321001053,-0.0120900049806
2017/07/09/09:35:50.680533,253534,1499564153,479826731,,0.852163394653,0.201898310597,0.23157938165,0.746191440374,0.653638313568,0.0638232377321,0.109004053472,-0.0044836121258,-0.31338743684,-0.0777533787022,0.0730898904525,0.00878565376433,-0.406644735687,-5.74588537216,-0.944837331772,0.425276845694,-0.218489348888,-1.90440499783,0.0335861593485
2017/07/09/09:35:50.694381,253535,1499564153,488828763,,0.852469209964,0.198654739909,0.230885870455,0.747249614382,0.652346821626,0.0636384176888,0.109598311644,-0.00589371815942,-0.35348990355,-0.0568588536395,0.0279201739976,-0.00655679487124,-0.427541311048,-5.53970384598,-0.0250377655029,0.0947081893682,-0.40100389719,-1.92869699001,-0.0130047351122
2017/07/09/09:35:50.699363,253536,1499564153,498829276,,0.852116509933,0.195471453327,0.2302804822,0.748383444543,0.651116029501,0.0628413213599,0.109640797108,-0.0106603887737,-0.342044865265,-0.060933454148,-0.0211010399233,0.0154772788151,-0.388898278238,-5.93856143951,0.169369444251,0.308968126774,-0.550545752048,-2.04408407211,-0.0907312855124
2017/07/09/09:35:50.710315,253537,1499564153,509826382,,0.852023348305,0.191875948367,0.229864272453,0.749703860863,0.649574317088,0.0625450593997,0.109933812502,-0.0150835843171,-0.346355904851,-0.0477246539284,-0.05354874481,0.0204877419008,-0.387133477783,-6.39109754562,-0.368259966373,-0.275499463081,-0.496688365936,-2.21813869476,-0.0819564312696
2017/07/09/09:35:50.720102,253538,1499564153,519821249,,0.85151410661,0.188366472909,0.229382291201,0.751086954833,0.648044251996,0.06180218669,0.109943273806,-0.0160558863603,-0.348162798591,-0.0629338336964,-0.0598175716807,0.0294790095645,-0.395434950449,-6.27441358566,-0.401297479868,0.0640087351203,-0.447394669056,-2.0779633522,-0.105218335986
2017/07/09/09:35:50.730358,253539,1499564153,529832149,,0.85170566644,0.185553417074,0.228371778016,0.751828399194,0.647185383619,0.0617068014198,0.109988217797,-0.0283161067196,-0.349976234268,-0.0710147605154,-0.0567878759471,0.0610515718046,-0.392127412882,-6.40561294556,0.299851208925,-0.429025322199,-0.589859187603,-2.1326611042,-0.121428623796
2017/07/09/09:35:50.740224,253540,1499564153,539829117,,0.851185842312,0.183265813302,0.227985449563,0.752685211554,0.646255927406,0.0610188213057,0.109977052362,-0.0227065854542,-0.337613452377,-0.0720818455676,-0.067199025966,0.0582385334294,-0.360271898262,-7.26447725296,0.567357301712,-0.250982105732,-0.542828381062,-2.3761677742,-0.0688812881708
2017/07/09/09:35:50.750241,253541,1499564153,549832740,,0.851205853454,0.179417360576,0.227219629334,0.753962392104,0.644753083241,0.0602604199568,0.11046653217,-0.0261288091154,-0.32741173818,-0.0616431155043,-0.0954299422065,0.0580236456679,-0.322756370274,-7.97278118134,0.859416842461,-0.3887411654,-0.765976548195,-2.65617823601,-0.169442415237
2017/07/09/09:35:50.759301,253542,1499564153,558827717,,0.850839973506,0.175181110619,0.226611482649,0.755140492519,0.643370720777,0.0590483467244,0.111131655949,-0.0173002301697,-0.352311609118,-0.0613351693229,-0.108990030704,0.0367319911543,-0.355385022773,-8.51002788544,-0.0273226499557,-0.233211666346,-0.6606580019,-2.81713247299,-0.141948997974
2017/07/09/09:35:50.770180,253543,1499564153,569829697,,0.850242669279,0.171968135263,0.225193804741,0.756066706613,0.642409707874,0.0579129625246,0.110990950768,-0.032047879114,-0.380913315921,-0.0713688551312,-0.135836669104,0.0659109171851,-0.377390943375,-8.9845161438,0.840825676918,-0.872061610222,-0.832073569298,-3.05909609795,-0.193253159523
2017/07/09/09:35:50.779002,253544,1499564153,578828477,,0.849951669166,0.16943280436,0.224569196886,0.757319867709,0.640992702778,0.0574800386883,0.110864864183,-0.0313483468806,-0.350476663043,-0.0873790123188,-0.104405094833,0.0787583142952,-0.345635032686,-9.23323249817,0.674588561058,-0.715039432049,-0.735331237316,-3.12038660049,-0.167254716158
2017/07/09/09:35:50.790360,253545,1499564153,589831481,,0.850165070051,0.166505170427,0.224535212441,0.758264884425,0.639773611834,0.0574908114877,0.111440106082,-0.0243424233259,-0.32507258504,-0.0707317425458,-0.0474645853644,0.038590972634,-0.364480378869,-9.10035419464,1.17563533783,-0.618483006954,-0.669013798237,-3.17477297783,-0.150593847036
2017/07/09/09:35:50.799032,253546,1499564153,598829043,,0.850098848748,0.163122345273,0.223531869414,0.759439755368,0.63834699051,0.0573409051837,0.111697798837,-0.022232662536,-0.303844901769,-0.0933392352876,-0.0222551120372,0.053319379219,-0.342638887687,-8.5768661499,0.722350955009,-0.593275010586,-0.572015523911,-2.98163700104,-0.140038579702
2017/07/09/09:35:50.809274,253547,1499564153,608828796,,0.850447451604,0.16088516804,0.222910208022,0.760200249809,0.637398946734,0.0576864035805,0.111760644841,-0.007948233879,-0.288348302453,-0.0955971645138,0.0227296564173,0.00751313665601,-0.335206223649,-9.44916439056,0.504377603531,-0.240664899349,-0.377362519503,-3.25079679489,0.00342273712158
2017/07/09/09:35:50.819238,253548,1499564153,618839332,,0.850337514819,0.15769345782,0.221712635282,0.761339182145,0.636057012447,0.0572926097205,0.11185563696,0.00815862737612,-0.282038153118,-0.0848274066981,0.0331818566593,-0.0347682977852,-0.338550063639,-9.85254001617,0.472790658474,-0.485302269459,-0.409654557705,-3.37879705429,0.0384611189365
2017/07/09/09:35:50.830165,253549,1499564153,629826503,,0.85013626509,0.155323944742,0.220405632876,0.762492784414,0.634731343053,0.0571911314257,0.111579793642,0.0117143552388,-0.274858761516,-0.097584682345,0.0219972861671,-0.041100646369,-0.331862712587,-10.8374290466,0.0520698577166,-0.20583692193,-0.322823882103,-3.7803633213,0.121032848954
2017/07/09/09:35:50.840319,253550,1499564153,639848910,,0.85058497439,0.153377700029,0.219359586761,0.763203573402,0.633816534694,0.0577057660179,0.111655499026,-0.00289898248747,-0.294022010119,-0.110663177691,0.0246534896075,-0.01295033743,-0.35174273981,-10.8209066391,1.49404883385,-0.657631933689,-0.583798408508,-3.90040421486,0.0619267821312
2017/07/09/09:35:50.849253,253551,1499564153,648827739,,0.850242341274,0.150101705956,0.218557454651,0.764409201707,0.632380980231,0.0570709832557,0.111873906956,0.0051324795873,-0.271049983223,-0.103944774131,0.0345164684561,-0.0306361859179,-0.311792838342,-10.9345493317,0.627960562706,-0.680548489094,-0.502656340599,-4.0009021759,0.12354850769
2017/07/09/09:35:50.860362,253552,1499564153,659822911,,0.850849259414,0.147101110324,0.217916657607,0.765590505509,0.630825756181,0.0576254814897,0.112291349157,0.012013719618,-0.251519098229,-0.107877580435,0.0483547070209,-0.0369036497662,-0.299957121376,-11.0815925598,0.259242504835,-0.836490809917,-0.487994641066,-4.19079732895,0.114597022533
2017/07/09/09:35:50.869801,253553,1499564153,669821262,,0.850642288782,0.144771198608,0.216692778132,0.766434515058,0.629852036884,0.0576452729523,0.111989143522,0.0164066696347,-0.246274762382,-0.102840832829,0.050237620609,-0.0456358097839,-0.306721178669,-10.9067192078,0.175058305264,-1.45509839058,-0.37905061245,-4.0859618187,0.16370934248
2017/07/09/09:35:50.880248,253554,1499564153,679827770,,0.851120339266,0.142758410654,0.215459156467,0.766985178771,0.629128850733,0.0579855011343,0.112108458103,0.0186428468597,-0.24738674208,-0.104203525339,0.0587915155271,-0.0543175075129,-0.305561077886,-10.6049261093,0.502549827099,-1.60092735291,-0.506196200848,-3.95803499222,0.105986371636
2017/07/09/09:35:50.889126,253555,1499564153,688828273,,0.850916764391,0.140890607433,0.214176072143,0.768001093783,0.627986643567,0.0578862234514,0.111607708445,0.0262019861009,-0.252633807101,-0.102338548586,0.0506451094151,-0.0740570371194,-0.302632503355,-9.84448242188,1.00324070454,-1.4595811367,-0.590635359287,-3.60231351852,0.0570292621851
2017/07/09/09:35:50.899132,253556,1499564153,698829003,,0.85170385914,0.138520179554,0.213425635078,0.768999787196,0.626601521173,0.0586623724519,0.112109709724,0.0189795726543,-0.249334551669,-0.110127670909,0.0555861863616,-0.053408356683,-0.309308108922,-9.068318367,0.839038193226,-1.32337474823,-0.596507906914,-3.30871534348,0.0297199636698
2017/07/09/09:35:50.909442,253557,1499564153,708827615,,0.851763889049,0.135951966432,0.213152009048,0.769823946745,0.625543826373,0.0585011557902,0.112443884121,0.0188558398724,-0.233950957137,-0.0955345504809,0.0671826004322,-0.0580661945652,-0.307125540939,-9.32824230194,0.922526478767,-0.78293299675,-0.559734284878,-3.33249211311,0.0377339869738
2017/07/09/09:35:50.919067,253558,1499564153,718829828,,0.8514066864,0.133555947643,0.211480258627,0.77098672926,0.624218676695,0.0580699385908,0.112064219099,0.0181573839306,-0.241129141446,-0.0948398473097,0.0352643520801,-0.0398764054366,-0.301713949031,-9.56113910675,0.0878078043461,-1.36754369736,-0.450035721064,-3.43044400215,0.0684859901667
2017/07/09/09:35:50.929037,253559,1499564153,728827833,,0.851947657755,0.131716812535,0.210770250995,0.771772898816,0.623182176037,0.0587532784789,0.112065250599,0.011811074499,-0.244403661008,-0.115775651965,0.031524070908,-0.0127457210566,-0.309930044988,-9.79795742035,0.46360450983,-1.34729230404,-0.410508811474,-3.59860777855,0.114033907652
2017/07/09/09:35:50.940429,253560,1499564153,739829698,,0.852164408325,0.129586963277,0.209794859304,0.772388076309,0.622409791829,0.0586659719163,0.112165120917,0.00720260232529,-0.23053853445,-0.108263591551,0.0369534817451,-0.00126453304539,-0.277680628979,-9.63051128387,1.246976614,-1.22892689705,-0.533929765224,-3.58487033844,0.0705760419369
2017/07/09/09:35:50.949337,253561,1499564153,748829295,,0.852077651212,0.127152751806,0.208822615419,0.773366892722,0.621187069441,0.0584744890745,0.112298745,0.0237896500084,-0.230175451079,-0.0961239921189,0.0148145321394,-0.0364806700984,-0.25857873755,-9.74601078033,1.41972208023,-0.720221877098,-0.525103926659,-3.58013987541,0.0590454190969
2017/07/09/09:35:50.959338,253562,1499564153,758829124,,0.85226682578,0.125867209374,0.207425903267,0.773916640872,0.620600203722,0.0585350745724,0.11172316307,0.0167285169298,-0.238294765646,-0.102737233838,0.01987360283,-0.0218956067543,-0.284045032411,-9.67677783966,1.41764271259,-0.981783747673,-0.502446234226,-3.45952010155,0.0608869045973
2017/07/09/09:35:50.970230,253563,1499564153,769834863,,0.852335779205,0.12286835735,0.206650195731,0.775351219592,0.618781487118,0.0585954987668,0.111832575764,0.0165130156885,-0.23834208131,-0.0960918907485,0.0473545096552,-0.0260796486097,-0.300124164771,-8.42185878754,1.13269102573,-0.847162365913,-0.524386107922,-3.01395893097,-0.0180414319038
2017/07/09/09:35:50.980523,253564,1499564153,779822450,,0.852478744465,0.120894094209,0.205493529951,0.775778656163,0.61828579642,0.0583785244827,0.111723312103,0.00150588131691,-0.237967650942,-0.0995573349138,0.0500991749703,0.00358071536128,-0.318292251535,-8.8471288681,1.52102398872,-1.08540606499,-0.660543859005,-3.20982336998,-0.0290358364582
2017/07/09/09:35:50.989266,253565,1499564153,788829083,,0.852905204232,0.119440245333,0.204757827263,0.77674469619,0.617065536719,0.0587706693842,0.111551820935,0.011972445095,-0.223975984577,-0.0951758475696,0.0570976085674,-0.00375650576245,-0.292100591253,-8.25358295441,1.71363854408,-0.97432243824,-0.657287955284,-3.05764818192,-0.0391162782907
2017/07/09/09:35:50.999302,253566,1499564153,798832678,,0.852710951362,0.117507079608,0.203883204615,0.777523338469,0.616144134112,0.0587298251045,0.111241502051,0.00661053287291,-0.216736214644,-0.104847101053,0.0747620781213,0.0176928149351,-0.292193442498,-7.6268696785,1.58316063881,-1.13187468052,-0.690066218376,-2.70858001709,-0.091881737113
2017/07/09/09:35:51.009326,253567,1499564153,808832378,,0.852943714315,0.114314654173,0.203023035079,0.778841530112,0.614439920136,0.0586008479315,0.111514107347,0.0132230069358,-0.223137411731,-0.0887313235028,0.056002904005,-0.00456215817739,-0.286768729709,-7.65442991257,0.952582478523,-0.978303015232,-0.506316304207,-2.69167852402,-0.0336210876703
2017/07/09/09:35:51.019866,253568,1499564153,819821647,,0.852977731872,0.112618353718,0.20202695018,0.779460558877,0.613751448241,0.0586638955814,0.110945681722,0.0212453431279,-0.220010214783,-0.0915185067811,0.0747323066536,-0.0154556055325,-0.29356773867,-7.00722694397,1.21233057976,-1.19620764256,-0.508935749531,-2.40140080452,-0.0717063099146
2017/07/09/09:35:51.029161,253569,1499564153,828830675,,0.852732788706,0.110805864686,0.200502879719,0.780574887933,0.612498032449,0.0582790739986,0.11023862349,0.0115205484165,-0.229771591251,-0.0916201408798,0.0680365819556,0.00443369534755,-0.316491794847,-7.37211608887,1.19274544716,-1.13940727711,-0.583633899689,-2.56945824623,-0.148424327374
2017/07/09/09:35:51.039229,253570,1499564153,838831349,,0.853613476926,0.108093620525,0.200905583922,0.78132790233,0.611304582888,0.0589040847041,0.111192287436,-0.000143452979202,-0.238604667148,-0.0975883985071,0.0411264528616,0.0365157537964,-0.312222407499,-6.96902608871,1.68305921555,-0.642688155174,-0.664565265179,-2.5197353363,-0.154366597533
2017/07/09/09:35:51.049046,253571,1499564153,848844012,,0.853597320171,0.105584347715,0.199688276591,0.782269327483,0.610135155383,0.058524316262,0.111196653952,0.0230604137652,-0.219331871273,-0.0719929921675,0.0383106593244,-0.0213394749779,-0.27958980821,-7.49699735641,1.03488314152,-0.789353728294,-0.565054953098,-2.70762610435,-0.120627880096
2017/07/09/09:35:51.059187,253572,1499564153,858829425,,0.85370201242,0.103997926001,0.199065957316,0.78302080156,0.609239766172,0.0587347689777,0.110704826237,0.0215399597685,-0.24021180757,-0.0846172238108,0.02191155368,-0.0160855143924,-0.283614444547,-7.20884895325,1.21702647209,-0.789494693279,-0.527811586857,-2.62233018875,-0.107134848833
2017/07/09/09:35:51.070029,253573,1499564153,869829794,,0.854032790179,0.10078224121,0.198341794167,0.784297554847,0.607519060223,0.0586381555261,0.111173304545,0.0141594922396,-0.225360648718,-0.0876758025005,0.0379686003591,0.0187284518855,-0.291591169311,-6.79221868515,0.85109770298,-0.784086823463,-0.497223556042,-2.4640955925,-0.136740803719
2017/07/09/09:35:51.080030,253574,1499564153,879825750,,0.854353081626,0.098962174322,0.197619590122,0.785023063903,0.606585097324,0.0586126530415,0.111165937894,0.013781989082,-0.255162564664,-0.0889515281224,0.0301202209663,0.00813440427754,-0.334070310294,-6.48725223541,1.31009709835,-0.362632542849,-0.472715497017,-2.37585449219,-0.122180968523
2017/07/09/09:35:51.090548,253575,1499564153,889820893,,0.855003592437,0.0971593749205,0.197434149468,0.785972662634,0.605317692631,0.0593664285322,0.110964371504,0.019530920837,-0.259354471981,-0.0737539813723,0.0294704348866,-0.0108999333348,-0.329104977478,-5.73401165009,2.00469994545,-0.886183619499,-0.660108804703,-2.16804099083,-0.227584183216
2017/07/09/09:35:51.100329,253576,1499564153,899822637,,0.854247835418,0.0941429046857,0.195519596425,0.786975228767,0.604236160676,0.0581624795602,0.110389208762,0.0173802945754,-0.222652623974,-0.0804256300925,0.0517340666187,0.0087773192549,-0.286008352512,-5.43009233475,1.26238012314,-1.1651455164,-0.599721074104,-2.04499268532,-0.25787627697
2017/07/09/09:35:51.110009,253577,1499564153,909824621,,0.855013330809,0.0923106091512,0.195185494258,0.787762548682,0.603118448118,0.0587620654873,0.11056818753,0.0454186031631,-0.215372967755,-0.0560362961202,0.0826204015916,-0.0614831478806,-0.322359825502,-5.39403438568,1.40040898323,-0.921504855156,-0.592624545097,-2.03448152542,-0.234993562102
2017/07/09/09:35:51.120028,253578,1499564153,919832623,,0.855220695785,0.0898274058247,0.194825838427,0.788765696384,0.601794392982,0.0588929157439,0.110561337088,0.0366954372593,-0.236075895351,-0.0509272637059,0.0452969428674,-0.0477920107565,-0.295740535933,-4.94552850723,1.13621854782,-0.461670815945,-0.600457489491,-1.85787022114,-0.271948873997
2017/07/09/09:35:51.129305,253579,1499564153,928828600,,0.855648008762,0.0876163819457,0.194436395634,0.789365586443,0.600936188381,0.0591443894942,0.110813400024,0.0295183354757,-0.24052537206,-0.0495732232633,0.0710459195619,-0.0483287650402,-0.325548654827,-4.98686075211,1.03825521469,-0.541525006294,-0.614596366882,-1.87783920765,-0.267929822206
2017/07/09/09:35:51.140480,253580,1499564153,939829745,,0.856371320393,0.0852332588242,0.194119828023,0.790472626336,0.599401415666,0.0598395098393,0.110861187859,0.0314131297293,-0.254411783563,-0.0552636745734,0.05008179637,-0.0399325519421,-0.311523013113,-4.43865633011,0.436376363039,-0.67057287693,-0.377436757088,-1.7680157423,-0.184075266123
2017/07/09/09:35:51.149196,253581,1499564153,948833047,,0.856256497049,0.0823271171335,0.193453119227,0.791475468981,0.598128324926,0.0595561176091,0.110734627728,0.0573900969764,-0.244294933601,-0.0338493632845,0.0434060809355,-0.102464626786,-0.276164959902,-5.26945114136,0.141662240028,-0.627498805523,-0.316831737757,-2.07364583015,-0.127354383469
2017/07/09/09:35:51.159240,253582,1499564153,958839846,,0.856613005375,0.0814560963347,0.192441293334,0.791217406601,0.598567877247,0.0594317319315,0.110269583564,0.0529967050932,-0.226858545279,-0.0376834510797,0.0270929342213,-0.0728041311335,-0.175460780204,-4.9926815033,1.80642664433,-1.36557161808,-0.821328520775,-2.0402276516,-0.34737932682
2017/07/09/09:35:51.169901,253583,1499564153,969825604,,0.857942344251,0.0786259339896,0.193233788948,0.79169789749,0.597593847934,0.0605132315086,0.111508658114,0.0405371250455,-0.226359135847,-0.0445328444639,0.00325215921596,-0.0343517283012,-0.100527521247,-4.43208122253,1.45907950401,-0.62909913063,-0.793979644775,-1.90232241154,-0.410876959562
2017/07/09/09:35:51.180118,253584,1499564153,979827984,,0.857731233686,0.0767811240449,0.192475677937,0.791750670081,0.597664737575,0.0600022739588,0.111029117833,0.0478719310305,-0.240461373677,-0.0214765890884,-0.00872504347678,-0.0649908833216,-0.103489658683,-4.67196178436,1.34052205086,-1.07603359222,-0.663242936134,-1.9779548645,-0.339767336845
2017/07/09/09:35:51.189404,253585,1499564153,988853131,,0.85793492595,0.0739625525821,0.192021102471,0.791899285037,0.597431436728,0.0597557935488,0.111357289409,0.0382978573534,-0.236632183262,-0.0416778101482,0.00320764342288,-0.0347063822487,-0.070118397891,-4.21967935562,0.580434322357,-1.05583274364,-0.462816923857,-1.87141084671,-0.309849798679
2017/07/09/09:35:51.200142,253586,1499564153,999822835,,0.858883758138,0.0721000345877,0.192258533473,0.791592386709,0.597676725758,0.0604761081757,0.111833202278,0.042493676244,-0.232802493634,-0.034243754822,-0.0245980165477,-0.0388940566901,0.00591101494824,-3.10377144814,0.945405483246,-0.845974564552,-0.541553854942,-1.56542575359,-0.333051085472
2017/07/09/09:35:51.209233,253587,1499564154,8851363,,0.859609595838,0.0700700486361,0.192268305383,0.791433333563,0.597759296514,0.060867646736,0.112304191986,0.0373943737292,-0.246846069413,-0.0348178365757,-0.0549505376285,-0.0302292109682,0.0319317437178,-3.58197116852,1.2163772583,-0.34649643302,-0.504849255085,-1.81073570251,-0.255866795778
2017/07/09/09:35:51.219941,253588,1499564154,19822374,,0.859576200963,0.0676280345908,0.191003232556,0.790898887841,0.598526692161,0.0601984541564,0.112342752765,0.0515151514467,-0.252150703103,-0.0111091969912,-0.0679986491959,-0.0767475984025,0.0812099259559,-3.23827528954,1.69368767738,-1.38993620872,-0.743246674538,-1.66858947277,-0.325733810663
2017/07/09/09:35:51.229859,253589,1499564154,29822534,,0.859725012244,0.0655298984411,0.190074653918,0.790419356337,0.599241500375,0.0600047708443,0.112010235388,0.0397350087722,-0.231137676934,-0.0346471698963,-0.0658626380837,-0.018691867226,0.150929188192,-3.27040481567,1.18681168556,-2.09501743317,-0.616136193275,-1.69047665596,-0.247575059533
2017/07/09/09:35:51.239208,253590,1499564154,38829574,,0.860374749458,0.0631199677976,0.19105903035,0.789708165456,0.59994156632,0.0602755283862,0.113128206435,0.0219157812448,-0.238744145889,-0.0520593410358,-0.0730272156181,0.0261009387191,0.17163234604,-2.71378016472,1.03765034676,-1.08104419708,-0.547963559628,-1.51275396347,-0.27943789959
2017/07/09/09:35:51.250242,253591,1499564154,49820877,,0.860504913696,0.0605178930745,0.190362708924,0.788918394835,0.600986483216,0.0599642205401,0.113257695268,0.0355855195848,-0.226548054316,-0.0266945669838,-0.0903066245729,-0.0102880647918,0.257162367694,-2.98273515701,1.02027571201,-0.991053342819,-0.458238124847,-1.63846898079,-0.218346774578
2017/07/09/09:35:51.259124,253592,1499564154,58828300,,0.860727881946,0.0586532469648,0.190407497906,0.788114319821,0.602013622397,0.059782086547,0.113496781758,0.0342776119841,-0.238849903317,-0.0191509483614,-0.107173125267,-0.0139419910746,0.266578958124,-3.66096377373,1.28056406975,-1.19858443737,-0.587351322174,-1.82640147209,-0.250872075558
2017/07/09/09:35:51.268993,253593,1499564154,68831296,,0.861096334855,0.0562336038595,0.189565288789,0.787168971348,0.603229254114,0.0595392560337,0.113730182971,0.0091246578111,-0.245069770101,-0.0480107612526,-0.106322524451,0.0556789977037,0.297364258858,-2.82675623894,0.994294166565,-0.916888952255,-0.460167109966,-1.53317403793,-0.23735922575
2017/07/09/09:35:51.280255,253594,1499564154,79822748,,0.860897430363,0.053259522181,0.189047290687,0.78597136317,0.604801391004,0.0590448338319,0.113921031047,0.0130735107825,-0.255030920737,-0.0470892345739,-0.110087402593,0.0418123627632,0.335807116591,-3.31994318962,0.926061987877,-1.18519055843,-0.452669978142,-1.65963995457,-0.178352952003
2017/07/09/09:35:51.290451,253595,1499564154,89821764,,0.860705632975,0.0507861716255,0.189179924245,0.784706753805,0.606466696298,0.0581789339556,0.114230768437,0.00911878698912,-0.271482034139,-0.0315702401393,-0.151515339257,0.0396034073295,0.361524901324,-3.19651770592,1.33961856365,-0.66992264986,-0.440904587507,-1.50715255737,-0.170375302434
2017/07/09/09:35:51.300345,253596,1499564154,99827163,,0.860682743043,0.0491356404103,0.188237942307,0.783063754493,0.608692840511,0.057780833839,0.113866402203,-0.0039618545848,-0.236224222916,-0.0423791200112,-0.136871354319,0.0920822086476,0.446453627432,-2.429885149,1.52570319176,-1.28403007984,-0.493948876858,-1.16737735271,-0.225858837366
2017/07/09/09:35:51.309150,253597,1499564154,108829371,,0.860694670299,0.0467859437567,0.187972392305,0.781797605485,0.610289744724,0.0573624851572,0.114229929701,0.00133419346564,-0.230892112788,-0.0454401607407,-0.135228139005,0.0945925447272,0.477968316441,-1.96914899349,0.864959359169,-1.38684177399,-0.372502833605,-1.00501263142,-0.228092730045
2017/07/09/09:35:51.319915,253598,1499564154,119829925,,0.859988999981,0.0440091266624,0.186967908583,0.780075054351,0.612660365296,0.0559467863702,0.114018171658,-0.012984070481,-0.253544184695,-0.0403784701605,-0.15319614187,0.113920847963,0.493155561296,-2.31677532196,0.281046152115,-1.17616963387,-0.174797311425,-1.09134674072,-0.159467041492
2017/07/09/09:35:51.330154,253599,1499564154,129822485,,0.859799590736,0.0410399294363,0.186959423878,0.778863965533,0.614222734343,0.055408191056,0.114154667776,-0.0336516641653,-0.272085109014,-0.0426300630507,-0.181306200215,0.157629799361,0.506439197083,-1.90360450745,0.455843001604,-0.911361277103,-0.171188861132,-0.955648064613,-0.171244293451
2017/07/09/09:35:51.340354,253600,1499564154,139822375,,0.86009063931,0.0402249724222,0.186617365089,0.776770263226,0.616947505288,0.0554578196587,0.11370208497,-0.0273904836065,-0.257655315409,-0.0415985572008,-0.144917240841,0.149299171771,0.523750020392,-1.60975146294,1.01744008064,-0.751256465912,-0.272059321404,-0.844789206982,-0.178298726678
2017/07/09/09:35:51.350454,253601,1499564154,149823938,,0.85987160345,0.0367941734835,0.186231891731,0.774980308302,0.619172644246,0.0542590098784,0.114397194934,-0.0300467129667,-0.230640615386,-0.047437864096,-0.128657030032,0.170440389399,0.594519235721,-2.21778964996,1.18208837509,-0.978445291519,-0.501295149326,-1.12096142769,-0.197104409337
2017/07/09/09:35:51.359291,253602,1499564154,158835536,,0.859299357665,0.0348934301212,0.185685649837,0.773315354363,0.621421486067,0.0533860156081,0.11387990472,-0.0276991318745,-0.239722421595,-0.0308267138908,-0.14473720417,0.158027527677,0.602840025591,-2.50065469742,0.777467131615,-0.898662984371,-0.411286592484,-1.14493668079,-0.145213991404
2017/07/09/09:35:51.370274,253603,1499564154,169823512,,0.859047833638,0.0319167169335,0.185560485616,0.771498231319,0.623699771003,0.0528622813632,0.113994096036,-0.0413261158821,-0.253227433764,-0.0520194098588,-0.161337541478,0.189658901216,0.621044997878,-2.00271916389,0.523805439472,-0.619703412056,-0.199359744787,-0.876450061798,-0.0712262243032
2017/07/09/09:35:51.380136,253604,1499564154,179829019,,0.8580330817,0.0295587672159,0.184286767857,0.769537388775,0.626374796165,0.0513471115012,0.113270897181,-0.0468361413557,-0.256850312035,-0.0471525278417,-0.168067404155,0.197199071847,0.613234140081,-2.3196182251,0.560869157314,-0.944257438183,-0.212764203548,-0.91517072916,-0.100545749068
2017/07/09/09:35:51.389380,253605,1499564154,188828478,,0.858120135936,0.0283731110696,0.184035239469,0.767539732365,0.628882830297,0.0511486188175,0.113017537542,-0.0317564426935,-0.241912448175,-0.0356891247913,-0.15707248662,0.165305052593,0.656796950279,-1.73553442955,0.795252799988,-0.0595294423401,-0.317326426506,-0.567119598389,-0.198065936565
2017/07/09/09:35:51.400162,253606,1499564154,199820788,,0.856919089108,0.0244068989455,0.183575759757,0.765791364355,0.63117260621,0.0497710982258,0.112727836982,-0.0312718153997,-0.246336737142,-0.0345647013458,-0.16958092442,0.162810426413,0.673799901441,-1.89031660557,0.359321594238,-0.424935787916,-0.261736124754,-0.536703884602,-0.169331341982
2017/07/09/09:35:51.409046,253607,1499564154,208849450,,0.857073528118,0.0227308629707,0.183527897282,0.763567268887,0.633855290596,0.0492499586623,0.112990875916,-0.047614606257,-0.254425156777,-0.0382841974216,-0.169641561053,0.197092884692,0.66082047446,-2.30717778206,0.768223166466,-0.0231318809092,-0.426628947258,-0.787536203861,-0.202081635594
2017/07/09/09:35:51.419073,253608,1499564154,218842242,,0.856564189998,0.0196627602303,0.183323536322,0.761481719241,0.636426346173,0.0485598674873,0.112911631062,-0.0371955594185,-0.265488978288,-0.0282111447119,-0.194613152306,0.166903632381,0.670042546545,-2.79292416573,0.578934848309,0.054295707494,-0.45562517643,-0.928674578667,-0.177194550633
2017/07/09/09:35:51.429903,253609,1499564154,229825719,,0.856389909859,0.0175428458655,0.183044835823,0.759142110059,0.639241470817,0.0476170563863,0.113164546848,-0.0497617241952,-0.259746626592,-0.0380165043333,-0.172842892094,0.19028602073,0.68143182734,-1.87961602211,0.875023365021,0.0499679557979,-0.432327151299,-0.630685389042,-0.140299499035
2017/07/09/09:35:51.439248,253610,1499564154,238834485,,0.856320579081,0.0154687665599,0.182796743576,0.758021945796,0.640592966587,0.0474921958118,0.113083474422,-0.0374788845063,-0.244806931222,-0.0329166442278,-0.158786320442,0.160448034881,0.638263814752,-1.07510817051,1.06165361404,-0.338325083256,-0.409896582365,-0.372734546661,-0.182101368904
2017/07/09/09:35:51.450316,253611,1499564154,249826299,,0.856268419114,0.0128413390499,0.182686264483,0.75650984672,0.64234422786,0.0468774541486,0.113530828604,-0.0425395451458,-0.259838345405,-0.058422407867,-0.103831329957,0.14590390928,0.465245662285,-0.352796435356,0.529361486435,0.408348709345,-0.191207766533,-0.0982008501887,-0.162080571055
2017/07/09/09:35:51.459249,253612,1499564154,258828901,,0.855680845148,0.0108572989134,0.181877562291,0.756323926286,0.642698310697,0.0465891257312,0.112882475692,-0.00938150756954,-0.244374996141,-0.028228438182,-0.101089989118,0.056075033283,0.359784024756,-1.26148378849,0.266513288021,0.160257816315,-0.0479075685143,-0.351563364267,-0.039650991559
2017/07/09/09:35:51.470104,253613,1499564154,269824093,,0.855626194528,0.00831471637677,0.181377697696,0.754066727705,0.64536072256,0.046030278551,0.113022658794,-0.0239692440448,-0.255335056187,-0.0347355654575,-0.0762402273785,0.0659837400129,0.280799850707,-1.71512115002,0.367593497038,0.303472280502,-0.16366301477,-0.544871151447,-0.0184517297894
2017/07/09/09:35:51.480289,253614,1499564154,279836503,,0.85552159038,0.00538518876675,0.18159939698,0.752278351792,0.647387094027,0.0457554125754,0.113462214557,-0.0157047936627,-0.272672494624,-0.0221537354093,-0.160199719254,0.0668871878985,0.506801970982,-3.58748078346,0.507879257202,0.304793536663,-0.353077083826,-1.23403930664,0.034323874861
2017/07/09/09:35:51.490306,253615,1499564154,289824184,,0.855376539012,0.00297091341528,0.181044278272,0.750270000993,0.649725780119,0.0451270671656,0.113643671477,-0.0133784514228,-0.252614132373,-0.0126019003075,-0.166145524523,0.077216090704,0.640106266229,-3.32585501671,0.651325643063,-0.181229069829,-0.484361261129,-1.245439291,-0.0481550209224
2017/07/09/09:35:51.499413,253616,1499564154,298827915,,0.85509672908,0.00125528131255,0.180627739813,0.74812365554,0.652267716312,0.0445168537951,0.113472780904,-0.0187923873034,-0.24818854691,-0.0329103892629,-0.171909415027,0.100344356153,0.668142257884,-2.25264716148,0.748190522194,-0.127800926566,-0.380508929491,-0.884371578693,-0.0305577144027
2017/07/09/09:35:51.510426,253617,1499564154,309832875,,0.854503128753,-0.00171033898969,0.180043040778,0.746480842571,0.654191632193,0.0438496917265,0.113476273198,-0.0245001362482,-0.259425458252,-0.0489484356808,-0.162527843929,0.101529435016,0.599756874343,-0.966385543346,-0.0715650543571,-0.0530949905515,-0.213425979018,-0.309477567673,-0.0134958736598
2017/07/09/09:35:51.518929,253618,1499564154,318828704,,0.854156162774,-0.0045910001918,0.179475015893,0.745490649062,0.655341155344,0.0434583175885,0.113503466495,-0.0244365990801,-0.249046456362,-0.0432112811556,-0.127503346519,0.0890452748475,0.535940169125,0.25346955657,-0.47706502676,-0.0972833558917,-0.0805582925677,0.156016752124,-0.0289780758321
2017/07/09/09:35:51.530269,253619,1499564154,329841025,,0.854017550179,-0.00658016376106,0.17904813218,0.743759652543,0.657325422109,0.0431533046133,0.113501810556,-0.0186477736298,-0.246408563789,-0.0342396582521,-0.130557038156,0.073745867125,0.496931638401,0.0620451420546,-0.13885936141,-0.297961682081,-0.103919647634,0.0893637835979,0.000463869422674
2017/07/09/09:35:51.540313,253620,1499564154,339825919,,0.853718207627,-0.00909202903229,0.178775720459,0.742678715423,0.658574972409,0.0423955364831,0.11362196029,-0.0197511919805,-0.265887786869,-0.0220629812804,-0.138033218564,0.0494305703492,0.428399726049,-1.16697621346,0.456304132938,0.0716104358435,-0.250599443913,-0.44565269351,0.0254362169653
2017/07/09/09:35:51.550573,253621,1499564154,349826578,,0.853550993035,-0.011793036595,0.178514998354,0.741546130376,0.659790978031,0.0420633121965,0.114087157912,-0.0203251153414,-0.229743961818,-0.0385296618121,-0.116971427699,0.0769854407198,0.392711489047,-1.13795089722,0.0769625902176,-0.204261168838,-0.266305685043,-0.435683727264,-0.0313679017127
2017/07/09/09:35:51.560338,253622,1499564154,359825168,,0.85431874743,-0.0141722113561,0.179138614327,0.740431629215,0.660825369105,0.042563715547,0.115148443863,-0.0128458564003,-0.245865531447,-0.0315102269852,-0.109610842408,0.0348917015962,0.325826070564,-0.679507255554,0.00513744540513,0.253850907087,-0.232540145516,-0.297881275415,-0.0501675605774
2017/07/09/09:35:51.569030,253623,1499564154,368839147,,0.853798907277,-0.0155996832276,0.178099245061,0.739779718513,0.661703213139,0.0422193589652,0.114421814037,-0.010067620189,-0.247335118198,-0.0284022272249,-0.0823066794514,0.0115788519893,0.280602159173,-0.267662316561,0.592178404331,-0.30178797245,-0.252451837063,-0.0840406566858,-0.13744340837
2017/07/09/09:35:51.583036,253624,1499564154,379826362,,0.85369994014,-0.0181486654578,0.178141787768,0.738760321675,0.662783382263,0.0420160493631,0.114830426761,0.000776603925179,-0.242515955753,-0.0170649058211,-0.0719202874007,-0.0231362236873,0.22605999183,-0.535141944885,0.482412099838,-0.00709734112024,-0.176259249449,-0.0994321852922,-0.10079690069
2017/07/09/09:35:51.589493,253625,1499564154,388828646,,0.853611545596,-0.0194827579697,0.177257704812,0.738203168995,0.663475703849,0.0421991624397,0.114347288454,-0.0103408249094,-0.23311918362,-0.0355731740239,-0.0401918098579,0.00237776993797,0.207067379107,-0.0880382061005,0.35426479578,-0.163588598371,-0.280186355114,0.0678380727768,-0.195835277438
2017/07/09/09:35:51.600140,253626,1499564154,399829420,,0.853843497909,-0.0212425485911,0.176987582739,0.737546415538,0.664149780582,0.0425830391825,0.114529640945,0.000514750164248,-0.220728170423,-0.036277023399,-0.0184757153986,-0.0263255788348,0.174430766827,0.0858245715499,0.52078551054,0.106218002737,-0.385429233313,0.169432520866,-0.251615911722
2017/07/09/09:35:51.609563,253627,1499564154,408857492,,0.853652337674,-0.0241073901512,0.176863453326,0.737333645762,0.664345934934,0.0426382143684,0.114741257796,0.00975152749897,-0.230308753487,-0.0219673661769,-0.0465197226105,-0.0571775760682,0.160163526932,-0.148415148258,-0.152035966516,0.305111020803,-0.271275550127,0.152948439121,-0.209683701396
2017/07/09/09:35:51.619209,253628,1499564154,418829150,,0.85402346442,-0.0264150744,0.176920191317,0.737006892638,0.664575498516,0.042960947026,0.115388924977,-0.00310726654142,-0.214110696196,-0.0351811673414,-0.0190023092039,-0.0232600060605,0.167164464348,-0.0643450170755,0.0411320626736,0.0856905132532,-0.349958389997,0.0999681428075,-0.223524600267
2017/07/09/09:35:51.630211,253629,1499564154,429827832,,0.854181772143,-0.0276170245006,0.176692909856,0.735301833817,0.666444480125,0.0431042028553,0.115433945582,0.00460648117535,-0.208561174213,-0.0167141509949,-0.0295625530053,-0.0421324760508,0.201610081907,-0.0279059782624,0.526593208313,0.0531382225454,-0.513639509678,0.121172875166,-0.255922436714
2017/07/09/09:35:51.640240,253630,1499564154,439822093,,0.854080781686,-0.029886589849,0.176374081031,0.73429983239,0.667507960497,0.0428559194649,0.115759444505,0.00644750292965,-0.200439071243,-0.0353614862453,-0.0548715767018,-0.0219191030156,0.318235992768,0.890681564808,0.273685008287,-0.157189428806,-0.311464875937,0.395750313997,-0.235702693462
2017/07/09/09:35:51.649462,253631,1499564154,448830932,,0.854442335539,-0.0310946875645,0.175975904397,0.733082877005,0.668800556072,0.0436154500866,0.115728147627,0.0106247293477,-0.183162160079,-0.0381714006431,-0.060052019419,-0.0162481401888,0.395232881668,1.16667485237,0.302230119705,-0.677886068821,-0.273877084255,0.439329534769,-0.183713465929
2017/07/09/09:35:51.660175,253632,1499564154,459828985,,0.854559646869,-0.0335763564602,0.175935457459,0.732166139395,0.66970435679,0.0434426751898,0.116368177747,0.00964397730141,-0.171791017245,-0.0275054027294,-0.0540381278913,-0.0162670572368,0.395245218433,1.51267313957,-0.519149899483,-0.429381221533,-0.12346085161,0.503287196159,-0.191971153021
2017/07/09/09:35:51.669853,253633,1499564154,469823113,,0.854407299892,-0.0358209020638,0.175567731668,0.731816909609,0.670060894223,0.043447583056,0.116510584796,0.00899838499532,-0.198965210325,-0.0287097104227,-0.0650427674006,-0.0391174291175,0.290468444084,0.90346378088,-0.161339193583,-0.319257497787,-0.293302476406,0.325384378433,-0.220528006554
2017/07/09/09:35:51.678990,253634,1499564154,478829893,,0.854080930429,-0.037117280248,0.174750981298,0.731641323773,0.670341956518,0.0439469065621,0.11580718494,0.0103144059416,-0.18146428935,-0.0368449337758,0.0253391227947,-0.0635861598444,0.155176474316,-0.0170944705606,-0.470908463001,-0.75364947319,-0.32594037056,0.0526489280164,-0.17801117897
2017/07/09/09:35:51.690520,253635,1499564154,489822918,,0.854732211607,-0.0381006048002,0.174382748635,0.731520526788,0.670348005133,0.0448887860766,0.116173438385,0.0151506653977,-0.185823717203,-0.0272345622304,0.042781531596,-0.101018085116,0.0249066962266,0.0942441821098,1.3798429966,-0.536301195621,-0.653715729713,0.107662908733,-0.287614285946
2017/07/09/09:35:51.699223,253636,1499564154,498828415,,0.854945434935,-0.0399024553632,0.174359470403,0.731889676711,0.669861421614,0.0456568962352,0.116355596266,0.0437504549782,-0.124975018925,-0.0305629135064,0.114782530038,-0.151406066313,-0.0130345377639,0.13453412056,0.297964274883,0.258159279823,-0.45569190383,0.237815544009,-0.224025398493
2017/07/09/09:35:51.709348,253637,1499564154,508828961,,0.855442622654,-0.0405329522517,0.174222444061,0.731706344195,0.670008691999,0.04664690386,0.116267987301,0.029373406517,-0.144508138291,-0.0209043570962,0.130122291855,-0.150736172602,-0.0832236224799,-0.191103160381,0.874073326588,0.863173425198,-0.469031393528,0.108747504652,-0.224109619856
2017/07/09/09:35:51.719958,253638,1499564154,519827589,,0.855909414685,-0.0414964308428,0.174489277176,0.73071592123,0.671000264674,0.0473851661753,0.116479754875,0.0318052284601,-0.122464931204,-0.012382784369,0.107269741447,-0.132746601833,0.0633770414079,-0.466815650463,0.687065958977,0.348406165838,-0.412419497967,-0.0484433695674,-0.18498775363
2017/07/09/09:35:51.730224,253639,1499564154,529823177,,0.85577219713,-0.0431556965475,0.173763470505,0.729929677535,0.671855325988,0.0476992481384,0.11635234644,0.0211373991215,-0.0978913745866,-0.0170581236733,0.1031504534,-0.0798854010336,0.222015758359,-0.660713434219,0.245521575212,-0.52046841383,-0.301380515099,-0.183425694704,-0.146086916327
2017/07/09/09:35:51.740465,253640,1499564154,539829271,,0.85653986724,-0.0440384375372,0.174359058901,0.729342361447,0.672355478461,0.0492549205608,0.116497996476,0.00485529783073,-0.104261086256,-0.0348833686565,0.114040476554,-0.0419700843402,0.280782989961,0.336304992437,-0.166719585657,-0.235752806067,-0.172358572483,0.0607149675488,-0.122324123979
2017/07/09/09:35:51.748976,253641,1499564154,548832318,,0.856550148103,-0.0444400067468,0.173963567492,0.729248439526,0.672499063532,0.0499607917904,0.115955346065,0.021312769363,-0.10101382783,-0.0219084120466,0.123070861328,-0.0840683537688,0.254395807649,0.924725413322,-0.444376289845,-0.323679804802,-0.127285510302,0.375969678164,-0.142923384905
2017/07/09/09:35:51.759157,253642,1499564154,558830316,,0.856277031365,-0.0454788267768,0.173146377731,0.729910545346,0.671866523456,0.0509383420398,0.115027195749,0.0298647841528,-0.0688209801393,-0.0262412462398,0.187250605736,-0.107124748931,0.106046525466,1.51460015774,-0.825271964073,-0.130485728383,0.0176996737719,0.582757771015,-0.118926592171
2017/07/09/09:35:51.769004,253643,1499564154,568861363,,0.856565224618,-0.0461050718274,0.17266967483,0.730431725117,0.671275160679,0.0519833769916,0.114703452932,0.0325428085803,-0.0678874504879,-0.0239905242395,0.245441919961,-0.144106143486,-0.108583448481,0.1678789258,-0.330463290215,0.0170938186347,-0.144359737635,0.131504416466,-0.110852509737
2017/07/09/09:35:51.779934,253644,1499564154,579820834,,0.856700271421,-0.0468995249994,0.172409197617,0.730977368626,0.670672322898,0.052999288264,0.114288220298,0.0275220411427,-0.0567572898838,-0.0287064499491,0.249499699066,-0.128369259842,-0.170292204957,-1.06311190128,0.244363933802,0.0127173364162,-0.392406344414,-0.325479626656,-0.119980812073
2017/07/09/09:35:51.789546,253645,1499564154,588828339,,0.857344421111,-0.0466632383461,0.172488109483,0.730964214165,0.670622431393,0.0541062677651,0.114146326752,0.0233166309212,-0.0705602344114,-0.0269607711553,0.223899955329,-0.123043148508,-0.16488567612,-1.0611525774,0.670000970364,-0.0610992722213,-0.496771067381,-0.369374483824,-0.15816244483
2017/07/09/09:35:51.799281,253646,1499564154,598828086,,0.857729846229,-0.047054714101,0.17205237533,0.731024091911,0.670522324578,0.0552385939817,0.113808114927,0.0342145213633,-0.0759789957579,-0.0139434741241,0.180947737384,-0.145216516603,-0.0847034855038,-0.642161607742,1.15060985088,-0.342395186424,-0.594693660736,-0.254259377718,-0.206447124481
2017/07/09/09:35:51.809741,253647,1499564154,609824109,,0.857736117008,-0.047249119095,0.171028921749,0.730340513223,0.671360080403,0.0560427585328,0.112860916188,0.0239887758141,-0.0570902170379,-0.0451679651048,0.178756738914,-0.0863695643416,0.0504497429996,0.717445611954,0.374338358641,-0.860777854919,-0.226255357265,0.148575097322,-0.115593001246
2017/07/09/09:35:51.819129,253648,1499564154,618828989,,0.857478860223,-0.0482467519622,0.170915140096,0.729418990853,0.672382773296,0.0562333079873,0.11263728082,0.00758353333784,-0.0699499496057,-0.0389309678067,0.117434379763,-0.0447964717265,0.203401568141,0.159181848168,0.102323397994,-0.448101013899,-0.163586467505,-0.0616779848933,-0.0843198597431
2017/07/09/09:35:51.829125,253649,1499564154,628830265,,0.857495541907,-0.0489510506726,0.17101019255,0.728591391648,0.673264323534,0.0568456819897,0.112420207758,-0.00583907403729,-0.0568649218374,-0.0365731120768,0.0928571748854,0.00428290276775,0.331173699674,-0.249817445874,0.155571937561,-0.0548577047884,-0.151822894812,-0.30279275775,-0.0279251337051
2017/07/09/09:35:51.839432,253650,1499564154,638827544,,0.857765984231,-0.0489942399397,0.170455255461,0.728137399517,0.673762871461,0.0574592914099,0.112062260803,0.00747943385156,-0.0293978915229,-0.0335173490527,0.0925941336021,-0.00641507995647,0.294403247796,-0.678651630878,0.416665136814,0.0792796164751,-0.345259070396,-0.46643230319,-0.095833145082
2017/07/09/09:35:51.849812,253651,1499564154,649825301,,0.857526151688,-0.0500402113658,0.16939683144,0.728341416264,0.673591805068,0.0577332559513,0.111623172577,0.00707797947012,-0.0857894449417,-0.0211206815277,0.0687930052522,-0.0568309271677,0.0892771233627,-0.84011054039,0.559444487095,-0.687973976135,-0.458837419748,-0.535666406155,-0.11581684649
2017/07/09/09:35:51.859999,253652,1499564154,659828246,,0.858228598768,-0.0500119118471,0.169584314976,0.728710152137,0.673104625838,0.0588909388683,0.111550590174,0.00701253539705,-0.0612147402263,-0.0454779594201,0.15896945952,-0.0616324762271,-0.0691889356839,0.81294709444,0.242758706212,-0.439750880003,-0.211434021592,0.0196535177529,-0.096047885716
2017/07/09/09:35:51.869412,253653,1499564154,668832630,,0.857992041111,-0.0512642029287,0.169239973993,0.729511146346,0.672215733753,0.0594729767125,0.111366331056,0.0201245645479,-0.0466480078512,-0.0285859956943,0.149129709002,-0.0859527544797,-0.0954627521433,0.652568638325,-0.191918089986,-0.059242323041,-0.126269906759,0.0748941898346,-0.0558191724122
2017/07/09/09:35:51.880046,253654,1499564154,679825981,,0.858485598918,-0.0507779904099,0.169070091187,0.728797744774,0.672960639872,0.0598919382448,0.111313881114,0.0126149477921,-0.0633913953093,-0.0296766724277,0.145292492285,-0.0832952744623,-0.0819737365486,0.652584552765,0.314933478832,-0.271613508463,-0.162505701184,-0.0244187284261,-0.0528437830508
2017/07/09/09:35:51.890427,253655,1499564154,689826469,,0.858414523032,-0.0514187422013,0.168644917894,0.728497873103,0.6732897132,0.0607016915292,0.110847262617,0.0170762811306,-0.0374368337402,-0.0254338134396,0.119962964157,-0.0739182233884,0.0561362625313,-0.338388323784,0.342756450176,-0.619764328003,-0.248672038317,-0.358310371637,-0.0526709891856
2017/07/09/09:35:51.899306,253656,1499564154,698829231,,0.858556236089,-0.0518927861826,0.168655043257,0.72807319975,0.673704790745,0.0611245241667,0.110883106373,0.0103705521137,-0.0493099646026,-0.0182556509023,0.0881549607814,-0.0585685491811,0.141372903587,-1.01345491409,0.818509876728,-0.70598757267,-0.437217563391,-0.606106460094,-0.112103447318
2017/07/09/09:35:51.909296,253657,1499564154,708827573,,0.859038950097,-0.0516777092562,0.169242833973,0.72697308559,0.674786415744,0.0618075792337,0.111145171305,0.0164908755068,-0.0107788619382,-0.0164299500777,0.0795642846305,-0.0499791371107,0.246973189238,-0.541242480278,0.622250974178,0.0860020369291,-0.312294244766,-0.394615739584,-0.0829824134707
2017/07/09/09:35:51.918982,253658,1499564154,718828997,,0.859091886985,-0.051661221597,0.168308534381,0.726841037096,0.674975493112,0.0625679774065,0.110432960181,0.0125336473912,-0.024298234778,-0.0114165934222,0.0834117239092,-0.0648170504383,0.193902172635,0.364938080311,0.432029128075,-0.314169973135,-0.211658507586,-0.00401867739856,-0.0894015952945
2017/07/09/09:35:51.929065,253659,1499564154,728844434,,0.85892346168,-0.0533335162632,0.16813034279,0.727494765082,0.674178311434,0.0629864508681,0.11075955118,0.0265138795868,-0.0144837873809,-0.0253765158002,0.0978810586536,-0.0840761090486,0.101254902702,0.0623615607619,-0.97881770134,-0.0989148020744,0.0882324576378,0.0696941167116,0.00971011072397
2017/07/09/09:35:51.939459,253660,1499564154,738829092,,0.858660014642,-0.0528173760084,0.167208018885,0.727716200108,0.67409017557,0.0632502836562,0.109685773543,0.0224988466056,-0.0291821847616,-0.0435109383311,0.135199275021,-0.0886366211735,-0.047698250722,0.268203437328,-0.0323372483253,-0.392636626959,0.0112789794803,0.192129805684,-0.0498418137431
2017/07/09/09:35:51.949209,253661,1499564154,748829133,,0.859188784524,-0.0528183405982,0.167423244753,0.727202091847,0.67453522477,0.0642191830912,0.109796378273,0.0182169772532,-0.00316591436688,-0.0416560974183,0.144666831634,-0.055645228101,-0.0359901897242,-0.756849646568,0.240702867508,-0.245674297214,-0.0970520377159,-0.167144298553,-0.00398772954941
2017/07/09/09:35:51.959401,253662,1499564154,758829163,,0.858620415199,-0.0532825573351,0.166624817263,0.727676663588,0.674142426496,0.0641967091522,0.109075407866,-0.00615838017909,-0.0459433917374,-0.0286120242841,0.110234905474,-0.0381696615144,-0.0549792646945,-1.44808864594,0.8940756917,-0.355038702488,-0.320214092731,-0.404453396797,-0.0729143545032
2017/07/09/09:35:51.969256,253663,1499564154,768830256,,0.858523813141,-0.0532967568124,0.166037607457,0.72742624751,0.674461048881,0.0645969300116,0.108538401539,-0.0173041312133,-0.0299692864302,-0.0525442741797,0.0899604924618,0.0230526858809,0.0325471929453,-0.617849111557,1.00213468075,-0.736889481544,-0.332519769669,-0.171405106783,-0.102770313621
2017/07/09/09:35:51.979041,253664,1499564154,778829642,,0.858293980271,-0.0533709255286,0.165498348665,0.727505809554,0.674444564101,0.0649243634913,0.107910398228,-0.0224032508462,-0.0319599154463,-0.04798327427,0.0987496233446,0.0221365906181,0.0746265105352,-0.669042766094,1.04597556591,-0.666471123695,-0.401216059923,-0.197578772902,-0.198738738894
2017/07/09/09:35:51.989438,253665,1499564154,788829752,,0.858446413471,-0.0534426163248,0.165244852515,0.727293155744,0.674651503483,0.0652148855422,0.107875081273,-0.0160592080769,-0.0239953275884,-0.0384985113945,0.103879894632,0.00416688312276,0.0482687322733,-0.463790267706,0.876385092735,-0.50392049551,-0.289827436209,-0.138431876898,-0.156182318926
2017/07/09/09:35:51.999452,253666,1499564154,798829259,,0.85835507157,-0.054431316667,0.164990854292,0.727838287692,0.674011104385,0.0657544948701,0.107874021616,-0.00988851509643,-0.00638055798771,-0.0473297493553,0.126055682996,-0.000471003296646,-0.00146495976183,-0.235451966524,-0.2132332623,-0.185033738613,-0.0124188512564,0.00194372236729,-0.0786887556314
2017/07/09/09:35:52.010406,253667,1499564154,809860169,,0.858055511991,-0.0541593035078,0.164102690158,0.727970797569,0.673975315936,0.0660637715006,0.107011071813,-0.015355180456,-0.032046331213,-0.0460406362114,0.11903005151,-0.00963390176999,-0.0516732447774,0.50860029459,0.369032979012,-0.559807360172,-0.109112590551,0.289670467377,-0.146406888962
2017/07/09/09:35:52.019119,253668,1499564154,818829681,,0.858761527087,-0.053371283351,0.164525022496,0.72766608584,0.674198626824,0.0667031335977,0.107279872643,0.0153817878499,0.0195371243759,-0.0393863041249,0.103224817833,-0.0338434317485,-0.00178433228175,-0.0715116709471,1.16828656197,0.26084959507,-0.186404272914,0.0755506679416,-0.098282597959
2017/07/09/09:35:52.030147,253669,1499564154,829828954,,0.858479011995,-0.0540610048853,0.164060809449,0.727928084469,0.673932918455,0.066901209925,0.107048369322,0.010039219144,-0.0162750051964,-0.0260141149651,0.0459590295574,-0.0329292555141,-0.0255418986935,-1.54097306728,0.497511833906,-0.00371611118317,-0.159516513348,-0.343213021755,-0.107479885221
2017/07/09/09:35:52.039407,253670,1499564154,838834529,,0.858582503422,-0.0546910216894,0.163802842576,0.728240171175,0.673545438897,0.0668982046034,0.107365846749,-0.00972522957529,-0.033742934934,-0.0286807568154,0.0302143392677,-0.000684025890656,-0.00958106709169,-1.32729172707,0.684923410416,-0.172908380628,-0.197426214814,-0.302330374718,-0.130750507116
2017/07/09/09:35:52.050312,253671,1499564154,849822636,,0.858064271689,-0.0538810803939,0.162880363096,0.728314851677,0.673655256053,0.0670417498187,0.106072977712,-0.0136767896192,-0.0428123000921,-0.0358671103967,0.0446101748377,-0.00291326289058,-0.0582324631937,-1.52839624882,1.23251569271,-0.341655284166,-0.298160761595,-0.369271814823,-0.151621058583
2017/07/09/09:35:52.059308,253672,1499564154,858828770,,0.858431735165,-0.0544462922604,0.163047618019,0.727690683743,0.674218310066,0.0670604817487,0.106765307816,-0.00111776317212,0.0140308113644,-0.0450652125417,0.0579627128016,0.0121701694801,0.0181828690601,0.0830758586526,0.749932169914,0.343018591404,-0.150492444634,0.293482810259,-0.183458045125
2017/07/09/09:35:52.069202,253673,1499564154,868849411,,0.85861110732,-0.0535731132092,0.162542513588,0.727712077196,0.674247832911,0.0673250951413,0.106265347512,-0.00506872879865,0.0137603704433,-0.0435803062756,0.050936787723,0.0271447987237,0.0213683303073,0.00921190530062,1.21976590157,0.711200118065,-0.299487113953,0.258559972048,-0.200241282582
2017/07/09/09:35:52.080089,253674,1499564154,879831827,,0.857907005054,-0.0545564944447,0.161961145942,0.728187890615,0.673829976184,0.0670387292148,0.105836515168,-0.00838448774997,-0.0060899950572,-0.0338665477593,0.0539064071432,0.0134139917714,-0.013959805115,-0.624669194221,0.277005910873,0.536649227142,-0.0920058339834,0.131333947182,-0.163189798594
2017/07/09/09:35:52.090846,253675,1499564154,889825873,,0.857592038165,-0.0551805538713,0.162130054214,0.728589476529,0.673387784578,0.0671181400263,0.105836768425,-0.0194612291775,-0.0290782641557,-0.0233646811715,0.0600112639361,0.010237676933,-0.0512323335236,-1.2213550806,0.525593519211,0.501212477684,-0.19385753572,-0.143357232213,-0.175799041986
2017/07/09/09:35:52.099050,253676,1499564154,898839232,,0.857546710071,-0.0546916604844,0.161421891418,0.72832910839,0.673765391703,0.0669452826345,0.105333925914,-0.0290278901574,-0.0197194026301,-0.034997836166,0.0319684667546,0.0586115834334,-0.0124359280381,-1.01679611206,0.622091174126,0.3411719203,-0.31654715538,-0.0862145870924,-0.225227966905
2017/07/09/09:35:52.109352,253677,1499564154,908835723,,0.858078200042,-0.054356765954,0.161973150021,0.728154202839,0.673841169042,0.0676318399762,0.105619458501,-0.0194937413181,-0.0103077629183,-0.0395244639055,0.0372583035937,0.0510789945333,-0.0160364027349,-0.0980595722795,0.791236400604,0.587636947632,-0.185887694359,0.156186580658,-0.166954413056
2017/07/09/09:35:52.119043,253678,1499564154,918829367,,0.857684455019,-0.0547331955433,0.161458675918,0.728312084144,0.67374854634,0.0670418702427,0.105497829496,-0.00938867626285,0.0141781092249,-0.0283140079004,0.0400048245058,0.0411756842197,0.00919303960022,-0.621621966362,0.339049398899,0.421048372984,-0.13616040349,-0.0263611897826,-0.150396570563
2017/07/09/09:35:52.129865,253679,1499564154,929824210,,0.857272686609,-0.0551154977347,0.16112994192,0.728635424583,0.673466407835,0.067017040238,0.105081548703,-0.00340321410699,0.0268458592506,-0.0177809058119,0.0416521852917,0.0259228685995,0.00453792658287,-0.165025889874,-0.121753156185,0.100335657597,-0.109714858234,0.209297090769,-0.196821033955
2017/07/09/09:35:52.139392,253680,1499564154,938829410,,0.85731841526,-0.0547661998241,0.160833832786,0.728528229988,0.673616072121,0.0669864389096,0.104884805822,-0.00743037381907,0.000634416917291,-0.013578622245,0.0136523452759,0.018771955268,-0.00634343274225,0.297037541866,0.258814811707,0.290811479092,-0.0478357449174,0.31688144803,-0.141911581159
2017/07/09/09:35:52.149244,253681,1499564154,948828400,,0.857082534464,-0.0542935472292,0.160237507356,0.728439790869,0.673804730896,0.0669204274387,0.104327906584,0.00147817178408,-0.0150598978054,-0.00962757146447,0.00512294423208,-0.0107388607599,-0.00964991164739,0.559292674065,0.45616710186,-0.315517663956,-0.0901018604636,0.434724539518,-0.19173912704
2017/07/09/09:35:52.159163,253682,1499564154,958827569,,0.857117473999,-0.0549840900564,0.160312596812,0.72879346277,0.673351861533,0.0670943947599,0.104669486409,-0.00897116739737,-0.0168013037065,-0.0144275915169,-0.0166642319309,0.0163224804138,-0.0141836865571,1.14914536476,-0.468997865915,-0.0210303850472,0.0881322100759,0.661972522736,-0.159889236093
2017/07/09/09:35:52.169995,253683,1499564154,969822533,,0.857480528294,-0.0545753334253,0.160755186068,0.728491384632,0.673647800049,0.0671729233185,0.104817662531,0.00422307974193,-0.0198388500806,0.00782280134464,-0.0110842788538,-0.0237671892683,-0.0463288762388,0.579019486904,0.311464846134,0.14172630012,-0.104589514434,0.389522582293,-0.151144981384
2017/07/09/09:35:52.179193,253684,1499564154,978828930,,0.856929131867,-0.0553405950507,0.160104997234,0.72871735383,0.673480529428,0.0664140800245,0.104805365714,0.00341084130431,-0.0070572989319,0.00385065808499,-0.026044396748,-0.00434288657013,0.0157115648104,-0.219007819891,0.0957573354244,0.0720321834087,-0.0840492099524,0.125496193767,-0.14508163929
2017/07/09/09:35:52.190316,253685,1499564154,989829541,,0.857143782335,-0.0549026244453,0.160419688886,0.728580837838,0.673623211969,0.0665615049864,0.104743959662,-0.0241068475279,-0.0206056324067,-0.0200813997845,-0.0388702360613,0.0658133187631,-0.0143439182243,-0.131471395493,-0.0706341266632,0.363492667675,-0.010555408895,0.127054214478,-0.13121420145
2017/07/09/09:35:52.199080,253686,1499564154,998828206,,0.856915987495,-0.0557149882167,0.16053392038,0.728806313769,0.673354067301,0.0661489714869,0.105166394971,-0.0210486077927,-0.0188753884824,-0.012358442461,-0.0437950628328,0.0554021812092,0.00917923369296,-0.183919727802,0.223801195621,-0.0146007686853,-0.0731099322438,0.0523577705026,-0.14981944859
2017/07/09/09:35:52.209226,253687,1499564155,8827427,,0.856730321841,-0.0556125540554,0.160107873307,0.728424000828,0.673829055389,0.0658039671294,0.104989128203,-0.0202264165278,-0.0226011919061,-0.0124186307775,-0.0467185749113,0.0529758122339,-0.00158949038068,-0.103911869228,0.089961707592,0.112220928073,-0.0232678279281,0.0236703194678,-0.118262574077
2017/07/09/09:35:52.222243,253688,1499564155,18829517,,0.856651363569,-0.0556812174866,0.160411018288,0.728343433529,0.673909864115,0.0658704661254,0.104987711546,-0.0135638894324,-0.00622846771735,-0.00804429976886,-0.0341483094897,0.0417368533755,0.0378201956413,0.482239544392,-0.13219127059,0.0448476858437,0.0238284096122,0.244992315769,-0.130016341805
2017/07/09/09:35:52.229160,253689,1499564155,28828655,,0.856634975009,-0.0565146400849,0.161060138523,0.728609868609,0.673574840458,0.0652495366832,0.105674460634,-0.00267542956251,0.0201741266407,0.00884263275047,-0.0100482347594,0.0205110407665,0.0403885784766,-0.0210164859891,-0.750480055809,0.496399402618,0.0915549173951,0.02929058671,-0.0944713801146
2017/07/09/09:35:52.240313,253690,1499564155,39825619,,0.857061150425,-0.0550822921017,0.160718556999,0.728421562211,0.67379234127,0.0661832768793,0.105003249534,-0.0101973962194,-0.0129347216286,-0.000173744837891,-0.00354931150658,0.0146763603941,-0.0264568228493,1.07875728607,0.00604203343391,0.169740825891,0.0547039061785,0.31481897831,-0.125629812479
2017/07/09/09:35:52.249314,253691,1499564155,48827894,,0.856311490818,-0.055193053273,0.160514722217,0.728465505932,0.673891917806,0.0654610385661,0.104510966954,0.0126828165927,0.0429278771466,-0.000796003977628,0.0317516585089,-0.00168552663588,0.0467822000416,-0.190674766898,-0.944379329681,0.596445918083,0.174433469772,-0.0120026804507,-0.053852468729
2017/07/09/09:35:52.259392,253692,1499564155,58830051,,0.856317222125,-0.0560679774129,0.160540839216,0.728272813446,0.674040982234,0.0648352991413,0.105279853009,0.00571617908312,0.00517684962216,0.000526111253567,-0.0116743564401,-0.00397146467896,-0.00290123167841,0.197307765484,-0.984543859959,0.248463690281,0.162558168173,0.120356217027,-0.0648286193609
2017/07/09/09:35:52.269148,253693,1499564155,68837832,,0.856800317958,-0.0545869993765,0.160377793698,0.728146096966,0.674186516405,0.065767539557,0.104644318102,-0.00904067786108,-0.000233315108933,-0.00989917163988,-0.0384817972491,0.0349820983718,0.0178865750316,0.543877124786,0.0949441641569,0.176186680794,-0.0760682970285,0.158451929688,-0.1697742939
2017/07/09/09:35:52.278881,253694,1499564155,78826477,,0.856276844242,-0.0554304329736,0.159998839625,0.727999386979,0.674424489354,0.0646402015226,0.104833892724,-0.00564185821938,-0.0427494170452,0.00285984667283,-0.0688680352455,-8.35855489838e-05,-0.011423154301,0.668577075005,-0.242572665215,-0.155650466681,0.044190697372,0.287456333637,-0.12931022048
2017/07/09/09:35:52.289237,253695,1499564155,88828790,,0.856383044902,-0.0556974733539,0.160425920239,0.728667217461,0.673641257259,0.0651471523981,0.104916115303,-0.00549051865501,-0.0254167419384,0.0079979295423,-0.0517208891828,0.00840461434389,0.0013747545588,0.217244446278,-0.174538701773,-0.0863537415862,0.0475241318345,0.10851123929,-0.103005439043
2017/07/09/09:35:52.299320,253696,1499564155,98828501,,0.857221217877,-0.0557405010609,0.161339371102,0.727944697426,0.674210133431,0.0654107619288,0.106106765539,-0.0062326335541,-0.0271513863658,0.0128088948586,-0.0392730940798,-0.000820440947182,-0.00256672862972,1.5265276432,-0.0456811487675,0.14076629281,0.0362747088075,0.535276532173,-0.163287639618
2017/07/09/09:35:52.309144,253697,1499564155,108828824,,0.856069013146,-0.0562210175331,0.160295112969,0.728339200775,0.674024488815,0.0645095806894,0.105126167491,0.0100450933515,0.00912209644573,0.00158972792081,-0.0168350659302,-0.00863857308352,0.0243828701961,0.583341419697,-0.47961628437,0.146089836955,0.103894084692,0.282892584801,-0.0987697318196
2017/07/09/09:35:52.320096,253698,1499564155,119827474,,0.856385390819,-0.0560072370312,0.160207845757,0.728361346151,0.673965755099,0.0646800832949,0.105244464041,-0.00355857477572,-0.0029439830174,-0.00487176407747,0.000560090029192,0.00612938825139,0.00037166483483,0.666439473629,0.0870001912117,-0.156713023782,0.0589373037219,0.220238059759,-0.103984236717
2017/07/09/09:35:52.329221,253699,1499564155,128837427,,0.856608907804,-0.0559891804689,0.16026743841,0.727994619313,0.674290796,0.0648119071831,0.105618054179,0.00954090034712,0.0107255484169,0.0046377859816,-0.00910583526293,-0.0126305825406,0.00508505006755,0.0404771491885,-0.328619509935,-0.0132776014507,0.0997694656253,0.00926065817475,-0.0831713974476
2017/07/09/09:35:52.339197,253700,1499564155,138828896,,0.856818880487,-0.0557626524665,0.160878586667,0.728122467459,0.674113766159,0.0651713628294,0.105645615736,0.00498856356984,0.00339885805352,0.0033638592498,0.01268472684,-0.0145575751774,0.00747323006041,0.481421172619,-0.424135476351,-0.0130962096155,0.0802687704563,0.188796892762,-0.110350832343
2017/07/09/09:35:52.350465,253701,1499564155,149825680,,0.856692594698,-0.0561186539398,0.161015556655,0.728415581351,0.673798253221,0.0651591830709,0.105645329585,0.0052552201654,0.00597042579678,0.00572688848526,0.00920167045009,-0.0148949663294,0.00566309741091,0.368752598763,-0.333999216557,0.0147332549095,0.0866300985217,0.124861702323,-0.115223623812
2017/07/09/09:35:52.360190,253702,1499564155,159829974,,0.856730015136,-0.0552609038433,0.160549331968,0.728111004196,0.67419247362,0.0654888837589,0.105024188583,0.00111507609712,0.00486842262764,0.00262188558707,0.00300987177582,0.00305656436198,0.00192832326161,0.143210589886,0.20736053586,-0.384775429964,-0.0649816244841,-0.00339391455054,-0.127164423466
2017/07/09/09:35:52.368939,253703,1499564155,168828062,,0.856864949326,-0.0553170741721,0.160883822668,0.727778903834,0.674512946326,0.0650654113473,0.105530301901,-0.00859460903812,0.0111102482461,-0.00950446504915,0.0184165814351,0.0267925174871,0.0213567613608,0.609768211842,0.0417034178972,0.209280848503,0.0374007746577,0.116268582642,-0.0758205801249
2017/07/09/09:35:52.379177,253704,1499564155,178830107,,0.856344796304,-0.0563037878816,0.160367917098,0.728175742766,0.674131354433,0.064682753878,0.105466326232,0.00803032395915,0.00876659556935,0.00659846916374,-0.00104651676152,-0.0137278605896,0.00917966354314,0.0664286389947,-0.291304916143,-0.366095036268,0.0371247977018,-0.00752914324403,-0.0944268479943
2017/07/09/09:35:52.390407,253705,1499564155,189820443,,0.856768068108,-0.0552339439372,0.160546712359,0.72792907649,0.674390527976,0.0651855331652,0.105202289152,0.00444553480603,-0.0133157537276,0.0114341118102,-0.0239244861032,-0.0183947711121,-0.0261915879923,0.182091683149,-0.143049329519,-0.217003718019,0.0488882660866,0.1431812644,-0.103706821799
2017/07/09/09:35:52.400257,253706,1499564155,199862089,,0.856865247277,-0.0556684462535,0.160442036096,0.728350170285,0.67387110292,0.0654209863859,0.1054697143,0.0048546058899,-0.00471250847932,0.00839171638932,0.0074143793693,-0.0248755131187,-0.00729744903839,0.779979884624,-0.185462355614,-0.501992046833,0.184633657336,0.317265897989,-0.0632896870375
2017/07/09/09:35:52.409097,253707,1499564155,208829289,,0.856827056794,-0.056116744818,0.160826852477,0.72797174281,0.674257004901,0.0648005612933,0.105997737092,0.00426143579839,0.0115899348197,-0.0153163598214,0.0138708791936,-0.00217299634357,0.0194399443522,1.14549028873,-0.677740633488,0.264280408621,0.188273012638,0.57551920414,-0.127420589328
2017/07/09/09:35:52.419031,253708,1499564155,218828617,,0.856819531772,-0.0559210334839,0.161039454609,0.728350900576,0.67383119621,0.0653961343685,0.105734716413,0.0100499893076,-0.00751681873077,-0.00458082497576,-0.00918128453686,-0.0258318928964,-0.00820099780708,0.890995323658,-0.59677863121,0.632884979248,0.194642752409,0.49213758111,-0.0755707100034
2017/07/09/09:35:52.428901,253709,1499564155,228854209,,0.856865825657,-0.055822881712,0.160664506609,0.728180506949,0.674042047744,0.0653508505987,0.105592298479,0.00155534845595,-0.00902791104871,-0.00282554664026,0.00499559519116,-0.0133762944315,-0.0249757520755,0.246806621552,-0.514480352402,0.0124087519944,0.174572303891,0.289374560118,-0.0903121381998
2017/07/09/09:35:52.439408,253710,1499564155,238829675,,0.856561467528,-0.0552527645425,0.160240117145,0.728161765102,0.674170672823,0.0652759560097,0.10494473458,-0.00421156312298,0.00408059199771,-0.00449491048408,0.0332873032014,0.00365443991366,-0.0217376488505,0.302169203758,-0.0113705098629,0.0773642510176,0.0823358073831,0.223824590445,-0.104457564652
2017/07/09/09:35:52.449291,253711,1499564155,248873279,,0.856211744317,-0.0565569312345,0.15981519512,0.728330989489,0.67399562359,0.0646593732509,0.105275992432,0.00590681331126,0.0239072845717,-0.00447284324086,0.00770317683203,0.00990536873167,0.0344817539455,-0.0886391550303,-0.589567899704,-0.17919267714,0.0947043448687,0.173534959555,-0.109533458948
2017/07/09/09:35:52.459188,253712,1499564155,258839459,,0.857033338239,-0.0552319764909,0.160829684081,0.728065511908,0.674158941354,0.0655097267763,0.105540550788,-0.00278759958403,0.00742138855398,-0.00610855355915,0.00346994520555,0.0191189059109,0.00279638404617,0.498083591461,-0.329017162323,0.259414970875,0.0977997481823,0.282275557518,-0.0939006134868
2017/07/09/09:35:52.469116,253713,1499564155,268847298,,0.856617871456,-0.056073030135,0.16072042062,0.727920229381,0.674366936241,0.0650280596968,0.105511735908,-0.00558286833353,0.0146022989221,0.00225437042107,0.0268656234888,0.0151233240259,0.0295384966404,-0.127043575048,-0.675885021687,0.230236589909,0.11909468472,0.0795657634735,-0.0596547350287
2017/07/09/09:35:52.480398,253714,1499564155,279829465,,0.856627673631,-0.055558740201,0.160366581943,0.727814403026,0.674521075072,0.0648636681441,0.105357574886,0.00501102845062,0.00110250174108,0.00592132905603,0.00404332224628,-0.0153093500636,0.00396351109948,0.259639203548,-0.189114421606,0.281809508801,0.0625713840127,0.18200185895,-0.123060099781
2017/07/09/09:35:52.490454,253715,1499564155,289829769,,0.857045198096,-0.0546988040598,0.160239382108,0.727747440933,0.674568685041,0.0655502169972,0.105090058662,-0.00115292261414,-0.0160044130351,0.00830453302551,-0.0281526071878,-0.00741422875794,-0.000911065765722,0.639724493027,0.400163829327,-0.360902756453,-0.0963073000312,0.293389976025,-0.16730697453
2017/07/09/09:35:52.499173,253716,1499564155,298829248,,0.857041331218,-0.0551608989911,0.160457521203,0.727947847303,0.674310966779,0.0657476349658,0.105232600393,0.00300742275555,0.0082675241346,-0.00827813596565,-0.00131092678616,0.00333253347386,-0.00383397794861,0.684700489044,0.0687574446201,0.512435138226,-0.0533272475004,0.383659303188,-0.1796695292
2017/07/09/09:35:52.509164,253717,1499564155,308828063,,0.856826000063,-0.0554397349688,0.159981970848,0.727984195002,0.674312283196,0.0653958704404,0.105191904092,0.0124998434056,-0.013644450129,0.00855799252829,-0.0240690327075,-0.0383905168311,-0.00555236112927,-0.835986495018,0.162723749876,0.0805462598801,-0.0304341167212,-0.172181144357,-0.10481800139
2017/07/09/09:35:52.519085,253718,1499564155,318828429,,0.857107664428,-0.0554707054937,0.160522172425,0.727998840679,0.674208048829,0.0656299937916,0.10561202005,0.00346762110762,-0.0158083027546,0.00504853386061,0.00207812962164,-0.0243470466427,-0.0265779293604,0.908597826958,0.0101904422045,0.113061621785,0.0149832516909,0.504331171513,-0.145068585873
2017/07/09/09:35:52.528911,253719,1499564155,328828880,,0.85672997606,-0.055936525692,0.160187572253,0.728060924235,0.674212304699,0.0648573276243,0.105634207757,0.00327697137081,0.0114018097205,-0.00190289302857,0.00468081638383,0.00618892774466,0.0106289794184,0.084002956748,-0.0931430160999,-0.111875936389,-0.0138616785407,0.226767882705,-0.12802220881
2017/07/09/09:35:52.539193,253720,1499564155,338827062,,0.857589971955,-0.0554375705539,0.161203827037,0.727624843868,0.674504354924,0.0656776164182,0.106265763424,0.00544314393006,0.000963748499594,-0.000911209025623,0.00704206596733,-0.0139184636778,-0.0121101168509,0.0653365105391,0.191535100341,0.602514564991,-0.013081625104,0.16332039237,-0.0966234654188
2017/07/09/09:35:52.550035,253721,1499564155,349827427,,0.856674545633,-0.05561876473,0.160152407408,0.727872475858,0.674449443667,0.0650432114758,0.105304261391,-0.00372559164881,0.00947728165885,-0.00717375320516,-0.0196074428576,0.0281474671511,0.0349482211611,-0.306368917227,-0.110754072666,-0.0371951833367,-0.0850945785642,0.0731350928545,-0.138708561659
2017/07/09/09:35:52.559142,253722,1499564155,358828200,,0.8566827862,-0.0554510800028,0.160081426512,0.728035937877,0.674292671485,0.0652865076786,0.105027321473,-0.0109372950664,-0.00471884166771,0.00276692110042,0.0010521905477,0.0227288544158,-0.000547912957549,-0.158129483461,0.255607515574,0.0301007777452,-0.0907622873783,0.04721641168,-0.12812691927
2017/07/09/09:35:52.568801,253723,1499564155,368827674,,0.856981965511,-0.0547996595745,0.160196582812,0.727720313208,0.674604723052,0.065538784502,0.105053705818,-0.00178069660669,0.0120599103422,0.000809290288579,0.0279306542287,0.00635940599899,0.0065829025278,-0.0803068876266,0.627271294594,0.0555008016527,-0.0904135927558,0.0231684707105,-0.112932391465
2017/07/09/09:35:52.579118,253724,1499564155,378828917,,0.856644838727,-0.0559035175845,0.16040405363,0.72818513605,0.674085778261,0.0649810162685,0.105509424728,-0.00679153653848,0.000658460116529,-0.000290359966672,0.0101062591488,0.0089688698925,0.00308209464369,-0.295913606882,-0.334968775511,0.0680353417993,0.0531484782696,-0.0044550485909,-0.0935763046145
2017/07/09/09:35:52.590347,253725,1499564155,389823131,,0.857033114158,-0.0553284804122,0.160528342461,0.728043031379,0.674188584878,0.0655448008044,0.105484480226,0.000423774147584,-0.0124673185576,-0.000105185907756,-0.00824629421931,-0.0096788563409,-0.0199894660522,-0.0528646782041,0.0683004409075,0.417911887169,0.0753321498632,0.0666894465685,-0.051139138639
2017/07/09/09:35:52.599358,253726,1499564155,398829123,,0.856791886385,-0.0561866393239,0.160451522762,0.72823855643,0.673970129474,0.0654903798563,0.105564575747,0.00339050703835,0.0124257106293,-0.00746054217074,0.00433918561784,-0.000856485218465,0.0233925760615,-0.60201215744,-0.557324171066,0.521178305149,0.097555026412,-0.0351002700627,-0.0701801255345
2017/07/09/09:35:52.610075,253727,1499564155,409820819,,0.857567924171,-0.05530356444,0.161463108889,0.727775959542,0.674342042263,0.0658129819791,0.106177277005,0.0118039148047,0.00377279038748,0.00570914437702,0.00887720201877,-0.0317183012807,-0.0100558838889,0.503939628601,0.38315987587,0.743610560894,-0.028813675046,0.28438526392,-0.111437618732
2017/07/09/09:35:52.620346,253728,1499564155,419829306,,0.857135728225,-0.0560547639077,0.160572369992,0.728158340342,0.674002530864,0.0655665240938,0.105863358615,0.00808279665433,-0.0160223676559,0.00586643852476,-0.0189925743014,-0.0277274440109,-0.0305449662117,-0.267841458321,0.147267773747,0.641851305962,-0.0387799851596,0.0112152975053,-0.0894429385662
2017/07/09/09:35:52.629123,253729,1499564155,428846273,,0.857014748463,-0.0560068911786,0.161015149581,0.727975120221,0.674225306389,0.0652317146876,0.105911680008,0.00196471065666,-0.00897318843517,0.000722809148439,-0.00848505955008,-0.00225826445448,-0.011494829941,-0.555339813232,0.173406213522,0.311098277569,-0.11346155405,-0.0436756014824,-0.107590250671
2017/07/09/09:35:52.640151,253730,1499564155,439825941,,0.85672796736,-0.0557815247186,0.16062794679,0.728326859825,0.67391893099,0.065274354277,0.105415930411,0.0025212838799,0.00956035461982,-0.00174508752379,0.0133194977305,0.00360680208366,0.00998855046006,-0.404393315315,0.492157012224,0.33523735404,-0.0821783095598,-0.0999039337039,-0.0807993561029
2017/07/09/09:35:52.650339,253731,1499564155,449849056,,0.856825502196,-0.0551851049506,0.160122515014,0.727778095471,0.674565002886,0.0651360428935,0.105158910944,-0.0143527773545,0.00406740421481,-0.00105601440606,0.00208108922757,0.0349531956233,0.000847887164196,-0.450469315052,0.0948716402054,-0.0725437477231,-0.0839056372643,-0.066338121891,-0.101516440511
2017/07/09/09:35:52.658919,253732,1499564155,458857983,,0.856495631476,-0.0559665486762,0.160036380992,0.728188034422,0.674137284937,0.0648307881165,0.105252441752,-0.0210669857635,-0.0134359775996,-0.00628601625353,-0.024588863917,0.0495270540108,0.00638585316027,-0.485765099525,-0.034947425127,0.235583931208,-0.059931397438,-0.113416694105,-0.0777533948421
2017/07/09/09:35:52.669174,253733,1499564155,468829611,,0.856375084439,-0.0559227729292,0.160417649451,0.72814425899,0.674186047243,0.0647502698778,0.105292518036,0.00017246447912,-0.00129442275804,0.00277072522466,-0.0175493738523,0.00525328934259,0.0100089707843,-0.0987935364246,-0.11458556354,0.0237883962691,-0.0168774202466,0.0337018445134,-0.094313070178
2017/07/09/09:35:52.679120,253734,1499564155,478829217,,0.856828765573,-0.0558465034557,0.160065538631,0.727868140148,0.674419752137,0.0650122156001,0.105543262727,-0.00566664593026,0.00232271069189,-0.0166650643288,-0.00535179207589,0.0238207526345,0.016743113889,-0.0264066271484,-0.341328859329,0.335985094309,0.0783409997821,0.0421223342419,-0.0517881065607
2017/07/09/09:35:52.689271,253735,1499564155,488828265,,0.856762159455,-0.0552858490164,0.160079650432,0.727880254855,0.674461567919,0.0651447108078,0.105109916972,0.000285334201936,-0.00679841797871,0.00142367717652,-0.00788981829103,-0.00811263697057,0.0006641790449,-0.43282225728,0.0944686979055,-0.0199272595346,0.0377826020122,-0.125752359629,-0.0521722063422
2017/07/09/09:35:52.700315,253736,1499564155,499826005,,0.856421985706,-0.0559827719195,0.160203553337,0.72794370179,0.674393640845,0.0648895701151,0.105264086475,-0.00625713756165,0.00255657337019,-0.0141831287368,-0.00169385891626,0.0246244474069,0.0109463322223,0.186232611537,-0.104874998331,0.49038079381,0.0582919940352,0.164406657219,-0.0993803665042
