time,.header.seq,.header.stamp.secs,.header.stamp.nsecs,.header.frame_id,.pose.position.x,.pose.position.y,.pose.position.z,.pose.orientation.x,.pose.orientation.y,.pose.orientation.z,.pose.orientation.w,.twist.linear.x,.twist.linear.y,.twist.linear.z,.twist.angular.x,.twist.angular.y,.twist.angular.z,.wrench.force.x,.wrench.force.y,.wrench.force.z,.wrench.torque.x,.wrench.torque.y,.wrench.torque.z
2017/07/09/09:36:58.740158,260340,1499564221,539717805,,0.76144248116,0.55521341277,0.252857413636,0.601503425499,0.793577970203,0.0457330669172,0.0795997544664,0.0597530012585,-0.291778661366,0.0170708786508,-0.0892203519959,0.114483226596,-0.382658898176,2.26811170578,1.40719556808,1.38885593414,-0.733888983727,0.886698126793,-0.0487798899412
2017/07/09/09:36:58.750026,260341,1499564221,549714844,,0.762418789589,0.552062044153,0.253365764821,0.603069749622,0.792386462547,0.0449925640634,0.0800389920074,0.0481543487555,-0.279888342839,0.0116059171978,-0.0965913218968,0.118488172731,-0.364639633279,2.08239769936,1.31096184254,1.67443358898,-0.715389728546,0.867446780205,-0.0315484255552
2017/07/09/09:36:58.760048,260342,1499564221,559715375,,0.762832602517,0.549950518807,0.253931144833,0.604148256329,0.791572227832,0.0446457597035,0.0801564011191,0.0466253520341,-0.26110625028,0.0162892153583,-0.0732736561027,0.0953759365858,-0.357147046089,2.06893229485,1.35187363625,1.8885935545,-0.704773485661,0.90762680769,-0.0299132168293
2017/07/09/09:36:58.769765,260343,1499564221,569707722,,0.762721395443,0.547630425636,0.253927048634,0.605679367423,0.790523789582,0.0436774729413,0.0794790559897,0.0346118316858,-0.268724526916,0.0128680748671,-0.087052586092,0.130613119146,-0.345048547252,3.07381033897,1.5877404213,2.00513768196,-0.778248846531,1.24722337723,-0.0472261160612
2017/07/09/09:36:58.780098,260344,1499564221,579714737,,0.763680653602,0.544279999785,0.254103354139,0.607021205864,0.789513535043,0.0429561713777,0.0796768533236,0.0464100016255,-0.290268182406,0.0350515822075,-0.0643356203407,0.113045596217,-0.402192492193,3.96159791946,2.07549524307,2.04010987282,-0.96911329031,1.51405131817,-0.101472750306
2017/07/09/09:36:58.790143,260345,1499564221,589710880,,0.764325521204,0.541888121428,0.254263362022,0.608748590723,0.78823188038,0.0427794921605,0.0792815936771,0.044346455633,-0.287078363997,0.0260265268824,-0.0454690412742,0.117545456307,-0.404567820595,4.57278203964,2.37566900253,1.9252923727,-1.05344998837,1.68648600578,-0.101525828242
2017/07/09/09:36:58.800014,260346,1499564221,599711781,,0.764734304755,0.539144872577,0.25524171176,0.610086292531,0.787214336579,0.0422583603315,0.0793885062945,0.0508422803644,-0.273369100816,0.0282220370847,-0.037761884626,0.102283463701,-0.374125461935,4.87585830688,2.45217967033,1.83427286148,-1.08622193336,1.72709906101,-0.0973486304283
2017/07/09/09:36:58.809876,260347,1499564221,609709718,,0.765312429092,0.536236376708,0.255271430456,0.611433853755,0.786209282972,0.0414855692861,0.0793886225589,0.0450266318272,-0.277902264945,0.0344073311024,-0.0754133303129,0.0891456161578,-0.353090708287,4.26353263855,2.04589295387,1.7512537241,-0.902929246426,1.44986617565,-0.0443679392338
2017/07/09/09:36:58.820084,260348,1499564221,619714564,,0.766226796995,0.533591901181,0.255418099908,0.61312467646,0.784893365639,0.0411264339586,0.079555968488,0.0527982763277,-0.282886320237,0.0377889631749,-0.0641666475331,0.0683730001093,-0.390735390009,4.41437387466,2.14797782898,2.09605002403,-0.890500068665,1.55588519573,-0.0372014343739
2017/07/09/09:36:58.830137,260349,1499564221,629714076,,0.766231098026,0.530942376486,0.255771786114,0.6144810725,0.783935454719,0.0401929381526,0.0790110251624,0.0639779421827,-0.284602620663,0.0259889261739,-0.053118554286,0.0578206428903,-0.396325014273,4.60185003281,1.99068188667,2.13542890549,-0.941506445408,1.59500002861,-0.0686573684216
2017/07/09/09:36:58.839972,260350,1499564221,639713189,,0.767161756673,0.528322852776,0.256655853914,0.615789257924,0.78284879324,0.0402495887905,0.0795696383721,0.0566554961688,-0.277015217094,0.0339186631257,-0.0290171538171,0.0692533079613,-0.376562163674,4.36344814301,2.00853610039,2.05112147331,-0.889681518078,1.52327048779,-0.0512693375349
2017/07/09/09:36:58.850685,260351,1499564221,649711768,,0.767845328875,0.525530683244,0.257123640162,0.617385978507,0.781619118083,0.040010433848,0.0794057489938,0.0612089959654,-0.263661813359,0.0412644799341,-0.0213792733452,0.0425083827968,-0.371326170545,4.9200630188,2.09876394272,2.23497962952,-0.920701026917,1.7748695612,-0.0393136739731
2017/07/09/09:36:58.859970,260352,1499564221,659708855,,0.768702879513,0.522731893818,0.257737826429,0.618765467052,0.780515462748,0.039733455604,0.0796627999827,0.0696596808541,-0.284571499899,0.0385704247028,-0.012506968924,0.0455095799354,-0.40660486563,4.60257434845,2.16054487228,2.13840508461,-0.965456843376,1.61150097847,-0.0657200962305
2017/07/09/09:36:58.870227,260353,1499564221,669713195,,0.768775542222,0.519870707715,0.257843046276,0.620291625363,0.77937829938,0.0386957380928,0.0794380627512,0.0718792933558,-0.296670402625,0.0441442334525,-0.0531475453125,0.0251639175847,-0.391055409018,4.45613718033,2.23140120506,2.14973258972,-1.013448596,1.60236763954,-0.0508286207914
2017/07/09/09:36:58.879901,260354,1499564221,679714766,,0.769941173739,0.516401258688,0.257919884214,0.621842189605,0.778127172806,0.0383329014179,0.0797557699304,0.0679174493808,-0.2839416668,0.0577350177425,-0.0308145160162,0.0154275045321,-0.402094012646,4.35185241699,2.04037833214,2.09754729271,-0.94344496727,1.53781569004,-0.0273274034262
2017/07/09/09:36:58.890227,260355,1499564221,689709488,,0.770793898063,0.514215188815,0.258768588073,0.62372028278,0.776627284554,0.0385860551794,0.0795876000482,0.0792968043722,-0.315904710806,0.0461190321817,-0.0555467396898,0.0248578546345,-0.426659665136,4.62942028046,1.91916537285,1.88293743134,-0.877182602882,1.6424665451,-0.0278313755989
2017/07/09/09:36:58.900036,260356,1499564221,699713559,,0.770722822018,0.511125799648,0.25848790232,0.624934468494,0.775751583668,0.0371814951383,0.0792712239388,0.0786938770605,-0.30814285225,0.0497407188713,-0.0148851018675,0.0245952663939,-0.452706661962,4.74910879135,2.1229789257,1.88065326214,-0.926616728306,1.71872878075,-0.0251425951719
2017/07/09/09:36:58.910259,260357,1499564221,709706737,,0.771890770263,0.507874867209,0.259507931416,0.626735800295,0.774243830134,0.0371507877581,0.0798031772328,0.0636892819275,-0.310087582503,0.0245568491448,-0.0640040295027,0.0627439902012,-0.40317899823,5.1401720047,1.88399088383,1.87284314632,-0.802280306816,1.91294622421,-0.011897623539
2017/07/09/09:36:58.919873,260358,1499564221,719721209,,0.772851143835,0.505491224024,0.260000164662,0.627663380271,0.773439839926,0.0370676237796,0.0803460412813,0.067828500706,-0.31573610168,0.0356779726167,-0.0687983742492,0.046107302047,-0.409149927319,5.54308986664,2.19859886169,2.05679488182,-0.938081681728,2.07847189903,-0.0409690290689
2017/07/09/09:36:58.929939,260359,1499564221,729707300,,0.773002905058,0.501964523391,0.259691102879,0.629901978711,0.771725151734,0.0359490028481,0.0798214043477,0.0689709166015,-0.312270231576,0.0395642462958,-0.0509331758283,0.033707138513,-0.419500382986,5.14397668839,2.12341380119,2.08184766769,-0.91747713089,1.91527020931,-0.0608983188868
2017/07/09/09:36:58.939935,260360,1499564221,739716103,,0.77327594644,0.498906611521,0.259604815004,0.631019777316,0.770890181869,0.0348772798581,0.079535800016,0.0636003524974,-0.350011897525,0.030965460369,-0.052727315246,0.0722268220603,-0.493762402701,4.60358667374,1.875395298,2.12633490562,-0.809350311756,1.7125017643,-0.0122547894716
2017/07/09/09:36:58.950000,260361,1499564221,749714214,,0.773911645811,0.496250420612,0.26048010529,0.632408943169,0.769732902567,0.0349468838559,0.0796800013496,0.0495954334594,-0.31060761625,0.0258429470863,-0.0320156314232,0.0881433837523,-0.422240272976,5.2235956192,2.18751144409,2.22068047523,-0.928591191769,1.9353530407,-0.0531515628099
2017/07/09/09:36:58.959998,260362,1499564221,759709530,,0.775043934458,0.492421402685,0.26085123038,0.634804417473,0.767756781328,0.0343952871601,0.0799364779276,0.0598377810545,-0.320376054183,0.0500380810286,-0.0481256722283,0.0406278921703,-0.432521768871,4.61031770706,1.84845006466,2.03377079964,-0.841489672661,1.68982625008,-0.05956633389
2017/07/09/09:36:58.969798,260363,1499564221,769712125,,0.775022133413,0.48851348783,0.260079651753,0.636670123297,0.766352918756,0.0328282133095,0.0792254152805,0.0616309429723,-0.369763570387,0.0275979712584,-0.0762043283411,0.0846236753277,-0.503652588681,4.90636062622,1.8430492878,1.8382692337,-0.806951999664,1.79680788517,-0.033917978406
2017/07/09/09:36:58.979992,260364,1499564221,779712516,,0.776031340044,0.484655253758,0.26048757623,0.638363994208,0.764944865425,0.0323827628081,0.079385895671,0.061025797788,-0.361893312839,0.0214057934313,-0.0714882555757,0.0815413245596,-0.4677172287,5.75750923157,2.18417358398,1.49866700172,-0.929206669331,2.1333835125,-0.0962624102831
2017/07/09/09:36:58.989747,260365,1499564221,789710178,,0.776723984345,0.48168565504,0.261206680023,0.64006048521,0.763482207116,0.0322705347178,0.079850530862,0.0545294292389,-0.327519961087,0.0216258796012,-0.0335821035785,0.0681853439779,-0.427779015862,6.36185359955,2.38785791397,1.36053478718,-1.04776537418,2.43087744713,-0.0887365192175
2017/07/09/09:36:58.999818,260366,1499564221,799720993,,0.777550771441,0.47876612299,0.261472725287,0.641808271139,0.761994799247,0.0320471559532,0.0801189666245,0.0566433949818,-0.318922622428,0.0266149029543,-0.0165352764849,0.0561172589975,-0.440266085974,7.03679132462,2.64271044731,1.37832391262,-1.09886729717,2.70355653763,-0.135900229216
2017/07/09/09:36:59.010068,260367,1499564221,809720212,,0.777192119818,0.475999212159,0.261245046918,0.643037670203,0.761093373081,0.031093891973,0.0791997603138,0.0625716785432,-0.348752965667,0.0207976973711,-0.0528791789504,0.055330063453,-0.47281682158,6.55851554871,2.48460912704,1.39491534233,-1.0767762661,2.52530527115,-0.119844123721
2017/07/09/09:36:59.019955,260368,1499564221,819720690,,0.778026438147,0.472467568877,0.261494567293,0.644796230624,0.759600562331,0.0306365437298,0.0794116418926,0.0374168744363,-0.336299074313,0.00756667323521,-0.0551106982997,0.0947486350749,-0.439095166747,4.8784942627,1.77473843098,1.63294112682,-0.811979293823,1.91354727745,-0.0517867952585
2017/07/09/09:36:59.029739,260369,1499564221,829710733,,0.778522040378,0.470142761637,0.26221796606,0.646343895032,0.758293731459,0.0308393058207,0.0792409199908,0.0523175657942,-0.334062632813,0.0227555621724,-0.0536673791897,0.045167786912,-0.440849847165,3.49505281448,1.17105877399,1.82317137718,-0.596261262894,1.43561720848,0.00314374268055
2017/07/09/09:36:59.040210,260370,1499564221,839715409,,0.779318531845,0.465174022395,0.262137983731,0.648403003219,0.756534491507,0.0295098957711,0.0797387899894,0.0494478495548,-0.341619460143,0.0250764558253,-0.0401589221504,0.048405035806,-0.432843263898,3.02584457397,1.01814162731,1.96525681019,-0.565357983112,1.25805640221,-0.00413829088211
2017/07/09/09:36:59.049962,260371,1499564221,849734369,,0.77943282384,0.463010515118,0.261379441008,0.649181451828,0.755932504863,0.0290088791592,0.0792967567058,0.0602577802647,-0.355717494366,0.00906575908956,-0.062911822774,0.0334995792117,-0.464196195694,3.30539703369,1.06082463264,1.99663937092,-0.520924985409,1.3443300724,0.0156385600567
2017/07/09/09:36:59.060136,260372,1499564221,859736758,,0.780227694329,0.459039179928,0.261477018548,0.650982328598,0.754365691304,0.0285053249893,0.0796357839404,0.041805220832,-0.354098095596,0.00391181456869,-0.0509994249622,0.0735482490266,-0.444630688074,3.36814165115,1.12392425537,1.82708668709,-0.537402331829,1.35701501369,0.00566744804382
2017/07/09/09:36:59.070072,260373,1499564221,869709139,,0.780637031468,0.455288050455,0.261602431402,0.653356737977,0.752329556938,0.0279699968922,0.079642262469,0.0526658311474,-0.359508468493,-0.00483097783322,-0.0585175249036,0.0495012052316,-0.452263336393,4.21973800659,1.44664990902,1.60041832924,-0.628590345383,1.68523228168,-0.0426545292139
2017/07/09/09:36:59.080051,260374,1499564221,879720699,,0.781271646718,0.451956075368,0.262144571466,0.65468926731,0.751135233689,0.0277832357421,0.080036965162,0.0529139573148,-0.377147983025,-0.00435776184775,-0.0662696460006,0.0427282597143,-0.48882206987,4.370262146,1.50446927547,1.42156946659,-0.631821870804,1.74106037617,-0.0499084740877
2017/07/09/09:36:59.089931,260375,1499564221,889712157,,0.781946884171,0.447215718187,0.261526907396,0.656803148204,0.749304075264,0.0265822638207,0.0802895419837,0.0622303502146,-0.396522007978,-0.00756009958753,-0.0712264737312,0.0388548288084,-0.495570560473,4.03075504303,1.37663710117,1.41513931751,-0.567836642265,1.67253446579,-0.0577714443207
2017/07/09/09:36:59.099946,260376,1499564221,899711489,,0.78236488443,0.445160869735,0.262142665516,0.658091773405,0.748146609283,0.0269521433555,0.0804080267299,0.0669887595755,-0.379185097821,-0.000911304639695,-0.0515948227189,0.0104466909644,-0.488066871914,4.0083656311,1.31306242943,1.61136806011,-0.596746206284,1.66833770275,-0.0712626576424
2017/07/09/09:36:59.110168,260377,1499564221,909713347,,0.783118107487,0.440174334929,0.262129276894,0.659809382131,0.746636344219,0.0260345079747,0.0806718856743,0.0492439998078,-0.364892810437,-0.00830203786639,-0.0368695021558,0.0353777008182,-0.469135976149,3.12856078148,0.992434322834,1.71281135082,-0.430778414011,1.37653720379,-0.0512637421489
2017/07/09/09:36:59.119930,260378,1499564221,919715734,,0.783706796771,0.437274228269,0.262168273086,0.661940976923,0.744777306492,0.0263507786127,0.0802903684865,0.0461947005895,-0.375448455401,-0.0125886960056,-0.0183303270116,0.0588768217372,-0.496044245232,2.45822954178,0.789856135845,1.67940843105,-0.361528396606,1.11459755898,-0.0072820931673
2017/07/09/09:36:59.129880,260379,1499564221,929709382,,0.783641766739,0.433947139989,0.261650909308,0.663475825249,0.74349321757,0.0254513259941,0.0798116203446,0.0335775490164,-0.370037737364,-0.0177720329208,-0.0371652896357,0.0783861168602,-0.468967759406,2.15980052948,0.712568163872,1.73272693157,-0.378301441669,1.02350974083,0.0158537179232
2017/07/09/09:36:59.139971,260380,1499564221,939713866,,0.784130380822,0.430709978014,0.261360749433,0.664979397239,0.742162307962,0.0248690046614,0.0798689081954,0.0325853294051,-0.390550391097,-0.0354479087087,-0.0515526672896,0.0982477229929,-0.509736976715,2.15977358818,0.627931177616,1.56877350807,-0.376545250416,1.01422512531,-0.038677111268
2017/07/09/09:36:59.149894,260381,1499564221,949706321,,0.784484641631,0.42659063537,0.26122071083,0.66693711515,0.740406527902,0.0241978061196,0.0800470115323,0.027943244321,-0.392269237081,-0.0363857889269,-0.0411833058345,0.110512454586,-0.51660624245,2.47018909454,0.733275771141,1.31688439846,-0.360241442919,1.14094817638,0.00833183526993
2017/07/09/09:36:59.159961,260382,1499564221,959714916,,0.784791065939,0.421961841524,0.260648161183,0.669198846556,0.738420809643,0.0232163687872,0.0798035830967,0.0423555825287,-0.374917410126,-0.0173876712643,-0.0323088917383,0.0495084759619,-0.473107964394,2.55047440529,0.852533996105,1.01852524281,-0.399646997452,1.17848861217,-0.0343062281609
2017/07/09/09:36:59.169972,260383,1499564221,969707676,,0.785135023793,0.418853357117,0.260628069852,0.670461437708,0.737290572819,0.0230159032795,0.0797141140333,0.0376750664479,-0.41647595679,-0.020380862777,-0.0590113410578,0.0621432404579,-0.514516646863,2.43866848946,0.820661902428,1.07777905464,-0.411723256111,1.14967012405,-0.0487704500556
2017/07/09/09:36:59.180199,260384,1499564221,979710088,,0.785765920767,0.414106443278,0.260237899185,0.672196599887,0.735693265942,0.0220265617476,0.0801372580412,0.033702880101,-0.398968471579,-0.0299225322318,-0.0509651579239,0.0699127162689,-0.505169971848,2.22623538971,0.777739882469,1.09755110741,-0.402446061373,1.10018324852,-0.0709153041244
2017/07/09/09:36:59.190098,260385,1499564221,989708292,,0.785580719164,0.410264235734,0.259538178546,0.674316817311,0.733827530965,0.0211401327506,0.0796685601535,0.0345427461757,-0.41644729085,-0.0359604828007,-0.0484848481738,0.0725154443868,-0.538071864257,1.79123210907,0.647397398949,1.45966160297,-0.353501230478,1.01387906075,-0.0685623064637
2017/07/09/09:36:59.200140,260386,1499564221,999712031,,0.786249160352,0.406616203844,0.259710040262,0.67590233077,0.732348719836,0.020986749986,0.079880837128,0.0334400301344,-0.416630837574,-0.0326355534901,-0.0430791367076,0.0676740012533,-0.524207394741,1.21713864803,0.32482650876,1.4909838438,-0.247398808599,0.791907429695,-0.0171846970916
2017/07/09/09:36:59.210083,260387,1499564222,9708067,,0.786682908413,0.403269582663,0.259374639974,0.677447471707,0.73092484793,0.0209129247072,0.0798526100814,0.03176406226,-0.387466649901,-0.0310922075947,-0.0214090282674,0.0581522353651,-0.47881054679,0.482147991657,0.357635915279,1.30490493774,-0.27960434556,0.492808759212,-0.0457424074411
2017/07/09/09:36:59.220050,260388,1499564222,19714978,,0.787124057789,0.398809686529,0.258884225217,0.679407145123,0.729128317599,0.0203179033054,0.0797810155092,0.0268404945342,-0.397248103886,-0.0482494815012,-0.026344425563,0.0717930381407,-0.49259359392,0.982239842415,0.258251845837,1.29263305664,-0.232539579272,0.700011730194,-0.0227801725268
2017/07/09/09:36:59.230266,260389,1499564222,29709680,,0.787420395408,0.394926571309,0.258250274595,0.681604253654,0.727099663145,0.0198199700743,0.0796799224456,0.0420614550256,-0.412749523594,-0.0345675710497,-0.0151443940915,0.0295475940537,-0.548781858602,1.20675730705,0.226597875357,1.21869647503,-0.253650903702,0.784957051277,-0.0326173678041
2017/07/09/09:36:59.240199,260390,1499564222,39714411,,0.787815129059,0.39156867676,0.258183482812,0.683043709689,0.725746327744,0.0196563567459,0.0797319638484,0.0496381096817,-0.42074012744,-0.0191921388173,-0.0186193372287,-0.00978818575802,-0.549324799082,1.64086127281,0.441337257624,1.17729473114,-0.28086617589,0.927171528339,-0.0614405199885
2017/07/09/09:36:59.249663,260391,1499564222,49707097,,0.788398564044,0.387421299142,0.257676541334,0.684923182507,0.723972434524,0.0193617607677,0.079807708489,0.0359138984002,-0.408232301048,-0.0373249799101,-0.0437447990037,0.0250469303179,-0.510406826617,2.00597882271,0.472015559673,1.21193170547,-0.314377754927,1.0228792429,-0.06719917804
2017/07/09/09:36:59.259937,260392,1499564222,59706382,,0.788640005144,0.383867652616,0.257216417003,0.686436284747,0.722547888389,0.0191004758925,0.0797806228922,0.0367323816932,-0.387948712702,-0.0530357217989,-0.0147134785328,0.0288395816529,-0.483328888797,2.26152276993,0.634910523891,1.13145744801,-0.368806064129,1.06219983101,-0.125907942653
2017/07/09/09:36:59.270107,260393,1499564222,69707756,,0.78951870829,0.379779894764,0.257739383253,0.688556113317,0.720440638284,0.019567006483,0.0804543210758,0.0393417833213,-0.402034742957,-0.033002905275,-0.00576812892386,0.00966999890306,-0.5023416629,1.91760718822,0.4325915277,1.19788050652,-0.275879472494,0.929685175419,-0.0908163189888
2017/07/09/09:36:59.279861,260394,1499564222,79713147,,0.78955155484,0.375786664396,0.256221815853,0.690284909947,0.718853259661,0.0182366257484,0.0801508556062,0.0504150379031,-0.407238287839,-0.0367130749695,-0.0259162348235,-0.0266906316015,-0.495003510981,1.18405008316,0.497786402702,1.27682876587,-0.367273628712,0.659113049507,-0.130980089307
2017/07/09/09:36:59.289901,260395,1499564222,89707261,,0.790531331828,0.37238322238,0.2565326338,0.691600044823,0.717513505228,0.019369120741,0.0805517534179,0.0489474903762,-0.38902362764,-0.0429635941037,-0.00319741553649,-0.0341074985497,-0.49957578381,1.41726970673,0.664615154266,1.3440836668,-0.435672581196,0.789192974567,-0.147920355201
2017/07/09/09:36:59.299673,260396,1499564222,99712764,,0.790756473063,0.36784309885,0.255776737322,0.693861485436,0.715341656495,0.0184598127544,0.0806336705436,0.0555081072074,-0.371517981925,-0.0414575013019,0.0329865730268,-0.0546107620927,-0.495282442784,1.19325089455,0.486876189709,1.22837853432,-0.398927718401,0.73482221365,-0.122280284762
2017/07/09/09:36:59.309723,260397,1499564222,109707870,,0.791733094336,0.365068290673,0.256039400456,0.695499679743,0.713672461855,0.019774130562,0.0809987433727,0.0607649017885,-0.392472190856,-0.0446736178426,0.0219412901258,-0.0671360040352,-0.515666340216,1.34488868713,0.497262388468,1.09768354893,-0.387415379286,0.788626670837,-0.113449163735
2017/07/09/09:36:59.319915,260398,1499564222,119711652,,0.791870125626,0.361559640079,0.255009121085,0.69703031774,0.712201778973,0.0192162424086,0.0809203201017,0.0617826056239,-0.40728804282,-0.0507683759584,0.0173367968011,-0.0654097407163,-0.531451671133,1.8995500803,0.424784421921,1.00681471825,-0.416802018881,0.969104170799,-0.136524111032
2017/07/09/09:36:59.329789,260399,1499564222,129708703,,0.792556731804,0.357567758569,0.254440717968,0.698569718129,0.710658438928,0.0192991610494,0.0811940544429,0.0612485731721,-0.385741150809,-0.0390657060343,0.0310705951349,-0.0825866119898,-0.493751716441,1.26884841919,0.224573329091,0.824824512005,-0.303682714701,0.709940195084,-0.102853506804
2017/07/09/09:36:59.340017,260400,1499564222,139715729,,0.793514236973,0.354306269042,0.254459309622,0.700252868373,0.708899954637,0.0198565057526,0.0819298103837,0.0690656228201,-0.3567417527,-0.0292736428832,0.0237555658008,-0.123221366568,-0.440464808486,0.865470290184,0.0956691205502,0.858132183552,-0.259472876787,0.558287799358,-0.061002664268
2017/07/09/09:36:59.349823,260401,1499564222,149710714,,0.794044527696,0.35018749924,0.253953406983,0.702029024742,0.7071133528,0.0199395443443,0.0821484588013,0.0635184177382,-0.378635678652,-0.0327194435293,0.0139928434034,-0.110236877225,-0.490773359492,1.23976433277,-0.0105340350419,0.861769199371,-0.186408817768,0.670624434948,-0.0849409624934
2017/07/09/09:36:59.359961,260402,1499564222,159708009,,0.794464479507,0.346343379179,0.253193108622,0.703399499437,0.705741700838,0.0198687300443,0.0822376401466,0.0579027785445,-0.379806668783,-0.0565767845938,0.0221802669216,-0.0841233698204,-0.467128482657,1.35524582863,0.070213265717,0.87131100893,-0.256853044033,0.678884029388,-0.101965129375
2017/07/09/09:36:59.369772,260403,1499564222,169710062,,0.794846410917,0.342841943812,0.252480305802,0.705202973276,0.70392723841,0.0199460776852,0.0823247441069,0.0691565202891,-0.376315901817,-0.0537590842541,0.0351162193453,-0.112994782959,-0.46999332376,1.56987369061,0.166691213846,0.922569513321,-0.309020340443,0.751202642918,-0.119012437761
2017/07/09/09:36:59.379883,260404,1499564222,179716096,,0.79586637847,0.339589899052,0.252391748825,0.706573382852,0.702439018066,0.0207023558592,0.0830956858358,0.073003008201,-0.359364856369,-0.0351716268139,0.0457640945993,-0.149809601885,-0.475909055544,1.28947806358,0.325484156609,0.892868340015,-0.405580788851,0.643610477448,-0.146329209208
2017/07/09/09:36:59.390014,260405,1499564222,189709688,,0.797044269437,0.334933898906,0.252484456004,0.70852262824,0.700329120989,0.0213091012033,0.0841470722775,0.0708722475697,-0.370104645776,-0.0474092123949,0.0377939386484,-0.141449812631,-0.478088192954,0.866385519505,0.182833701372,0.774036109447,-0.373990237713,0.451347470284,-0.0973562449217
2017/07/09/09:36:59.400000,260406,1499564222,199709019,,0.79712959037,0.332357120471,0.251223604284,0.710137129614,0.698768427478,0.0217795216966,0.0833882146253,0.072356178248,-0.38134152515,-0.037303247785,0.0170002889341,-0.157889827429,-0.463486490585,0.830115318298,0.117015227675,0.533743321896,-0.313356250525,0.441908717155,-0.0977283641696
2017/07/09/09:36:59.409729,260407,1499564222,209708285,,0.7981038092,0.328908671222,0.251556312564,0.711168202283,0.697541019465,0.0221354548096,0.0847722588195,0.0632906428715,-0.373358558902,-0.0451625342885,0.0137726111028,-0.142537779665,-0.459993290653,1.06113696098,0.0768822729588,0.549421131611,-0.263946443796,0.560343205929,-0.0575205981731
2017/07/09/09:36:59.419991,260408,1499564222,219714919,,0.798375157664,0.325008868728,0.250824284278,0.713040529871,0.695635316609,0.0223544756128,0.0846462430856,0.0657760492028,-0.353362267171,-0.0403659642098,0.0279543175685,-0.156028330292,-0.442276267097,0.955920934677,0.103229120374,0.530259370804,-0.307575911283,0.502057254314,-0.0804800093174
2017/07/09/09:36:59.429792,260409,1499564222,229709861,,0.798970880964,0.321780746419,0.250342202895,0.714526684621,0.694033254201,0.0226575789652,0.0851827044816,0.0599402039862,-0.357666146441,-0.0527904944842,0.0322380555815,-0.13343059299,-0.444931938886,0.893765151501,0.135280668736,0.474186837673,-0.306155204773,0.483478009701,-0.0793876200914
2017/07/09/09:36:59.440047,260410,1499564222,239733137,,0.80005970975,0.317713293491,0.250060870908,0.716003543279,0.692362647091,0.0233001829128,0.0861974036843,0.0779713734814,-0.385442195771,-0.0450103301905,0.0259094958079,-0.181870217105,-0.472780550914,1.15445768833,0.237049669027,0.460052788258,-0.304313421249,0.604725062847,-0.0914806649089
2017/07/09/09:36:59.449800,260411,1499564222,249707497,,0.800480981542,0.315141472722,0.249195002193,0.717266614582,0.691027848216,0.0237370367472,0.086288294002,0.0652728671549,-0.382814808969,-0.0490505797473,0.0178226975315,-0.15506287086,-0.459263553369,0.982476115227,0.25178873539,0.330902844667,-0.357432067394,0.493853718042,-0.107909552753
2017/07/09/09:36:59.459842,260412,1499564222,259712432,,0.801101287676,0.311081851798,0.248750889713,0.71875100545,0.689376503354,0.0238875395085,0.0871000243664,0.0590166865434,-0.356500418794,-0.0558079793023,0.0219712763823,-0.149461733575,-0.422090022168,1.4723521471,0.323808699846,0.577133536339,-0.364329278469,0.68847233057,-0.114286214113
2017/07/09/09:36:59.470319,260413,1499564222,269712610,,0.80156767966,0.307579412229,0.24832622543,0.720601087813,0.687425138719,0.0244359572174,0.0870840679718,0.0430355897393,-0.365637902174,-0.0650624284135,0.0201167203249,-0.103706174363,-0.452980460298,1.02214848995,0.278151541948,0.658559024334,-0.372349917889,0.531340658665,-0.12047432363
2017/07/09/09:36:59.480121,260414,1499564222,279716968,,0.801865014832,0.304049348856,0.247570861339,0.722287826066,0.685618536933,0.0245318632197,0.0873252873901,0.0318442604541,-0.377545182488,-0.0536398064221,0.0257502567419,-0.0921454395537,-0.477159153878,0.70752453804,0.246448040009,0.623849987984,-0.323355853558,0.354018390179,-0.0866869240999
2017/07/09/09:36:59.489979,260415,1499564222,289719343,,0.801976240868,0.300859444516,0.247257825294,0.722985488214,0.684836967545,0.0246763140352,0.0876435464851,0.0377320569457,-0.380815442632,-0.0583384453033,0.00682067934649,-0.105566562257,-0.489139077057,-0.670402944088,-2.97961950302,0.470397531986,0.431143432856,-0.222395136952,0.0977685898542
2017/07/09/09:36:59.499966,260416,1499564222,299708337,,0.801501184947,0.296640331561,0.245997911327,0.724940246041,0.682832046716,0.0240078066255,0.0873250300216,0.0347579392941,-0.379984490061,-0.0532341119789,3.0262978338e-05,-0.10416495531,-0.464303972397,-1.61574602127,-3.35161423683,0.000677034258842,0.482572942972,-0.492630153894,0.149594441056
2017/07/09/09:36:59.509735,260417,1499564222,309709295,,0.80249241027,0.292823407537,0.245592275067,0.726809945818,0.680729808431,0.0245100247798,0.0880538997395,0.0222530540933,-0.39075890535,-0.0571954322553,-0.00598913938477,-0.0754283223312,-0.456116102347,-0.779885411263,-1.95794022083,0.561292827129,0.0921448916197,-0.219990700483,0.0632606446743
2017/07/09/09:36:59.519808,260418,1499564222,319712677,,0.802372874672,0.289238336314,0.244867440329,0.727826145077,0.67961516332,0.0242137719385,0.0883517151912,0.0256144257526,-0.375477806648,-0.0668566215651,0.0184050607751,-0.0794097637488,-0.473902687114,-0.75795853138,-2.05956602097,0.271227657795,0.420000165701,-0.135455682874,0.242698282003
2017/07/09/09:36:59.529868,260419,1499564222,329707413,,0.802666973296,0.285822768572,0.243879637957,0.729335492547,0.677982879673,0.0243783812691,0.0884005017413,0.00698392777061,-0.370321091218,-0.0699101486031,0.0149218875681,-0.0476898521785,-0.454913896683,-1.62332105637,-2.58015727997,-0.411696314812,0.747032701969,-0.496308207512,0.361517429352
2017/07/09/09:36:59.539763,260420,1499564222,339709785,,0.802870765615,0.28149817314,0.243652731324,0.731077469526,0.676035624905,0.0240895812396,0.0890014577819,0.0015161256801,-0.383352198573,-0.0691136735541,-0.0332348449303,-0.0299044797149,-0.435432322935,-1.75999999046,-2.86044359207,-0.0411529913545,0.747709572315,-0.610441029072,0.310254722834
2017/07/09/09:36:59.549739,260421,1499564222,349707805,,0.802321829685,0.278546920689,0.242755875825,0.732058996585,0.675022324116,0.0234803824686,0.0887871561847,-0.000566979686806,-0.392597826749,-0.0731050726132,-0.0589689995262,-0.00647549607952,-0.436069188489,-1.26831138134,-0.445876300335,-0.528632998466,-0.483952850103,-0.436258733273,-0.0808623731136
2017/07/09/09:36:59.559937,260422,1499564222,359712414,,0.802163525441,0.274842427195,0.241930228525,0.733829834875,0.673115747587,0.0228670144984,0.0888035103278,-0.0263246223928,-0.380984178025,-0.10029584932,-0.0466663623739,0.0615745259294,-0.447671653738,-0.240647658706,2.47096800804,0.255678027868,-1.73037791252,-0.0811573043466,-0.463350594044
2017/07/09/09:36:59.570007,260423,1499564222,369708397,,0.801881383393,0.270827640247,0.241120897597,0.735477605927,0.671312874506,0.022266310776,0.0889714960323,-0.0293010555757,-0.346666070299,-0.0862287022649,-0.0225571893526,0.0558504534182,-0.422624216045,0.0089074447751,2.54522562027,0.189957305789,-1.99672174454,-0.00963545590639,-0.520148456097
2017/07/09/09:36:59.580163,260424,1499564222,379709092,,0.801994562441,0.267625022654,0.240739754781,0.73659935892,0.67009364132,0.0224416445345,0.0888384426469,-0.0225036183799,-0.366081057953,-0.0700924808855,-0.0160566589797,0.0364893558454,-0.466887526932,-0.11900511384,2.14036393166,0.705770432949,-1.48581457138,-0.0166879687458,-0.290410935879
2017/07/09/09:36:59.589963,260425,1499564222,389709411,,0.801784156094,0.263540041213,0.240161822722,0.738175660415,0.668289551727,0.0215609176927,0.0895594565158,-0.0314173885081,-0.399208848644,-0.0803564381429,-0.0465364007381,0.0623342266886,-0.502148119796,-1.05655097961,-0.0711394920945,0.850501716137,-0.373227626085,-0.392623633146,0.0459207370877
2017/07/09/09:36:59.599853,260426,1499564222,399714332,,0.801186958388,0.259384797071,0.239400130069,0.739571279042,0.666775330061,0.0199610054198,0.0897025122302,-0.0400684570865,-0.428711994831,-0.0675697516313,-0.145352415231,0.082085218096,-0.482235775059,-1.94177258015,-1.35873115063,0.814557850361,0.149860560894,-0.683826088905,0.201634913683
2017/07/09/09:36:59.609892,260427,1499564222,409711955,,0.800649140894,0.255321010932,0.238711366857,0.740800612421,0.665377697168,0.0188506312477,0.0901755313257,-0.04665877945,-0.431996324601,-0.0583634261315,-0.218436354297,0.0842754366182,-0.437854935248,-1.92228662968,-1.20845448971,0.985767483711,0.203988999128,-0.579093754292,0.183263659477
2017/07/09/09:36:59.620098,260428,1499564222,419714172,,0.800008143504,0.251587631088,0.23793612648,0.741813895302,0.664284314738,0.017618145866,0.0901559474849,-0.0546215969429,-0.411491033593,-0.0565286682332,-0.218967532682,0.101253870087,-0.372560285845,-2.36028194427,-1.22987961769,0.918364048004,-0.0347823277116,-0.735316097736,0.0860852524638
2017/07/09/09:36:59.629784,260429,1499564222,429707028,,0.799113471509,0.248093338696,0.237283867369,0.743114518588,0.662854014982,0.0162762929234,0.0902244388993,-0.0623849462966,-0.395373937833,-0.069504448883,-0.170389279128,0.132228076025,-0.400510255045,-2.51531910896,-0.243596330285,0.880338490009,-0.323671907187,-0.696850419044,0.0192736759782
2017/07/09/09:36:59.639915,260430,1499564222,439717372,,0.799045480984,0.243650361263,0.237425401491,0.744768372204,0.660885326077,0.0156858427105,0.0911296432524,-0.0717836321619,-0.385961429356,-0.0776245067494,-0.128201134278,0.15315469171,-0.428305003442,-2.99902558327,-0.844004511833,1.36918067932,-0.208184927702,-0.908070981503,0.0832282602787
2017/07/09/09:36:59.649817,260431,1499564222,449707222,,0.798120399348,0.241242944585,0.236290300829,0.745562976401,0.660098716104,0.0146891078077,0.0904973111701,-0.0629612304081,-0.378718430801,-0.0526087335803,-0.120877675448,0.116557615208,-0.433974975808,-4.23719072342,-0.227793812752,0.797946572304,-0.286474555731,-1.33882820606,0.156335920095
2017/07/09/09:36:59.659924,260432,1499564222,459711826,,0.797418683358,0.236761090552,0.235746142463,0.747284765974,0.658150341919,0.0131594411157,0.0907217453769,-0.0695103526095,-0.357790325789,-0.0483009572957,-0.11925103575,0.125529131665,-0.384873701526,-4.51234865189,-1.0325268507,0.886265397072,0.195461824536,-1.5009291172,0.256855458021
2017/07/09/09:36:59.669785,260433,1499564222,469712330,,0.796674016399,0.232905179269,0.235472483967,0.748228444563,0.65705273746,0.0118409003695,0.0910806676582,-0.0791228696658,-0.396863640338,-0.0559058024236,-0.150656136971,0.161788034533,-0.457708287686,-5.1476764679,-1.07288300991,1.22821044922,0.411638110876,-1.73875975609,0.324032306671
2017/07/09/09:36:59.680404,260434,1499564222,479723372,,0.795935720922,0.229058388099,0.234987290992,0.749562383527,0.655538207059,0.0105632445884,0.0911828391253,-0.0898562653947,-0.370354250977,-0.0633385240567,-0.140527747256,0.19153918323,-0.414049027566,-6.17914772034,-1.99417281151,1.3019002676,0.740957856178,-2.18673706055,0.440601110458
2017/07/09/09:36:59.689752,260435,1499564222,489708946,,0.794986595668,0.227100506932,0.234269796989,0.750941844129,0.654116026208,0.00998781073095,0.0901044651017,-0.0824942912975,-0.378342537392,-0.0647236711061,-0.124196890613,0.172560405534,-0.458950131041,-6.47473096848,-0.952667593956,1.07607877254,0.591141939163,-2.30822181702,0.460874676704
2017/07/09/09:36:59.699801,260436,1499564222,499716797,,0.794590150523,0.223060341263,0.233797732861,0.752657664506,0.652136243851,0.00938663580539,0.0902033845537,-0.0710501542934,-0.345622472896,-0.0429259836878,-0.0761194976687,0.130801006144,-0.418556088638,-6.91642093658,-1.39145982265,1.09098947048,0.511859834194,-2.57699227333,0.460012316704
2017/07/09/09:36:59.710550,260437,1499564222,509709554,,0.793949423887,0.220829468991,0.233431191706,0.753705214522,0.651016201731,0.00896807680171,0.0895875453623,-0.075573287644,-0.340506732643,-0.0618290971324,-0.012567242313,0.140345419026,-0.458552837105,-6.57504987717,-0.622321486473,1.60844516754,0.350557744503,-2.40016293526,0.483872234821
2017/07/09/09:36:59.720089,260438,1499564222,519721065,,0.792795436604,0.216338791395,0.232270540818,0.755423589795,0.649106021663,0.00735339905532,0.0891207054747,-0.0735968979859,-0.327722711883,-0.0617070137406,0.0130707853989,0.137869898278,-0.468306110174,-6.86954021454,-0.999436020851,0.716683864594,0.198366716504,-2.52648663521,0.435862571001
2017/07/09/09:36:59.729927,260439,1499564222,529708859,,0.792495546769,0.213384660448,0.232283901318,0.75702344632,0.6472349723,0.00697244082293,0.0891839527161,-0.0817089127591,-0.32782719166,-0.0622209214967,-0.00528876642988,0.158419601677,-0.451121368769,-6.79258871078,-0.603812754154,1.11810731888,0.155151620507,-2.54116392136,0.434708505869
2017/07/09/09:36:59.740043,260440,1499564222,539723802,,0.791782915775,0.210947481677,0.232103668665,0.75799488021,0.64613746177,0.0063885911565,0.0889344026534,-0.076106760837,-0.34350423999,-0.0600723674809,-0.0420240102177,0.141697503211,-0.457104683353,-6.94455766678,0.0905444025993,1.7801886797,0.0517688803375,-2.64676642418,0.422074168921
2017/07/09/09:36:59.749863,260441,1499564222,549709286,,0.790806728445,0.207067639623,0.230827285559,0.759768510798,0.644160940784,0.00521372578233,0.0882117306924,-0.0665939922167,-0.309107961116,-0.0347630054447,-0.0198617267284,0.104068396104,-0.424069125483,-9.5083360672,-1.10299122334,1.20894145966,0.41340047121,-3.60217499733,0.62627184391
2017/07/09/09:36:59.762268,260442,1499564222,559720813,,0.7907485654,0.204451189686,0.231297467227,0.760770568852,0.642929834736,0.0051248604037,0.0885613063426,-0.058356683558,-0.305845821774,-0.0328981347252,-0.0298772205524,0.0926833684264,-0.400417043042,-9.54180240631,-0.893641352654,1.5154542923,0.546014308929,-3.6600625515,0.713946938515
2017/07/09/09:36:59.769744,260443,1499564222,569713246,,0.789798200501,0.200848477167,0.2301459628,0.762153618385,0.641386210518,0.00413946860482,0.0879116359698,-0.054252890994,-0.325953057692,-0.0315657685057,-0.0409622666251,0.081440609569,-0.425191262411,-9.55958843231,-1.76074576378,1.16647481918,0.708237349987,-3.66633152962,0.721877813339
2017/07/09/09:36:59.780031,260444,1499564222,579720866,,0.789973914795,0.198309578004,0.230508577869,0.763350765892,0.639886376996,0.00412442176432,0.0884535013033,-0.056990539728,-0.323673927414,-0.0502449270799,-0.0349925595379,0.10067967163,-0.431047073902,-8.08631134033,-1.01525008678,1.48510766029,0.675651609898,-3.17381811142,0.672054708004
2017/07/09/09:36:59.789816,260445,1499564222,589711963,,0.788719037748,0.195951540607,0.229391735749,0.764174292399,0.639028584264,0.00278524094039,0.0875920188284,-0.0600220436655,-0.292256877375,-0.0414219550214,-0.0208111510386,0.108300649366,-0.385652825048,-8.014793396,-0.408401727676,0.95316439867,0.505500793457,-3.13453698158,0.658278763294
2017/07/09/09:36:59.799950,260446,1499564222,599720314,,0.788730926869,0.192768703301,0.229470359952,0.765500819207,0.637397834324,0.00260089539488,0.087896142892,-0.0578789669322,-0.309177641177,-0.0350007304266,-0.0242652726857,0.0966827836546,-0.414912620061,-8.36845874786,-0.807432949543,0.945828616619,0.553665518761,-3.3643643856,0.670556902885
2017/07/09/09:36:59.810244,260447,1499564222,609709128,,0.788716548281,0.189730861884,0.229528080303,0.766978339704,0.635598627413,0.00254114721334,0.0880463163727,-0.0411151410526,-0.305433653662,-0.0167354786121,-0.0251385523749,0.0514341797285,-0.408048285348,-9.89356708527,-1.46431314945,0.651861011982,0.733855128288,-3.95737147331,0.80391472578
2017/07/09/09:36:59.819905,260448,1499564222,619724445,,0.787374112348,0.186619992664,0.228514575299,0.768117948123,0.634319388544,0.000929919968571,0.0873662768897,-0.0416902726936,-0.308902356866,-0.0244710910195,-0.0482275452856,0.0677570186398,-0.394546636024,-10.9538736343,-1.19362020493,0.482871800661,0.763300001621,-4.3392624855,0.854166328907
2017/07/09/09:36:59.830055,260449,1499564222,629710288,,0.787670631911,0.18317720412,0.228874611399,0.769397859176,0.632673416103,0.00114463427935,0.0880339290546,-0.0472909376545,-0.291442975742,-0.0330875458897,-0.0385388102321,0.0730066916929,-0.398266853741,-10.406662941,-1.6276062727,0.523299336433,0.849581837654,-4.24924182892,0.871558010578
2017/07/09/09:36:59.840006,260450,1499564222,639716327,,0.787094270328,0.180861863403,0.228593974293,0.770562775658,0.631267260969,0.000356376309486,0.0879461596369,-0.0354573952299,-0.313880762833,-0.0337518032919,-0.0497373122718,0.0535147846918,-0.425164986728,-10.8065633774,-0.384478241205,0.436100840569,0.540804862976,-4.42253398895,0.816165804863
2017/07/09/09:36:59.850249,260451,1499564222,649711814,,0.786632255323,0.177925711855,0.228027574225,0.77168856041,0.629938730318,-0.000228260198269,0.0876008543112,-0.0319800449814,-0.302059199884,-0.032674986048,-0.0588415012806,0.049220394211,-0.384827286815,-11.0852842331,-0.692656755447,-0.12048073858,0.578127384186,-4.53242731094,0.863832473755
2017/07/09/09:36:59.860034,260452,1499564222,659711590,,0.786500750253,0.1747002606,0.227707434273,0.773123571418,0.62811793623,-0.000751956215584,0.0880183848187,-0.0454170973431,-0.345001706764,-0.0406907545324,-0.0718900210045,0.0764755871573,-0.455533907072,-11.2746486664,-0.780503630638,-0.66664981842,0.662115991116,-4.73539447784,0.93092995882
2017/07/09/09:36:59.869875,260453,1499564222,669711492,,0.78584790624,0.171433087975,0.2275619321,0.774209364555,0.626749029431,-0.00162289449934,0.0882206333923,-0.0530466555333,-0.317161555203,-0.0428136614092,-0.0712613766019,0.0898827013898,-0.414421426008,-11.9361743927,-0.640628755093,-0.727766692638,0.592114806175,-5.00186920166,0.975826740265
2017/07/09/09:36:59.880047,260454,1499564222,679716160,,0.785074349479,0.168023278439,0.226819505983,0.77596349615,0.624640596152,-0.00229592457648,0.0877468347648,-0.0461999354897,-0.317162983135,-0.0331961911565,-0.063440592781,0.0637596714003,-0.41760387834,-12.6417255402,-0.983351349831,-0.857273042202,0.608026266098,-5.21104764938,1.00261664391
2017/07/09/09:36:59.889806,260455,1499564222,689709498,,0.784980810048,0.165593351629,0.226984970123,0.776676370996,0.623667368378,-0.0027427505731,0.0883476410375,-0.0581707282196,-0.321341211388,-0.0423145734678,-0.058267799052,0.0878245261314,-0.451247780257,-12.1308517456,-0.448300778866,-0.810298085213,0.556185603142,-5.12637519836,1.00146257877
2017/07/09/09:36:59.899805,260456,1499564222,699715354,,0.784415397242,0.163456771876,0.226414931301,0.777590556519,0.622598621391,-0.00334101261241,0.0878220968153,-0.0624632069837,-0.313235127275,-0.0495831974546,-0.0943276063987,0.109259844375,-0.396365162178,-12.5956106186,-0.342105388641,-0.669223368168,0.563383162022,-5.30359983444,1.05643963814
2017/07/09/09:36:59.909698,260457,1499564222,709714775,,0.78427527714,0.159959214119,0.226249801664,0.778784564359,0.620978987989,-0.00398344843678,0.0886782438369,-0.0632368640094,-0.325354028966,-0.0478960360371,-0.115976845617,0.105929804917,-0.402968757357,-11.3662853241,-0.527180492878,-0.490323573351,0.650608897209,-4.9142832756,1.01261472702
2017/07/09/09:36:59.919903,260458,1499564222,719714324,,0.78302416707,0.157221542118,0.224693101933,0.779574937201,0.620053397621,-0.0059039592196,0.0881013317226,-0.0612158778975,-0.34294194716,-0.0553955813156,-0.182010734986,0.115410950183,-0.372219452106,-12.0126171112,-0.415025115013,-1.10822582245,0.606261849403,-5.12277460098,1.02446973324
2017/07/09/09:36:59.929824,260459,1499564222,729726071,,0.781965836505,0.15250160078,0.224462616463,0.78111190771,0.618016592565,-0.00767156083851,0.0886612999156,-0.0737492514276,-0.322264667073,-0.056077224803,-0.183942046721,0.15082160781,-0.356586771782,-12.2062978745,-1.64136588573,-0.978482842445,0.794986963272,-5.25444221497,1.08036506176
2017/07/09/09:36:59.940298,260460,1499564222,739714603,,0.78141101621,0.149388104678,0.224077647993,0.781887851508,0.616896150663,-0.00919198486235,0.0894764459262,-0.0856401009388,-0.38388368329,-0.0588615161267,-0.255000558381,0.171107935174,-0.404138317756,-12.2446022034,-0.647924184799,-1.04367423058,0.533551156521,-5.30670022964,1.0667746067
2017/07/09/09:36:59.949768,260461,1499564222,749706688,,0.780492537419,0.144572743309,0.223330479439,0.783058579057,0.615249665422,-0.011434444641,0.0903125929137,-0.0922841450545,-0.379450267455,-0.0523545797365,-0.285393181337,0.188975929329,-0.377292450077,-11.6122741699,-1.28532731533,-1.13943350315,0.572674453259,-5.08262681961,1.03573024273
2017/07/09/09:36:59.960046,260462,1499564222,759715047,,0.779181416253,0.141917308971,0.222788094918,0.783583019153,0.614554729023,-0.0133088991843,0.0902386299353,-0.0992470549751,-0.376197021107,-0.060219923683,-0.293206282456,0.217511455167,-0.390837925378,-11.61079216,-0.816545367241,-0.807757496834,0.627457261086,-5.01032114029,1.1015894413
2017/07/09/09:36:59.969916,260463,1499564222,769728791,,0.778402713627,0.138062915781,0.222236718666,0.784409712857,0.613368174968,-0.015197570908,0.0908290600506,-0.116037596511,-0.375474497052,-0.0709850287344,-0.318445197336,0.272196741777,-0.354460589228,-11.4718046188,-0.549648582935,-1.0328425169,0.54144090414,-4.95582056046,1.07933938503
2017/07/09/09:36:59.980058,260464,1499564222,779718674,,0.777251976928,0.134860020556,0.221478851493,0.785635569678,0.611665090171,-0.0176306255157,0.0912783115901,-0.119746537184,-0.36388754865,-0.0777323359,-0.330473099094,0.288673745348,-0.331474187514,-11.3008403778,-0.221388846636,-0.987962186337,0.529113769531,-4.84365367889,1.04907715321
2017/07/09/09:36:59.989852,260465,1499564222,789708122,,0.775817334506,0.131344892488,0.220746381651,0.785861775407,0.611210825933,-0.0204530007892,0.0917838274216,-0.134845687337,-0.382947262229,-0.0647602084521,-0.38675780874,0.331429194429,-0.347711756399,-12.3439016342,-0.484221339226,-0.921686530113,0.539455831051,-5.18031024933,1.10732269287
2017/07/09/09:36:59.999942,260466,1499564222,799736040,,0.774271276056,0.127108163776,0.220416273038,0.787014540295,0.609560197041,-0.0232500896833,0.0922166626878,-0.144982186785,-0.375020022039,-0.0614847684305,-0.408190694563,0.358395442922,-0.319608780613,-11.9877052307,-0.440794765949,-1.09307003021,0.391195446253,-5.00849485397,1.07739233971
2017/07/09/09:37:00.009978,260467,1499564222,809713084,,0.772746946863,0.123278197047,0.219574022417,0.787572243445,0.608599332437,-0.0262987432481,0.0929795139613,-0.153001989166,-0.387612943447,-0.0675395055154,-0.419370090721,0.371974203499,-0.32576034866,-13.1825265884,-0.964887142181,-1.1636967659,0.536857962608,-5.42119789124,1.18640160561
2017/07/09/09:37:00.019839,260468,1499564222,819708742,,0.771048426263,0.119233688278,0.218940044305,0.788208003806,0.607514695406,-0.0297651937329,0.0936379775704,-0.17578773726,-0.398052071083,-0.0647540674027,-0.474751320868,0.429016397218,-0.336920551875,-12.801399231,-1.0518488884,-1.00569212437,0.490286022425,-5.27720212936,1.1788213253
2017/07/09/09:37:00.029693,260469,1499564222,829708714,,0.76933145054,0.115990297315,0.218573903285,0.788897503024,0.606459498822,-0.0325137685371,0.0937574576559,-0.171985101954,-0.41133095033,-0.0541186710831,-0.510822219112,0.423964843784,-0.298322526878,-12.64909935,-0.569799542427,-1.07331776619,0.381229072809,-5.20556688309,1.12996137142
2017/07/09/09:37:00.039765,260470,1499564222,839711749,,0.767668901874,0.112688896708,0.218033353085,0.788936644147,0.606090238308,-0.0361622866592,0.0944768943869,-0.189821622692,-0.397443744337,-0.0513654720374,-0.509807698856,0.464749143172,-0.299533745933,-12.2790107727,0.122140541673,-0.777764558792,0.34816840291,-5.07211399078,1.20024168491
2017/07/09/09:37:00.049814,260471,1499564222,849710039,,0.764770224739,0.107659914335,0.216931617791,0.789929149814,0.604467244432,-0.0409927569043,0.0946091040186,-0.211374578281,-0.379987629458,-0.0785482682608,-0.540360127084,0.555519295667,-0.241528117062,-11.9131145477,-0.414855897427,-0.720006227493,0.378160923719,-4.86717128754,1.15554773808
2017/07/09/09:37:00.059864,260472,1499564222,859711787,,0.762858337502,0.104033193098,0.215884107314,0.790051381426,0.604004071164,-0.0446023076278,0.0949132808356,-0.225655601862,-0.420272515576,-0.0670601543118,-0.581737438,0.578288000319,-0.296490144776,-12.0458898544,-0.19018496573,-1.12227416039,0.299043923616,-4.93966341019,1.16141653061
2017/07/09/09:37:00.069951,260473,1499564222,869715077,,0.760265446391,0.0992396853835,0.215833608817,0.791060337711,0.602279176157,-0.0490345717666,0.0952835077002,-0.246290746024,-0.427236692341,-0.0438755432138,-0.58673601236,0.599186070043,-0.352237816746,-12.6567058563,-0.82269090414,-1.23518967628,0.334443986416,-5.17366409302,1.1885021925
2017/07/09/09:37:00.080038,260474,1499564222,879714691,,0.757864111508,0.0950402399099,0.215426672825,0.791402302502,0.601319386302,-0.0535107535902,0.0960936548522,-0.249608501005,-0.421190018473,-0.0391409129789,-0.60757142101,0.624335283455,-0.316537912096,-12.9382514954,-0.573664605618,-0.855467379093,0.296235471964,-5.31936311722,1.27615988255
2017/07/09/09:37:00.089899,260475,1499564222,889710591,,0.755900596864,0.091785564143,0.214785643438,0.791450455489,0.600818303495,-0.0576539296396,0.0964342630465,-0.229569333502,-0.426184910231,-0.0364094557151,-0.613220830368,0.581016366027,-0.285632637057,-12.1451358795,0.300053745508,-1.12306654453,0.0470702163875,-4.97578763962,1.19315803051
2017/07/09/09:37:00.100005,260476,1499564222,899708538,,0.753753932688,0.0890113685874,0.214234717961,0.791749564578,0.600060125183,-0.0612478780944,0.0964840431644,-0.22606167573,-0.386655943837,-0.0536831881464,-0.596246920953,0.596301237021,-0.251893102415,-11.3541812897,1.01125347614,-0.724712729454,-0.146188884974,-4.59903478622,1.10765647888
2017/07/09/09:37:00.109849,260477,1499564222,909709614,,0.751662525148,0.0834967321793,0.214483447948,0.792648197764,0.598194979174,-0.0654875729466,0.0978926925866,-0.239923494001,-0.379644883646,-0.0405397204068,-0.583698025037,0.619275969473,-0.26680852518,-10.6089696884,-0.274668246508,-0.637504935265,0.0641309395432,-4.24476051331,1.10471177101
2017/07/09/09:37:00.119924,260478,1499564222,919714935,,0.749386241228,0.0807237048602,0.214020296402,0.792539110729,0.597871700926,-0.0696930905257,0.09784712734,-0.242023442479,-0.395858499222,-0.0309710368815,-0.58771192619,0.608860831783,-0.291644112318,-11.2931680679,0.210224196315,-0.687115430832,-0.0327917821705,-4.46577072144,1.15984678268
2017/07/09/09:37:00.129565,260479,1499564222,929707853,,0.747475252367,0.0781468784287,0.214095553657,0.792324939114,0.597642134869,-0.0732109091963,0.0984135776272,-0.244199982473,-0.385671196918,-0.0311334725294,-0.5969317476,0.622578689119,-0.277807525995,-11.1051015854,0.818835377693,-1.03796958923,-0.192571565509,-4.38417339325,1.19830286503
2017/07/09/09:37:00.139648,260480,1499564222,939719384,,0.744802469962,0.0734936856757,0.21353979219,0.793224077129,0.595803515509,-0.0778142949421,0.0987859801398,-0.247381695179,-0.371308827287,-0.0218011190896,-0.596327599074,0.633186860249,-0.26532512242,-11.9426259995,-0.206258952618,-1.3385103941,-0.000683419406414,-4.61470842361,1.2658290863
2017/07/09/09:37:00.150002,260481,1499564222,949709291,,0.741960143385,0.0702966840999,0.213118427396,0.793369032551,0.595025127482,-0.0824317045864,0.0985681994035,-0.259520157185,-0.367118898855,-0.0187418150386,-0.610030226314,0.661158062329,-0.260931760751,-11.3828544617,-0.108336888254,-1.6469874382,-0.0788341760635,-4.377161026,1.18250334263
2017/07/09/09:37:00.159987,260482,1499564222,959712957,,0.739531660637,0.0673775308501,0.212822549617,0.792873081335,0.595066460721,-0.0866752386936,0.0986690793403,-0.267977173122,-0.353347229819,-0.0271532147266,-0.579190026922,0.691620339749,-0.275800511152,-10.4037265778,1.08233225346,-1.65056467056,-0.299505710602,-4.05055189133,1.09363055229
2017/07/09/09:37:00.170003,260483,1499564222,969709712,,0.736789951897,0.0640603074132,0.212704820229,0.79330671537,0.59385328856,-0.0911229154628,0.0984852338867,-0.258913304258,-0.333085823852,-0.0254455689419,-0.567163505454,0.696274218163,-0.212493142172,-10.1244754791,0.88274037838,-1.20185291767,-0.20049341023,-3.97218585014,1.12500488758
2017/07/09/09:37:00.180380,260484,1499564222,979715536,,0.734488166588,0.0610792624067,0.212219994711,0.7934906043,0.592940278835,-0.095281845281,0.0985690447432,-0.262606767222,-0.333290072604,-0.0063591884719,-0.573385669886,0.685906511236,-0.225866560083,-9.83870029449,0.482586622238,-1.17615151405,-0.179492741823,-3.92894673347,1.08356010914
2017/07/09/09:37:00.190136,260485,1499564222,989717060,,0.732611164058,0.058543962229,0.212534012211,0.793388738469,0.592477808332,-0.0986793158621,0.0988268633832,-0.255417036918,-0.326610341887,0.000498335625136,-0.542993798993,0.645707902849,-0.253036444182,-10.1195325851,1.73606157303,-0.830103993416,-0.437325268984,-4.07237768173,1.14251089096
2017/07/09/09:37:00.200008,260486,1499564222,999710016,,0.730565611104,0.0552701850768,0.212811854311,0.793696110799,0.591336185011,-0.102358558747,0.0994521264243,-0.227872370556,-0.302759232529,0.0110229182076,-0.511936922167,0.575239129899,-0.245325840642,-10.3874082565,1.04571068287,-0.606895267963,-0.249719426036,-4.09564685822,1.19088447094
2017/07/09/09:37:00.209917,260487,1499564223,9707526,,0.728732118752,0.0526883033091,0.212636107277,0.793991591707,0.590483869472,-0.10514662035,0.0992488812089,-0.203001363204,-0.292931094792,0.00844127877677,-0.451138398418,0.507836297912,-0.262227674421,-9.91134262085,0.994342923164,-0.709710299969,-0.178641825914,-3.78498077393,1.16011810303
2017/07/09/09:37:00.219884,260488,1499564223,19712131,,0.726841827943,0.0509746771454,0.212579047451,0.794424011914,0.589485825237,-0.107936869972,0.0987247853375,-0.200247482867,-0.246793531544,-0.0100454281647,-0.374288884156,0.503935168109,-0.252363549002,-9.42024230957,1.25131165981,-0.759204030037,-0.195969983935,-3.53551292419,1.10078108311
2017/07/09/09:37:00.229590,260489,1499564223,29710630,,0.724883077722,0.0491622744169,0.21283326867,0.794550637113,0.588773984743,-0.111074753327,0.0984727329077,-0.200739613145,-0.232319208794,-0.00353637328407,-0.357275854912,0.507877717444,-0.246954187011,-9.11066913605,1.34061038494,-0.717094004154,-0.16062694788,-3.31819748878,1.03696775436
2017/07/09/09:37:00.239819,260490,1499564223,39705987,,0.722399201656,0.0467443626033,0.212164981403,0.795079591975,0.587579439828,-0.114465339025,0.0974501435524,-0.19627113766,-0.200158887155,-0.000965791691702,-0.301136169289,0.509078578017,-0.201642691173,-9.54567337036,0.685600042343,-0.888693392277,-0.121623836458,-3.45748710632,1.03712773323
2017/07/09/09:37:00.250120,260491,1499564223,49728271,,0.721038967446,0.0447053254384,0.212754850526,0.795708805642,0.586358159838,-0.11642300621,0.097351366909,-0.208754364023,-0.206415946016,-0.0185625250983,-0.242384068868,0.521625161929,-0.297173830751,-8.67400169373,0.600760579109,-0.759896337986,-0.158386021852,-3.29204678535,1.04637801647
2017/07/09/09:37:00.259838,260492,1499564223,59707111,,0.719457288515,0.0435266043065,0.211951207139,0.795395361855,0.586272225648,-0.119383500519,0.0968435623938,-0.203297970239,-0.201282945573,-0.0181012720522,-0.255713997481,0.524587473372,-0.280799035675,-8.67903900146,1.42743444443,-0.990754246712,-0.672618687153,-3.47483992577,1.15947461128
2017/07/09/09:37:00.269670,260493,1499564223,69710150,,0.717529129194,0.0409017060874,0.212370552343,0.796041893188,0.584866116728,-0.122105117108,0.096639899466,-0.178847067329,-0.204595650739,0.0155718011859,-0.311455164496,0.455715193181,-0.242168000883,-8.86399650574,0.365105897188,-0.952777206898,-0.508512318134,-3.52667164803,1.18375301361
2017/07/09/09:37:00.279576,260494,1499564223,79707837,,0.715627713231,0.0382127772228,0.212154346438,0.796080523158,0.584052260125,-0.125557437194,0.0968198742857,-0.182800103844,-0.228300507577,0.0204600900164,-0.374725886626,0.459473505964,-0.231635003248,-7.20032262802,0.243260025978,-1.14441680908,-0.521951675415,-3.05624485016,1.00528204441
2017/07/09/09:37:00.289886,260495,1499564223,89708236,,0.714667893917,0.0361934379696,0.213209289366,0.796034803149,0.583427559802,-0.127897770493,0.0978929769789,-0.159631428952,-0.224457429655,0.0303593168355,-0.400391021213,0.422470037211,-0.169195378297,-6.96082305908,0.268021136522,-1.07491266727,-0.416853427887,-3.05179286003,0.997640728951
2017/07/09/09:37:00.300151,260496,1499564223,99714394,,0.713373988494,0.0347461442968,0.213594211163,0.795875048105,0.583127847796,-0.130264744123,0.0978566163733,-0.156213337565,-0.233247761396,0.0321411142895,-0.406019692191,0.39791305955,-0.189656279009,-6.46913576126,0.996770501137,-1.01799440384,-0.379495441914,-2.88194870949,0.988253295422
2017/07/09/09:37:00.310206,260497,1499564223,109713073,,0.711655922147,0.0322124656569,0.213374929267,0.796242776957,0.581948617761,-0.133172433359,0.0979711662881,-0.147826210749,-0.19418758175,0.0224974773313,-0.362379513508,0.394566446578,-0.168514698951,-6.8497467041,0.598761677742,-1.55401909351,-0.129324659705,-2.92666101456,1.0507440567
2017/07/09/09:37:00.319700,260498,1499564223,119714082,,0.710137635725,0.0304703721929,0.213294895314,0.796342729095,0.581365151519,-0.135324420514,0.0976735359763,-0.149163830342,-0.215236229044,0.0261838394736,-0.344832190825,0.364864138525,-0.203080451393,-7.20928049088,0.679207026958,-1.77345824242,-0.158280611038,-3.03407645226,1.09011793137
2017/07/09/09:37:00.329929,260499,1499564223,129710071,,0.708880437336,0.0285195144686,0.213645944286,0.796260292899,0.580844278123,-0.137764631528,0.0980325294209,-0.149031657806,-0.221588158807,0.0224786765988,-0.336715716297,0.352386760354,-0.228460371368,-7.74434995651,0.802201271057,-1.28973782063,-0.0881330221891,-3.26431775093,1.1637223959
2017/07/09/09:37:00.339523,260500,1499564223,139713470,,0.707450228982,0.0270589792687,0.213868919204,0.796804889919,0.579707211287,-0.139599801021,0.0977415578835,-0.128285027553,-0.192802369338,0.0315485466243,-0.291531496802,0.313220558567,-0.172305941436,-8.26190567017,1.10445058346,-0.961571156979,-0.215447068214,-3.41490387917,1.1942448616
2017/07/09/09:37:00.350232,260501,1499564223,149707542,,0.70663105776,0.0246751517308,0.213991852544,0.797040994196,0.578850135336,-0.141403420846,0.0983018156794,-0.115250047269,-0.182306865375,0.0340796944251,-0.294181775612,0.277994757839,-0.175403025021,-7.87516021729,0.750535845757,-1.31877374649,-0.269872069359,-3.23535633087,1.17961144447
2017/07/09/09:37:00.359720,260502,1499564223,159708625,,0.705007974777,0.0226836404505,0.214788113814,0.797590275148,0.577491632872,-0.143853196826,0.0982823723547,-0.134955524845,-0.194050054396,0.0339570801611,-0.295832068418,0.302813973907,-0.24450284855,-7.50969696045,0.586618304253,-0.940870761871,-0.279836863279,-3.16038823128,1.14235556126
2017/07/09/09:37:00.369670,260503,1499564223,169708970,,0.703712495059,0.0210874023711,0.215061942888,0.797744878886,0.576831387858,-0.145712418808,0.0981659268697,-0.150734435601,-0.196773553429,0.0435428138783,-0.271049826888,0.335235545603,-0.252855950144,-6.90299654007,0.583148479462,-1.1197398901,-0.285905331373,-3.00138711929,1.13696944714
2017/07/09/09:37:00.379634,260504,1499564223,179707312,,0.702638581677,0.0198503178121,0.215478879563,0.79813082612,0.575869737388,-0.147477914962,0.0980382300773,-0.135528073879,-0.174848252205,0.0409351445459,-0.252207251004,0.314461007148,-0.230448694404,-6.64857006073,1.09489667416,-1.45500564575,-0.324989676476,-2.92735815048,1.14665913582
2017/07/09/09:37:00.389652,260505,1499564223,189712358,,0.701302739345,0.0177145349067,0.216098451988,0.79855432679,0.574716896047,-0.149437412851,0.0983866667974,-0.136141612272,-0.165286467414,0.0378472523883,-0.25084674618,0.311890553351,-0.224908382302,-6.74417066574,0.811119258404,-1.31386244297,-0.23495863378,-2.93639683723,1.13297188282
2017/07/09/09:37:00.399912,260506,1499564223,199710107,,0.700107237634,0.0162099087964,0.216085807747,0.798362282491,0.574501180454,-0.151446093528,0.0981332782897,-0.127273782008,-0.185670022124,0.0403783932313,-0.239174651364,0.270687449623,-0.255159147877,-6.56977701187,1.08333611488,-1.49668371677,-0.243746578693,-2.91449522972,1.11531245708
2017/07/09/09:37:00.409620,260507,1499564223,209709228,,0.698846435993,0.0136225222258,0.216898503335,0.799484419937,0.572520809163,-0.152897516944,0.0983205709193,-0.136710360729,-0.187341912722,0.0406060616982,-0.240561280704,0.290950408279,-0.238694063702,-7.16440439224,0.558911800385,-1.4469974041,-0.247713059187,-2.96965837479,1.09754049778
2017/07/09/09:37:00.420138,260508,1499564223,219707473,,0.697907779973,0.0128298414274,0.217376363778,0.799454740416,0.572058379743,-0.154691601394,0.0984471261621,-0.148037262852,-0.185229561523,0.0492490120151,-0.244068445325,0.305885932029,-0.269696940503,-7.1721367836,0.96197450161,-0.928158044815,-0.278305590153,-3.06250786781,1.15666055679
2017/07/09/09:37:00.429757,260509,1499564223,229708221,,0.696162807657,0.0117886057127,0.217866327656,0.799777864532,0.571197736093,-0.156666519596,0.097693988163,-0.13888488793,-0.159958396226,0.0467864213,-0.210203923717,0.283835396929,-0.285222399016,-6.88392734528,1.432289958,-0.849371731281,-0.340849637985,-2.97380828857,1.18485879898
2017/07/09/09:37:00.439804,260510,1499564223,239706091,,0.694835034661,0.00913973259757,0.218672504845,0.800423889705,0.569637142808,-0.158753251191,0.0981454408451,-0.144937339497,-0.171097623555,0.0552527191593,-0.220118942813,0.305355622623,-0.265855664586,-6.47042703629,0.658424973488,-0.855459094048,-0.259129434824,-2.87228751183,1.14935660362
2017/07/09/09:37:00.450044,260511,1499564223,249707566,,0.693517592174,0.0075034402881,0.21910979468,0.800853500607,0.568690555194,-0.160260904257,0.0976788900704,-0.138918231666,-0.172980171581,0.0471221013802,-0.227078336359,0.302730612089,-0.254273453651,-6.23898458481,0.739957928658,-1.05264389515,-0.223559737206,-2.8109190464,1.10298538208
2017/07/09/09:37:00.460050,260512,1499564223,259717943,,0.691486674668,0.0049107669887,0.219039701509,0.801582772284,0.566982864263,-0.16286740982,0.0973123714079,-0.140014739331,-0.197511565188,0.0583466355047,-0.226146932464,0.267937112158,-0.31723810477,-7.69490194321,-0.273037552834,-1.4909569025,-0.0311750248075,-3.14715600014,1.22438681126
2017/07/09/09:37:00.469885,260513,1499564223,269710038,,0.690734831826,0.00440870511402,0.219641264168,0.801446366996,0.566770492661,-0.164397828228,0.0970993488716,-0.159909136054,-0.201649079751,0.0538777909352,-0.238228563487,0.316487689137,-0.319187000346,-6.31242370605,1.40341091156,-1.04674220085,-0.326081067324,-2.80646491051,1.1055765152
2017/07/09/09:37:00.479488,260514,1499564223,279708740,,0.688600546471,0.00229984482517,0.219886378096,0.8022461499,0.56507007709,-0.16665043605,0.0965637360098,-0.15281203889,-0.172724165995,0.0528349472762,-0.203012047065,0.316820325817,-0.271002355292,-6.81752347946,1.02197408676,-0.83671027422,-0.309670686722,-2.92928767204,1.13975453377
2017/07/09/09:37:00.489558,260515,1499564223,289708785,,0.687558350575,0.000359635573131,0.220551203393,0.802835769822,0.563790890652,-0.16807158229,0.0966773062234,-0.143826784246,-0.172116061575,0.0620457697443,-0.218323893591,0.276050912265,-0.287641870268,-7.26234149933,0.970212161541,-0.815841078758,-0.159497663379,-3.05616807938,1.24881672859
2017/07/09/09:37:00.499903,260516,1499564223,299714095,,0.686862209105,-0.000574724689938,0.221752974626,0.802826378247,0.563391315927,-0.169299002889,0.0969426590794,-0.135662289017,-0.163560412431,0.0617703192532,-0.218807505609,0.267617745884,-0.292221788193,-6.44617891312,1.19571340084,-0.73796749115,-0.249279916286,-2.76776504517,1.10609972477
2017/07/09/09:37:00.509811,260517,1499564223,309713662,,0.684437662957,-0.00284469720591,0.222118176621,0.803572278194,0.561529920545,-0.172204725419,0.0964431158468,-0.152422623363,-0.182042860679,0.0612503010612,-0.234629406921,0.30165793637,-0.292020845771,-7.5327334404,0.274232208729,-1.03429281712,-0.0676507949829,-3.04573988914,1.19781029224
2017/07/09/09:37:00.520341,260518,1499564223,319715263,,0.682966781373,-0.0043314451463,0.22241463047,0.803966065746,0.560528382981,-0.173966648146,0.0958232870113,-0.175842437086,-0.209765771425,0.057491018768,-0.246757838332,0.342582225394,-0.33881417573,-7.25175094604,0.946043133736,-1.48851943016,-0.262548327446,-3.02074480057,1.15698409081
2017/07/09/09:37:00.529688,260519,1499564223,329709139,,0.681051480697,-0.0077123685413,0.223060615887,0.804929984271,0.558289665534,-0.176466309182,0.0962289535625,-0.175139303022,-0.205139669566,0.0557132655308,-0.236196994643,0.340990160491,-0.346249269081,-6.78152179718,-0.0849035605788,-1.1153537035,-0.0540240183473,-2.85772275925,1.08941590786
2017/07/09/09:37:00.539675,260520,1499564223,339705512,,0.68020438794,-0.00823494886351,0.223508208524,0.804960745358,0.557828707319,-0.177941052706,0.095928689578,-0.150896622512,-0.18813413993,0.073621080808,-0.240920550513,0.293698938356,-0.289182353931,-5.71109390259,1.5118124485,-1.19019269943,-0.359346330166,-2.57889604568,1.04027330875
2017/07/09/09:37:00.550062,260521,1499564223,349713573,,0.679159350368,-0.00991976470203,0.224590046106,0.805306099935,0.556841203751,-0.179414995901,0.0960219686239,-0.142452481191,-0.174744781794,0.0682905441091,-0.242952397669,0.277479736163,-0.28556963588,-5.24545097351,1.19488668442,-0.488143563271,-0.270686507225,-2.4501581192,0.984010994434
2017/07/09/09:37:00.559883,260522,1499564223,359718045,,0.67704479654,-0.0116812761147,0.224735351041,0.805877262113,0.555265544018,-0.182008277477,0.095472514187,-0.152157386303,-0.190835771664,0.0706760502757,-0.24353140364,0.292036359647,-0.309061657476,-4.98272228241,0.896249175072,-0.628331005573,-0.267448276281,-2.25655174255,0.884475231171
2017/07/09/09:37:00.569611,260523,1499564223,369707345,,0.675994366124,-0.0143045589066,0.225290636362,0.806354712029,0.554063855174,-0.183461507794,0.0956409846092,-0.138693464601,-0.206062410853,0.0613887956427,-0.237405329601,0.259462028259,-0.31127451559,-4.43875026703,0.481605678797,-0.910002529621,-0.149800285697,-2.06825494766,0.771337389946
2017/07/09/09:37:00.579868,260524,1499564223,379715613,,0.674835472199,-0.0157656000379,0.226068260256,0.806918639506,0.552835898833,-0.184744054301,0.0955217911296,-0.145708673594,-0.214741736461,0.0677301911733,-0.251657221857,0.26281931351,-0.318004826905,-4.12697172165,1.10275018215,-0.762131154537,-0.188570618629,-1.914483428,0.735676109791
2017/07/09/09:37:00.589771,260525,1499564223,389709302,,0.673411083947,-0.0177653465015,0.226614341733,0.807242948916,0.551556775466,-0.187034574844,0.0957184030114,-0.121849388233,-0.172707584972,0.0631629516857,-0.224789912843,0.244577245078,-0.263032423678,-4.66225528717,0.712962329388,-0.942560791969,-0.183755099773,-2.06950187683,0.780500888824
2017/07/09/09:37:00.600225,260526,1499564223,399715638,,0.671969063992,-0.0195102775717,0.227611561308,0.807740719783,0.550424625334,-0.188393620023,0.0953703589402,-0.135651290091,-0.182918058907,0.0694174806281,-0.233823385749,0.266173828986,-0.2836463367,-4.38977527618,0.512748658657,-0.801783680916,-0.0468876734376,-1.97755861282,0.738930463791
2017/07/09/09:37:00.609642,260527,1499564223,409706916,,0.670831800192,-0.0222389626225,0.228957557659,0.808442915044,0.54858959169,-0.190327527938,0.0961506376153,-0.149196566128,-0.200482595559,0.0678074161021,-0.225618415374,0.279820465985,-0.312404503494,-4.61801290512,0.0289174318314,-0.72598618269,0.011946734041,-2.11322760582,0.765258669853
2017/07/09/09:37:00.619822,260528,1499564223,419708224,,0.669072459622,-0.0239105933521,0.229690217684,0.80878144074,0.547416493952,-0.192487538561,0.0956886135517,-0.155100745612,-0.194997371391,0.0781765192169,-0.2291606876,0.293621422484,-0.295425089682,-4.75722646713,-0.0654537007213,-0.533650875092,0.027833621949,-2.28837394714,0.822637975216
2017/07/09/09:37:00.629622,260529,1499564223,429709111,,0.668399722829,-0.0241266183783,0.22954749743,0.808438700895,0.547518319078,-0.193894545798,0.0951601927208,-0.143358187378,-0.168189153215,0.0743436313739,-0.205726523828,0.300126168177,-0.241716903506,-3.83437752724,1.19393920898,-1.13632977009,-0.219282850623,-2.08377170563,0.786261558533
2017/07/09/09:37:00.639848,260530,1499564223,439715669,,0.666549129676,-0.026842119705,0.23026057381,0.809717636699,0.545016894511,-0.195612124462,0.0951305959175,-0.130198763856,-0.153228423066,0.0634998281765,-0.200615167205,0.27808044727,-0.237667856481,-3.82966589928,0.176475316286,-1.06259560585,-0.111674681306,-1.91861343384,0.692886531353
2017/07/09/09:37:00.650417,260531,1499564223,449709732,,0.665520690099,-0.0287391160102,0.231245614876,0.809938012737,0.544028415912,-0.197290408211,0.09544628349,-0.121232428157,-0.189809802791,0.0649709318984,-0.228714398697,0.215184257596,-0.307326848578,-3.50924491882,0.176841825247,-0.497321933508,-0.0458736643195,-1.75646424294,0.623624742031
2017/07/09/09:37:00.659801,260532,1499564223,459714089,,0.664272082783,-0.0298824227035,0.231509877046,0.81014073097,0.543233442658,-0.198939410806,0.0948289704133,-0.139774972899,-0.169844946642,0.057054782439,-0.193198627045,0.273181604259,-0.287559195532,-4.27451896667,0.147574394941,-0.928601861,-0.0611681714654,-1.90882432461,0.718201935291
2017/07/09/09:37:00.670263,260533,1499564223,469710389,,0.663342547216,-0.0315687323183,0.232009025973,0.810330189426,0.542584349176,-0.199991877153,0.0947124976235,-0.118601027983,-0.15404214671,0.0775879287348,-0.195724592622,0.206197429153,-0.283079873216,-4.21910238266,0.173134759068,-0.801761090755,-0.134924829006,-1.84743714333,0.676102519035
2017/07/09/09:37:00.679745,260534,1499564223,479718344,,0.662449632346,-0.0323626705111,0.232829643823,0.810690116345,0.54142413684,-0.201581005873,0.0949027785622,-0.109347294804,-0.127053565178,0.0687885243708,-0.166856347029,0.219120043153,-0.238998498487,-3.73477578163,0.328497707844,-0.743758738041,-0.0563431456685,-1.80016279221,0.673297047615
2017/07/09/09:37:00.689868,260535,1499564223,489706880,,0.661071869262,-0.0336285625738,0.233108811265,0.810714849949,0.540845862555,-0.203294792488,0.0943313965551,-0.120172911493,-0.154592677898,0.0625185567294,-0.187588833544,0.254678954614,-0.223213083053,-3.97406554222,0.90568625927,-1.22171056271,-0.190571308136,-1.88360726833,0.722445547581
2017/07/09/09:37:00.700024,260536,1499564223,499712108,,0.659364771366,-0.0352969763575,0.233832726362,0.811003455997,0.539702696776,-0.205375878286,0.0938889880243,-0.140216358329,-0.170256140533,0.0676753193432,-0.208773026047,0.291784682729,-0.246858831519,-4.31044721603,0.230480581522,-1.4151211977,-0.0545698702335,-1.96879291534,0.738619446754
2017/07/09/09:37:00.709723,260537,1499564223,509707727,,0.658405445276,-0.0369462188339,0.234673945368,0.811410489016,0.538445555697,-0.206889031191,0.0942673360075,-0.133644034735,-0.153162630679,0.0739771623378,-0.182190624292,0.282509304849,-0.24707961663,-3.78881239891,0.820456504822,-1.19580745697,-0.128865778446,-1.90368151665,0.729510068893
2017/07/09/09:37:00.719987,260538,1499564223,519714368,,0.657687809027,-0.037292044927,0.234981981043,0.811544496015,0.538040077829,-0.207800901895,0.0934194348568,-0.123016704694,-0.119929903974,0.070674000463,-0.160357406593,0.279426891569,-0.211682842344,-3.20762705803,0.922737836838,-1.19910228252,-0.164787262678,-1.74268901348,0.685955345631
2017/07/09/09:37:00.729775,260539,1499564223,529708067,,0.655771327505,-0.0395770904607,0.235984473705,0.81216605843,0.536364611207,-0.209818518619,0.0931422923433,-0.124365581876,-0.127831716264,0.0611006956631,-0.164828303821,0.280134995623,-0.235075660668,-3.61316871643,-0.107925072312,-0.946263492107,-0.012149490416,-1.75518739223,0.640965878963
2017/07/09/09:37:00.739821,260540,1499564223,539706471,,0.655137187908,-0.0406765916105,0.236951961783,0.812260812827,0.53552450129,-0.211390815634,0.0935938220642,-0.132534325922,-0.143747323328,0.0526045897071,-0.180319761328,0.286426231282,-0.242698026097,-3.38712453842,0.0356786176562,-0.235956460238,0.0606302283704,-1.77906608582,0.635885715485
2017/07/09/09:37:00.749912,260541,1499564223,549708572,,0.654182838601,-0.0415805569972,0.237296597282,0.812325485978,0.534947353118,-0.212746031354,0.093261784063,-0.127004254893,-0.135785340598,0.0666415657246,-0.189523172642,0.279816318184,-0.227014473973,-2.92688822746,0.343695372343,-0.845572650433,-0.0480527430773,-1.55396056175,0.556497097015
2017/07/09/09:37:00.759797,260542,1499564223,559715241,,0.651797424894,-0.0432381481272,0.237836472572,0.812846391365,0.533219013997,-0.215474535119,0.0923523246732,-0.115741175839,-0.128310281821,0.0647352933532,-0.184414504445,0.252433302246,-0.220174722029,-3.3413233757,0.170076698065,-0.986040472984,-0.0128880478442,-1.56720781326,0.540575921535
2017/07/09/09:37:00.769965,260543,1499564223,569708018,,0.651573383375,-0.0436488676545,0.238316634213,0.812798452025,0.533040013384,-0.216125424883,0.092286625452,-0.134662436883,-0.119611630488,0.0501453731725,-0.176107339274,0.316228094768,-0.242367882028,-2.02971959114,0.622767210007,-1.0039305687,-0.00335311517119,-1.24977779388,0.469472110271
2017/07/09/09:37:00.779770,260544,1499564223,579723693,,0.650242648567,-0.0454602005005,0.238492211001,0.813067310524,0.531869116555,-0.218089778425,0.0920523761735,-0.123868178762,-0.0996250739566,0.0517876612331,-0.162496348517,0.30906996429,-0.207662488313,-2.15618467331,0.260936260223,-1.16701757908,0.0168340913951,-1.31713724136,0.481495678425
2017/07/09/09:37:00.789850,260545,1499564223,589707740,,0.648117113798,-0.0466008996457,0.239171288901,0.813358671988,0.530527865308,-0.220580430896,0.0912804926504,-0.135490549015,-0.117194849787,0.0518861067247,-0.173239625606,0.316964230103,-0.253166691711,-2.70874238014,-0.652061581612,-1.17557692528,0.161109894514,-1.40103340149,0.447488427162
2017/07/09/09:37:00.800074,260546,1499564223,599714568,,0.647079998728,-0.0471604178486,0.239775567104,0.813377998158,0.529887488413,-0.222204480653,0.0908881208615,-0.152742344762,-0.119685079681,0.058324300307,-0.162789505005,0.357014008866,-0.252479468477,-2.38665866852,0.392260342836,-1.04443073273,-0.0419345535338,-1.39896678925,0.493674576283
2017/07/09/09:37:00.809858,260547,1499564223,609708399,,0.645977441322,-0.0479472125835,0.24046348478,0.813479243879,0.529142637363,-0.223721808538,0.0905987940685,-0.136678686865,-0.100626957601,0.0659506821793,-0.175759194526,0.336674476379,-0.21125608112,-2.77575707436,0.920381247997,-0.891517698765,-0.149449646473,-1.54398870468,0.594580829144
2017/07/09/09:37:00.819976,260548,1499564223,619715839,,0.644711426777,-0.0486773038343,0.240488623796,0.813373655969,0.528638595164,-0.225600797476,0.0898265643205,-0.13912534036,-0.0939494447394,0.053079659862,-0.158394842886,0.347543208398,-0.216572040695,-2.62953591347,0.12099070102,-0.930208384991,-0.0187746882439,-1.41599440575,0.518161475658
2017/07/09/09:37:00.829953,260549,1499564223,629714780,,0.642967699565,-0.050012853463,0.240662982833,0.813652286685,0.527409215701,-0.227749838303,0.0891037974437,-0.13744816992,-0.111067240484,0.0482334885826,-0.169446015124,0.329517493645,-0.244487023942,-2.3569047451,-0.139146000147,-1.34690284729,0.0185119435191,-1.21570527554,0.414699465036
2017/07/09/09:37:00.839676,260550,1499564223,639715980,,0.641666927783,-0.0512667592209,0.241357105044,0.813648986705,0.526589562925,-0.229672584687,0.0890464064188,-0.132943869322,-0.0924435797093,0.0353030126832,-0.146564061095,0.36358365536,-0.162031129162,-2.30094695091,-0.634241521358,-1.16338932514,0.170051276684,-1.17775022984,0.371944099665
2017/07/09/09:37:00.850548,260551,1499564223,649716268,,0.640784752527,-0.0517617667465,0.241503596212,0.813043013387,0.527085155218,-0.231080851384,0.0879996457671,-0.120098789776,-0.0997069375074,0.0545670047981,-0.151148020326,0.332041838679,-0.112269867167,-2.25280690193,0.0291634649038,-1.02660286427,0.012757666409,-1.23127269745,0.412130981684
2017/07/09/09:37:00.859907,260552,1499564223,659721132,,0.639729119957,-0.0528625540754,0.242433002994,0.812373115266,0.527367392776,-0.232894259971,0.0877144133119,-0.13485064143,-0.093451823425,0.0521641156941,-0.111454876023,0.398942568964,-0.0466627699308,-2.5109577179,0.0902156308293,-0.909841120243,0.0148198232055,-1.37057948112,0.453335255384
2017/07/09/09:37:00.869920,260553,1499564223,669706999,,0.638850380037,-0.0533784912447,0.242768895212,0.812137083088,0.527080908823,-0.234454355185,0.0874655884434,-0.113011625431,-0.0754543168129,0.0532558007648,-0.114806588429,0.379931557956,0.00575528178989,-2.69552159309,0.272341668606,-0.80718255043,-0.0224266350269,-1.4370445013,0.505270242691
2017/07/09/09:37:00.879803,260554,1499564223,679715898,,0.63697546168,-0.0543268674871,0.24271299934,0.812117823276,0.526138312255,-0.236985978395,0.0864914073152,-0.114183611798,-0.0857010659046,0.0440399284535,-0.142995739286,0.354881297201,-0.0583786967748,-3.03198695183,0.304372042418,-1.34182190895,-0.0537867695093,-1.45006763935,0.519597291946
2017/07/09/09:37:00.889663,260555,1499564223,689710038,,0.636554015727,-0.0548853760811,0.243344206643,0.812229160894,0.525630501177,-0.237723701853,0.0865090053238,-0.122486238853,-0.0719169233959,0.0263752802099,-0.115728140667,0.349429814078,-0.102714621096,-2.57156348228,-0.0402500554919,-0.897103786469,0.0529845803976,-1.32349526882,0.479262828827
2017/07/09/09:37:00.900172,260556,1499564223,699715077,,0.635097836069,-0.0557378498778,0.243256169484,0.812151221577,0.524977026493,-0.239674871599,0.0858223215077,-0.0985071385593,-0.0592379226968,0.0359337498261,-0.140439875535,0.279237697774,-0.120758530631,-1.90157663822,-0.164665699005,-1.21461486816,0.0731824412942,-1.02263140678,0.325229763985
2017/07/09/09:37:00.909833,260557,1499564223,709708311,,0.634943216436,-0.0561385510062,0.244096818607,0.812167046099,0.524485766492,-0.240468683734,0.086453352284,-0.0973091495518,-0.0800587039152,0.0442148857875,-0.167713315838,0.246271622135,-0.15748480296,-2.13077163696,-0.0188490450382,-0.760324180126,-0.0233742929995,-1.15274178982,0.408548235893
2017/07/09/09:37:00.919770,260558,1499564223,719713769,,0.633654888132,-0.0572944016355,0.244604571909,0.812313817085,0.523509982147,-0.242218821929,0.0861022849205,-0.092891572889,-0.0905798643091,0.0444635748648,-0.173098562526,0.217820738085,-0.173985266309,-2.6058382988,-0.0379512533545,-0.731547057629,0.0129370875657,-1.28402292728,0.483395606279
2017/07/09/09:37:00.929705,260559,1499564223,729710007,,0.633387342178,-0.0572659957824,0.244835492449,0.811938969589,0.523600188309,-0.243267928614,0.0861316862343,-0.0944110744854,-0.0702014024292,0.0485065722283,-0.153820318396,0.239459503046,-0.141685794118,-2.40621161461,0.806556522846,-1.659689188,-0.217757746577,-1.27250647545,0.536838114262
2017/07/09/09:37:00.939789,260560,1499564223,739708705,,0.632478448719,-0.0579846301407,0.244654050876,0.811743565361,0.52323979195,-0.244786002461,0.0858621989853,-0.0843258130739,-0.0465932569458,0.0315294414615,-0.148378470222,0.271448675072,-0.0656187799233,-1.45430457592,0.244429856539,-1.74728310108,-0.0483186803758,-1.00726628304,0.348947048187
2017/07/09/09:37:00.950325,260561,1499564223,749715301,,0.630895444801,-0.0591186413601,0.245177980684,0.811724875637,0.522299208881,-0.24694284926,0.0855890873466,-0.0897252426001,-0.0911356745202,0.0371594694351,-0.197809617643,0.245641093131,-0.105976416,-0.985394716263,-0.017791941762,-1.62215638161,0.000430904328823,-0.763663232327,0.176572918892
2017/07/09/09:37:00.959974,260562,1499564223,759711841,,0.630720382621,-0.0601741473566,0.245812758226,0.811973395385,0.52167918215,-0.247257243506,0.086103958277,-0.0858859655717,-0.0765181624646,0.0344042527382,-0.157597835454,0.237876595039,-0.085439023934,-0.650944173336,-0.208998844028,-1.38792681694,0.116140052676,-0.758207440376,0.19900098443
2017/07/09/09:37:00.969795,260563,1499564223,769707341,,0.630021684874,-0.0596134459829,0.24545514324,0.811371615633,0.522194982601,-0.248487943339,0.0851013719408,-0.0664816674558,-0.0498770813581,0.0298148459792,-0.117446941928,0.192951433668,-0.078005516483,-1.26396858692,0.393763303757,-1.10508155823,-0.0395011343062,-0.924504637718,0.317365318537
2017/07/09/09:37:00.983356,260564,1499564223,779708749,,0.629425204507,-0.0606365591867,0.245993214241,0.811999168079,0.520851353189,-0.24914106726,0.0854397303586,-0.064266581478,-0.0388000833714,0.0164784055272,-0.0760326366014,0.1748565639,-0.0920539858944,-1.97139620781,0.126229673624,-0.961373627186,-0.129265397787,-1.04402780533,0.439886540174
2017/07/09/09:37:00.989567,260565,1499564223,789709543,,0.629144363804,-0.0608503473685,0.246528145997,0.811545750054,0.521116104432,-0.250000985352,0.085621309226,-0.0503043661118,-0.0367298701588,0.0202811503988,-0.0646713214694,0.132792268745,-0.0760941485755,-2.8238928318,0.405604183674,-0.773091375828,-0.265649557114,-1.29999947548,0.55539560318
2017/07/09/09:37:01.000054,260566,1499564223,799715542,,0.628561842366,-0.0608178842528,0.24635393042,0.811754510463,0.520704385856,-0.250405479667,0.0849626567796,-0.048123739027,-0.0250325157778,0.0136044860953,-0.0691085669168,0.137216631236,-0.0714429656162,-2.39901614189,0.417708158493,-1.51144945621,-0.229307025671,-1.19640481472,0.548653066158
2017/07/09/09:37:01.010072,260567,1499564223,809708375,,0.628126379183,-0.060921024683,0.246237460659,0.81148379891,0.520951073499,-0.250941372023,0.0844538390738,-0.0384016681176,-0.0225953704342,-0.00276648051275,-0.0437533708004,0.0994266932482,-0.0738076677638,-2.33338189125,-0.210230320692,-1.28828275204,-0.0240874961019,-1.1162211895,0.44707274437
2017/07/09/09:37:01.020000,260568,1499564223,819706595,,0.627263710683,-0.0616075008428,0.245900105324,0.811755072778,0.520050037587,-0.252042698414,0.0841197860245,-0.0522721028227,-0.0325494461402,-0.00117556630785,-0.0276655778126,0.126392160558,-0.0674575976923,-1.53151214123,-0.345061540604,-1.48739933968,0.116484925151,-0.877869844437,0.265502691269
2017/07/09/09:37:01.029842,260569,1499564223,829715699,,0.627533479185,-0.0617585470208,0.246615404323,0.811723870585,0.520059036357,-0.251967640986,0.0845887966725,-0.0558165966303,-0.0237319353297,-0.00113641858556,-0.0405179004509,0.145661465531,-0.0877064438378,-0.464525103569,-0.365343272686,-0.93963432312,0.268579274416,-0.683217942715,0.178311079741
2017/07/09/09:37:01.039882,260570,1499564223,839708922,,0.626362495777,-0.0619175536133,0.246148653743,0.811608494966,0.519848134935,-0.253138046,0.0834907010996,-0.0507355135621,-0.0139610930455,-0.000298993912212,-0.0244840285869,0.150931527287,-0.0434203780519,-1.80949950218,0.10968003422,-1.31976437569,0.0697070360184,-1.12442886829,0.378636628389
2017/07/09/09:37:01.050156,260571,1499564223,849710339,,0.627130455749,-0.0611914403425,0.245829375485,0.811309984148,0.520489624928,-0.252738338584,0.0836061730623,-0.0416560577348,0.00232099853658,-0.00517814043376,-0.00661587203543,0.126157369745,-0.041048499226,-1.66990995407,0.707886755466,-1.03273808956,0.0118797197938,-1.20818781853,0.473122984171
2017/07/09/09:37:01.059870,260572,1499564223,859715742,,0.626150252458,-0.0618983014001,0.245942286073,0.811807720953,0.519510388544,-0.253274577994,0.0832416274339,-0.0356415462132,-0.0231960146421,0.00134321441285,-0.0213272036992,0.0862224386901,-0.0526650339766,-2.19119215012,0.42346689105,-0.977872371674,-0.046728245914,-1.22032821178,0.473797231913
2017/07/09/09:37:01.069830,260573,1499564223,869710467,,0.626404984707,-0.0620242463818,0.245913383689,0.811505864088,0.519853740257,-0.253439084806,0.0835401196085,-0.0175313629112,0.00314034807036,-0.0139158098994,0.0106425485589,0.055628653824,-0.0106698024432,-1.85493063927,0.63253647089,-0.777659237385,-0.0588475689292,-1.15043878555,0.455926090479
2017/07/09/09:37:01.079753,260574,1499564223,879714624,,0.62656078444,-0.061862685058,0.246245458172,0.811939784293,0.519258515956,-0.253167475171,0.0838487316917,0.00126312137034,-0.004211453605,-0.0121627685446,-0.00650708879519,-0.00610284008048,-0.0253576888946,-0.828839242458,0.317379504442,-0.805220603943,0.0297091640532,-0.817767739296,0.304414778948
2017/07/09/09:37:01.089885,260575,1499564223,889718328,,0.625776074156,-0.0622840610924,0.245708651885,0.811912821147,0.519017474479,-0.25394907142,0.0832364173193,-0.00649826150874,-0.0118842129542,-0.0100729174796,-0.0213279949476,0.00723060651205,-0.0425452638962,-1.11303555965,-0.0293795466423,-1.06569576263,0.0718565285206,-0.829086840153,0.271677851677
2017/07/09/09:37:01.099977,260576,1499564223,899713588,,0.625597918697,-0.0625511357252,0.245339644379,0.812087349487,0.518753432132,-0.254038680073,0.0829057445646,-0.0182001648547,-0.0152063545745,-0.0231985992747,0.0130003256204,0.033076937645,-0.056372291192,-1.15689468384,-0.194856107235,-1.24372792244,0.091001406312,-0.826053142548,0.30188781023
2017/07/09/09:37:01.110221,260577,1499564223,909713368,,0.625687988573,-0.0625017763417,0.245379556094,0.811687700485,0.519349299187,-0.254109200128,0.0828727743323,-0.0252633155989,-0.018654132335,-0.0195442965812,0.0172799671129,0.0551259348694,-0.042087042643,-1.89912116528,0.100304171443,-1.35429859161,0.0518138259649,-1.10721027851,0.459505230188
2017/07/09/09:37:01.119996,260578,1499564223,919735250,,0.625607659435,-0.0625903687513,0.245729387505,0.812052026426,0.518629813362,-0.254272324227,0.0833079120057,-0.0144575725837,-0.0275392995581,0.00034258949395,-0.00509142564133,0.0214714538765,-0.0283047392452,-2.07203912735,0.38682949543,-1.36573374271,-0.00844528153539,-1.14405941963,0.492629915476
2017/07/09/09:37:01.129905,260579,1499564223,929709431,,0.625621180983,-0.063412991436,0.245276303801,0.811679346658,0.518943833584,-0.254794452919,0.0833889834249,-0.00440851218929,-0.0216632763125,-0.00292069783205,-0.0356962188697,0.0240193750419,-0.0159422437475,-1.93361616135,0.460448384285,-1.4627187252,-0.0523924678564,-1.14962244034,0.48404532671
2017/07/09/09:37:01.139721,260580,1499564223,939712067,,0.625686903072,-0.0624451766651,0.244485837858,0.811559453441,0.519489894862,-0.254352667866,0.0824998364594,0.00114336441603,-0.0078646808861,-0.0108772955909,-0.0152055762521,0.024728258714,0.00376345508544,-1.53705978394,0.721675097942,-1.79861819744,-0.139328062534,-0.990324854851,0.426423430443
2017/07/09/09:37:01.150058,260581,1499564223,949707940,,0.62569256922,-0.0626753986318,0.245321669651,0.81172628771,0.519195564479,-0.25427332278,0.0829546682694,-0.00888971552941,0.000359607390248,-0.0117422198104,0.0081189607362,0.0274353394833,-0.00471207698221,-1.25186228752,0.365542829037,-1.31366014481,-0.0569978430867,-0.901840686798,0.362258464098
2017/07/09/09:37:01.160031,260582,1499564223,959715010,,0.625761022304,-0.0628896433592,0.2447499725,0.811892509439,0.518953653511,-0.254270829971,0.0828492827365,-0.00150515905656,-0.00747695188807,-0.0115481054828,0.000344452118353,0.00935784457382,0.00406135683712,-1.25753068924,0.324754834175,-1.45682930946,-0.0163686387241,-0.934293210506,0.382048279047
2017/07/09/09:37:01.169961,260583,1499564223,969712056,,0.625749574658,-0.0631685092127,0.245201332121,0.8119144529,0.518852413564,-0.254256859678,0.0833099238874,-0.0159507635022,-0.0191278919954,-0.0164796587646,-0.0140149029742,0.0422306265628,-0.0128388495214,-0.202202543616,0.19653211534,-1.23689746857,0.086955986917,-0.578078210354,0.215210720897
2017/07/09/09:37:01.179937,260584,1499564223,979714509,,0.624936963595,-0.0633760984798,0.244391707302,0.812204569736,0.518241619391,-0.254882734436,0.0823659669885,-0.00642842109719,-0.0108701637091,-0.0238644951095,0.0106707554586,0.0123927917437,-0.035603305853,-1.06546223164,0.016664808616,-1.29687929153,0.0300569795072,-0.812886893749,0.322168916464
2017/07/09/09:37:01.189692,260585,1499564223,989709256,,0.62522095519,-0.0635456216176,0.244320939233,0.812014798069,0.518540776301,-0.254804819198,0.0825950067752,-0.010013234139,-0.0199394922769,-0.0167515178946,-0.00678652206424,0.0133682625429,-0.0388789704739,-1.19792521,0.338895499706,-1.30395996571,-0.0768791139126,-0.886445522308,0.376444965601
2017/07/09/09:37:01.200025,260586,1499564223,999711857,,0.624937188101,-0.0643947065213,0.245042343691,0.812276385983,0.517835050767,-0.255240003793,0.0831051949958,-0.0156716352882,-0.0200253048111,-0.01340052397,-0.00420361851776,0.027787286266,-0.0459261698365,-1.52976071835,-0.120401918888,-1.21895706654,-0.0122711528093,-0.909945309162,0.384663879871
2017/07/09/09:37:01.210200,260587,1499564224,9711460,,0.625080824985,-0.06396473144,0.244236547766,0.811991530389,0.518536647583,-0.254933124735,0.0824536330533,-0.0347687397568,-0.0322582478958,-0.0187081864351,0.00402406520286,0.0582122846022,-0.0772387419152,-1.02177011967,0.444099634886,-1.30234909058,-0.10281368345,-0.863751411438,0.38471993804
2017/07/09/09:37:01.219905,260588,1499564224,19712914,,0.624513813987,-0.0638803528141,0.243578202919,0.812077263182,0.518304318795,-0.255362459132,0.0817384010525,-0.024070952748,-0.027604720483,-0.0155529047945,0.00805895858418,0.052070186501,-0.0294318955204,-1.10112214088,0.63780528307,-1.57877409458,-0.179429590702,-0.863467395306,0.434423416853
2017/07/09/09:37:01.229843,260589,1499564224,29709050,,0.62475651842,-0.0640190151543,0.243821106732,0.812271506301,0.518155299731,-0.254957560495,0.0820166309834,-0.00789859233541,-0.00210102321991,-0.0151482532867,0.0253312781671,0.0282491551372,0.00555607696043,-2.02034068108,0.66134339571,-1.10311961174,-0.175040528178,-1.15871953964,0.536091506481
2017/07/09/09:37:01.239853,260590,1499564224,39714907,,0.624566010004,-0.0643502061309,0.243672346348,0.812191782524,0.518165222773,-0.255223819476,0.081915275025,0.00275606592217,-0.00359489670763,-0.0115982329854,0.0175717980543,-0.0118677665752,-0.00945836303898,-1.93814051151,0.389123529196,-1.04379415512,-0.0593321844935,-1.11702179909,0.521346151829
2017/07/09/09:37:01.250109,260591,1499564224,49707758,,0.62408062564,-0.064570962528,0.243672989109,0.812189047354,0.517930744576,-0.255708195035,0.0819146761722,0.0113188969385,-0.0118854163327,-0.0134664318549,0.00742160773875,-0.024460728826,0.0118089121667,-1.89370703697,0.374357193708,-1.34432971478,-0.0330727435648,-1.00405693054,0.419402509928
2017/07/09/09:37:01.259736,260592,1499564224,59714228,,0.624298651483,-0.0644332375294,0.243848254586,0.812535608409,0.517669320911,-0.255185657841,0.0817596433928,-0.00898801106681,-0.00480372323477,-0.0142371019309,-0.00153563703178,0.0256980034703,-0.017776698111,-1.73794960976,-0.18976277113,-0.690696239471,0.0873359143734,-1.02505934238,0.390249967575
2017/07/09/09:37:01.270035,260593,1499564224,69710408,,0.624092031407,-0.0646790896945,0.243305313988,0.812074961182,0.518180968162,-0.25573368953,0.0813819494442,-0.0133348486272,-0.0181942441914,-0.00178999787761,-0.030453393435,0.0250046569238,-0.0322742069809,-1.33357775211,-0.201218813658,-1.61105120182,-0.0198294464499,-0.830535769463,0.317539572716
2017/07/09/09:37:01.279566,260594,1499564224,79722469,,0.62415059328,-0.0649580703736,0.243042770352,0.812094700414,0.518002660577,-0.255916700338,0.0817440131328,-0.0122945360329,-0.0161051566373,-0.0146914709882,0.00595427099755,0.0373048058721,-0.0101417995113,-0.843465149403,-0.247023999691,-1.62768054008,-0.0278096944094,-0.636729955673,0.222087875009
2017/07/09/09:37:01.289721,260595,1499564224,89707140,,0.623691883625,-0.0653717307066,0.243070389507,0.81235854457,0.517516449745,-0.256144920309,0.0814868032684,-0.013973240536,-0.0284272874351,-0.0186039759007,0.0021850643478,0.0130399863473,-0.0568210332317,-0.994705975056,-0.0576033778489,-1.00364923477,-0.0326165147126,-0.747569143772,0.273540765047
2017/07/09/09:37:01.300313,260596,1499564224,99708440,,0.623332688193,-0.0655897625628,0.24269568367,0.812636439783,0.517108107481,-0.256206464069,0.0811139302619,-0.0270140866285,-0.0155752391439,-0.0250342441342,0.0212616114545,0.0696506269381,-0.031176088023,-2.10008311272,-0.180643558502,-1.42772006989,-0.128928765655,-1.03375017643,0.433310985565
2017/07/09/09:37:01.309830,260597,1499564224,109707385,,0.623927521237,-0.0655746614783,0.242928218414,0.812800844313,0.517063895373,-0.255638421533,0.0815396408021,-0.0120046239798,-0.0123749208252,-0.0206350824027,0.028297572863,0.0219148899068,-0.0438728528293,-1.47348034382,0.0413403436542,-0.806192398071,-0.0346160791814,-0.956487238407,0.386221885681
2017/07/09/09:37:01.320096,260598,1499564224,119714856,,0.623200255825,-0.0656476144877,0.24193931281,0.812452381257,0.517427286309,-0.256335524333,0.080512300532,-0.010091482101,-0.016651220587,-0.0185608830655,5.52390218127e-05,0.0145060759244,-0.0303968384511,-2.0799882412,0.594290673733,-1.0645070076,-0.212321296334,-1.09627640247,0.482982575893
2017/07/09/09:37:01.329650,260599,1499564224,129707462,,0.623138203243,-0.0651428034249,0.241598307475,0.812430946532,0.517596379495,-0.256244129407,0.0799305398224,-0.00547843420222,0.00511421893095,-0.0263507314294,0.0336647869181,0.0301313996454,0.00477674765546,-1.51541090012,0.469206362963,-1.39504158497,-0.12468714267,-0.937948763371,0.421381682158
2017/07/09/09:37:01.339702,260600,1499564224,139732254,,0.62396886663,-0.0648343880265,0.241896133338,0.812158883008,0.518155337872,-0.255799010295,0.0804975833047,0.00960553974705,-0.00910655824488,-0.0195021349704,-0.00637126505732,-0.00743757463214,-0.00449597350938,-1.07030820847,0.624975264072,-1.03778815269,-0.12449734658,-0.821194708347,0.340699464083
2017/07/09/09:37:01.350526,260601,1499564224,149713827,,0.623435111395,-0.0646343905273,0.241861506819,0.812308057895,0.517955523126,-0.255916250438,0.0799034911895,0.00057238163951,-0.00560587512701,-0.0046856782521,-0.00554014600012,0.0062694131407,-0.00652169198724,-0.8812084198,0.304887920618,-1.3017591238,-0.0931468904018,-0.718812644482,0.304899513721
2017/07/09/09:37:01.359917,260602,1499564224,159708801,,0.623815521428,-0.0651497367405,0.242232406533,0.812497039957,0.517553143376,-0.255850631612,0.0807945427982,-0.0133026738484,-0.0056575555315,-0.0089572983633,0.0143591294968,0.0307903980641,-0.0139814438693,-0.178223535419,0.0331695750356,-0.889300107956,0.00188638269901,-0.535774469376,0.184797078371
2017/07/09/09:37:01.370079,260603,1499564224,169711818,,0.622893568393,-0.0657499742975,0.24168407168,0.812823285249,0.516883072127,-0.256429706042,0.0799625072449,-0.01757515568,0.000745841726023,-0.0184458902198,0.0274239319502,0.0431313271265,-0.0254029233899,-0.46540632844,-0.703952848911,-1.73443162441,-0.0283583626151,-0.470416009426,0.166740775108
2017/07/09/09:37:01.379680,260604,1499564224,179707455,,0.623288765862,-0.0651165087378,0.241481606418,0.812739647922,0.517280502551,-0.255936234089,0.0798234956418,-0.0153986389592,0.000455718899192,-0.0234802388466,0.0365494981425,0.0443762975114,-0.0198145705892,0.331393331289,-0.0605629682541,-1.48928356171,-0.0961749628186,-0.264908432961,0.0840577036142
2017/07/09/09:37:01.389880,260605,1499564224,189718003,,0.622804374969,-0.0658910085001,0.241365039271,0.8124265388,0.517446640429,-0.256621083833,0.0797352663172,-0.0186598762798,-0.0116923538745,-0.0294848784156,0.0233558790173,0.048880221987,-0.0315195957488,-0.159912019968,-0.379424244165,-1.1767591238,-0.0487597323954,-0.464767187834,0.125495657325
2017/07/09/09:37:01.400129,260606,1499564224,199708852,,0.622834551825,-0.0655055137961,0.240863308518,0.812383905685,0.517527583192,-0.256696704219,0.0794002044275,-0.0154597849347,-0.0303001080144,-0.00705086728467,-0.0189224698415,0.0101783293817,-0.0597574889433,-0.953737556934,0.350755125284,-1.43209958076,-0.206521570683,-0.709543526173,0.29659730196
2017/07/09/09:37:01.409817,260607,1499564224,209707703,,0.622771121955,-0.0660150282534,0.241027927778,0.812475714915,0.51722919156,-0.256942888581,0.0796085930014,0.00766212988292,0.00215003662211,-0.0119632851428,-0.00985498794439,0.00124370945413,0.0154948633241,-0.988622188568,-0.464818805456,-1.12826156616,-0.0498109683394,-0.717132031918,0.258038759232
2017/07/09/09:37:01.420089,260608,1499564224,219714127,,0.622873628727,-0.0656531091173,0.24100513749,0.812526796363,0.517257626106,-0.256668302438,0.0797880689711,0.00222442501228,0.00428415766092,-0.00847594900707,-0.00475621318181,0.0126481280302,0.0129776572831,-1.26630699635,-0.298204988241,-1.18088269234,-0.0311381295323,-0.804530620575,0.32843708992
2017/07/09/09:37:01.429528,260609,1499564224,229708709,,0.623308060638,-0.064963436363,0.240909984993,0.812217212735,0.517942058007,-0.256352936436,0.0795134948609,0.00651257731013,0.018120409696,0.00119072133026,0.00440467828129,0.00670850166241,0.0251496024733,-0.489309728146,-0.25697773695,-1.41628146172,-0.00153717398643,-0.560853004456,0.190984264016
2017/07/09/09:37:01.439718,260610,1499564224,239708642,,0.62285523984,-0.0656480074869,0.240742931898,0.812474001961,0.517279780827,-0.256904991599,0.0794194546456,-0.016112726715,-0.00243840995315,-0.0180833968388,0.00689879323509,0.0503373721302,-0.0187671336238,0.073514431715,-0.284143745899,-1.36657035351,-0.0670128166676,-0.38507193327,0.0986045598984
2017/07/09/09:37:01.450054,260611,1499564224,249713365,,0.622902841116,-0.0659056189395,0.241122247396,0.812298657838,0.517371016879,-0.257133848831,0.0798768123701,-0.00685083119152,-0.0081296128413,-0.0160423393272,0.00418631521336,0.0288232031623,-0.00776313550002,-0.400044441223,-0.815188407898,-1.64293134212,0.0487124212086,-0.457682341337,0.135357379913
2017/07/09/09:37:01.459907,260612,1499564224,259710600,,0.622471969047,-0.0661407780094,0.240736031775,0.81263870931,0.51683893195,-0.257256025355,0.0794681317848,-0.0045635786636,0.0188079560594,-0.016339883009,0.0433248636609,0.0300152767202,0.00691159868455,-0.461101770401,-0.689921021461,-1.45689713955,-0.0322208702564,-0.500851213932,0.151687011123
2017/07/09/09:37:01.470054,260613,1499564224,269715340,,0.622933342118,-0.0653446259527,0.240162794359,0.812430923394,0.517438281787,-0.256836963477,0.0790467801187,0.0047554759344,0.0104451191315,-0.0175142647734,0.0303679020162,-0.00487529865101,-0.00146533802163,-0.376817941666,-0.34755012393,-1.56522464752,-0.0949419215322,-0.503960371017,0.186017364264
2017/07/09/09:37:01.479745,260614,1499564224,279729418,,0.622877713238,-0.0658243518755,0.240341833965,0.812470562803,0.517459368693,-0.256646309339,0.0791205297788,0.00795020292341,0.0082710526498,-0.00631448928225,0.0274883464626,-0.0106444887068,0.0135164913254,-1.05739200115,-0.435035824776,-1.1287997961,-0.0611567273736,-0.759531199932,0.265319377184
2017/07/09/09:37:01.489660,260615,1499564224,289710293,,0.622772703169,-0.0658932927715,0.240518786774,0.812296880344,0.517362137194,-0.25725584786,0.079558946215,-8.70428876002e-05,-0.00408425458562,0.0012449122797,-0.00656621768684,0.0060398889487,0.0141501023817,-0.929652452469,-0.608081936836,-1.2053334713,0.0201320834458,-0.684403955936,0.221638351679
2017/07/09/09:37:01.500066,260616,1499564224,299731610,,0.622702410912,-0.0654460836775,0.239740507908,0.812474707258,0.51726332703,-0.257082606999,0.0789432312115,-0.0207194354463,-0.0202309000654,-0.0074619854396,-0.0222132400159,0.0290077805868,-0.0562706644932,0.0621778964996,-0.491091072559,-1.89019954205,-0.071826659143,-0.360836625099,0.0938958376646
2017/07/09/09:37:01.509927,260617,1499564224,309715860,,0.622768238352,-0.0650696877608,0.240370234944,0.812873770757,0.516933042562,-0.25650464532,0.0788785728336,-0.0045726811249,-0.0020657298606,-0.0141647077213,0.00517760937704,0.0225507477326,-0.00386294384383,-0.194864094257,-0.0826135054231,-1.51581978798,-0.116114571691,-0.457685410976,0.151044130325
2017/07/09/09:37:01.520064,260618,1499564224,319715033,,0.622745192445,-0.0656052348989,0.240167030436,0.812235634888,0.517588318005,-0.257141693246,0.0790806934598,0.00405155654191,0.013653166531,-0.00186641477896,0.0168944483678,0.00411428271817,0.018621322419,-0.978628098965,-0.407373458147,-1.35779082775,-0.0478207617998,-0.748900175095,0.275192707777
2017/07/09/09:37:01.529863,260619,1499564224,329710717,,0.622534393466,-0.0654220673219,0.24039482133,0.812120959756,0.517786435403,-0.257210208754,0.0787379358986,-0.0185800414685,-0.00435039232342,0.00200082978012,-0.00536692625188,0.0565835086073,-0.00038096838502,-0.247231602669,-0.5766466856,-1.39275979996,-0.0670881643891,-0.498023122549,0.135305956006
2017/07/09/09:37:01.539716,260620,1499564224,339714275,,0.622202900916,-0.0657183184455,0.240285681827,0.812637267487,0.516810369513,-0.257521108276,0.0788073108736,-0.00943448555379,-0.00716208803801,0.0053071635021,-0.0146379432858,0.0132629673206,-0.0340001213872,-1.39190113544,-0.70513433218,-1.34039437771,-0.012567864731,-0.889425873756,0.32280805707
2017/07/09/09:37:01.550371,260621,1499564224,349706604,,0.622038270456,-0.0659466917829,0.239802072774,0.812615780635,0.516799031254,-0.257703393768,0.0785067844125,-0.00587892697006,0.0038008220123,-0.00697663946421,0.0127823447231,0.0307995625424,0.0261368627552,-0.965296208858,-0.558334171772,-1.67244458199,-0.0290660802275,-0.739957869053,0.28911831975
2017/07/09/09:37:01.560028,260622,1499564224,359721937,,0.622890297404,-0.06557498959,0.240423142794,0.812374526561,0.517376031253,-0.257020055167,0.0794377877474,0.00106999307266,0.0103630899223,-0.0101266638519,0.00849538110776,0.0171739543195,0.0259987398872,0.887122392654,-0.490311592817,-1.27651035786,0.040165796876,-0.213079378009,0.0173242688179
2017/07/09/09:37:01.570030,260623,1499564224,369719273,,0.622573228518,-0.065904942198,0.240045956158,0.812315289141,0.517293311051,-0.257460737211,0.0791547229439,-0.000288277272558,-0.00226115017568,-0.0199463216168,0.00197091902519,0.00756245746387,-0.0121428231044,0.630441069603,-0.795722782612,-0.815531671047,0.112855799496,-0.258662521839,-0.00441842898726
2017/07/09/09:37:01.579978,260624,1499564224,379714409,,0.622975296564,-0.0655898233407,0.240167162733,0.812232559591,0.517613704985,-0.257012120043,0.0793668173916,0.00686903518134,0.0141529506447,0.000456818302543,0.00926222448889,-0.0180301732934,0.00739557858135,0.565589129925,-0.8167745471,-0.755188822746,0.156944930553,-0.354764610529,0.0225446205586
2017/07/09/09:37:01.589785,260625,1499564224,389707346,,0.622357000652,-0.0648622840364,0.239194716827,0.812143588899,0.51782364395,-0.257283126886,0.0780183144956,0.00354284835596,-0.00836838571163,0.00264670311594,-0.00238285068794,-0.0262305628327,-0.0178618680548,-0.025993919,-0.288831949234,-1.38307833672,0.0197706799954,-0.463308542967,0.144352376461
2017/07/09/09:37:01.600336,260626,1499564224,399714401,,0.622649710066,-0.0654331922751,0.239666222089,0.812093644609,0.517824561056,-0.257262439033,0.0785981794687,-0.00128713501158,0.00293581640656,-0.000363760315993,0.0151719760286,0.00270578273229,-0.00427539912499,0.0250580199063,-0.293985396624,-0.867789685726,0.0590416677296,-0.518348515034,0.162076070905
2017/07/09/09:37:01.609808,260627,1499564224,409709752,,0.622911538217,-0.0649927231099,0.240106616005,0.812410799809,0.517556384442,-0.256753186177,0.0787520327695,-0.0032603916033,-0.0107605655138,0.0019947404798,0.00205534348384,0.00214009344113,-0.00730450373412,0.0376150906086,-0.529262900352,-1.05159127712,0.0314397364855,-0.471432238817,0.119526788592
2017/07/09/09:37:01.619938,260628,1499564224,419722613,,0.622629794633,-0.0657535662345,0.239947461033,0.812786829407,0.516845188139,-0.256949684383,0.0789017181984,0.000516945649873,0.0103708734321,-0.00521414794963,0.0137792062357,0.0084892798107,0.00207207386528,-0.443556368351,-0.800405621529,-0.92439198494,0.0655283555388,-0.592203557491,0.152879282832
2017/07/09/09:37:01.629546,260629,1499564224,429708411,,0.622299391243,-0.0655928076186,0.239819920647,0.81247796194,0.517160149622,-0.257385883664,0.0785967422674,-0.00816845253448,-0.00990015345491,-0.00869788873717,-0.0023336276147,0.0121076376711,-0.0225826592428,-0.857210695744,-0.215778440237,-1.09366846085,-0.0406034514308,-0.743955492973,0.253775507212
2017/07/09/09:37:01.639937,260630,1499564224,439725629,,0.622580711032,-0.0652085311218,0.239865354679,0.812103110729,0.517838867651,-0.257183009986,0.0786660286786,-0.00192609023123,-0.00371960276883,0.00782670445961,-0.00417709043672,-0.00372342161073,0.00437832423002,-1.03539800644,-0.301881551743,-1.37109744549,0.00345794670284,-0.7859146595,0.3186198771
2017/07/09/09:37:01.650056,260631,1499564224,449716697,,0.622506471408,-0.0656827589008,0.239781921977,0.812585971471,0.517103159231,-0.2571530657,0.0786171894894,0.000242363046813,-0.00733288162725,0.00482139755222,-0.00356290675426,0.00803284505939,0.0227862947352,-0.994594275951,-0.620495855808,-1.3939448595,-0.0409109145403,-0.71656024456,0.256984174252
2017/07/09/09:37:01.659889,260632,1499564224,459708481,,0.622510492276,-0.0653997331935,0.239705602643,0.812392926271,0.517305758026,-0.257353954112,0.078622060268,-0.00672687095392,-0.0122684344039,-0.00229541931952,-0.0222629346974,0.0227651534705,-0.00325552490482,-0.926990389824,-0.18416659534,-1.03585481644,-0.0244334489107,-0.771009504795,0.290382176638
2017/07/09/09:37:01.670202,260633,1499564224,469708029,,0.622403994345,-0.0656993767451,0.240100303209,0.812575881551,0.517115533522,-0.257133933998,0.0787026155741,0.00812341625492,-0.0138250562255,0.00928966202926,-0.0307828214594,-0.0348759287417,-0.0105365012739,-0.593953609467,0.0295830816031,-1.31220138073,-0.0643662884831,-0.645522892475,0.253460437059
2017/07/09/09:37:01.679792,260634,1499564224,479708287,,0.622925956391,-0.065616352247,0.239954542246,0.812609122232,0.517263830092,-0.256609545534,0.0790954213873,-0.00668261574068,0.0167260307668,-0.0214362962373,0.0257639821792,0.0308397490262,-0.0119737481027,-0.293637514114,-0.688800930977,-0.803004622459,0.0491035804152,-0.567164719105,0.155301660299
2017/07/09/09:37:01.689746,260635,1499564224,489712479,,0.622254023462,-0.065508555467,0.23938318888,0.812591100386,0.517070299226,-0.257338271164,0.0781730351563,0.00124976169136,0.0150790784359,-0.00249540054625,0.0210616965462,0.0171489575448,0.0273355282291,-0.920172452927,-0.463186740875,-1.32180476189,0.0219526160508,-0.70611846447,0.234304383397
2017/07/09/09:37:01.700256,260636,1499564224,499707095,,0.622649710066,-0.0654331922751,0.239666222089,0.812391385078,0.517357324389,-0.257217183434,0.0787461548209,-0.00266154506195,-0.0105501282245,0.00267876084732,-0.00752515951056,-0.00766015407415,-0.0109984289823,-0.748600125313,-0.415710270405,-1.19146120548,0.0169718973339,-0.684375524521,0.224584639072
2017/07/09/09:37:01.709829,260637,1499564224,509709852,,0.62232330084,-0.0658284491139,0.239509627199,0.812276651829,0.517238737427,-0.257803764,0.0787905366538,0.0120056652559,0.00212793752841,-0.00455187704008,0.00935823777631,-0.0197549650283,0.0202871949328,-0.813457667828,-0.490472555161,-1.22205102444,-0.00763246975839,-0.643462717533,0.229513913393
2017/07/09/09:37:01.719881,260638,1499564224,519714199,,0.623200080608,-0.065085781934,0.239528102404,0.812362185339,0.517764863563,-0.256485649564,0.0787549202181,-0.00195186497895,-0.00555381015981,-0.00411340171438,-0.0143440886694,0.00897840003428,-0.0056923895741,-0.655324518681,-0.515634775162,-0.783721864223,0.109117612243,-0.719079375267,0.208644121885
2017/07/09/09:37:01.729769,260639,1499564224,529709849,,0.622967956588,-0.0652714555436,0.239842927445,0.812331509954,0.517534416993,-0.256952094005,0.0790649514622,0.00812605309397,0.0123393998343,0.00212095985357,0.0201623957811,-0.0196936228844,0.0149392387334,-0.90702778101,-0.421463757753,-0.71832972765,0.0300308950245,-0.751065671444,0.272856712341
2017/07/09/09:37:01.739912,260640,1499564224,539716768,,0.622398641452,-0.0658547714914,0.239525226853,0.812235480571,0.517605020504,-0.257285776977,0.0785022026241,0.01280330184,-0.000348505129421,0.00562385688724,-0.00623477194594,-0.0415149556902,-0.00463134874703,-1.07176411152,-0.458278506994,-1.20028269291,0.0547475963831,-0.75760436058,0.290949493647
2017/07/09/09:37:01.750002,260641,1499564224,549708095,,0.622391937464,-0.0657046864338,0.239000946506,0.812413697902,0.517308007192,-0.257371316693,0.0783352698298,-0.00861841614599,-0.00134275323329,-0.0205851305571,0.01067295686,0.0326865896213,-0.00699260712487,-0.808477401733,-0.836219549179,-1.38272178173,0.0666737928987,-0.646549522877,0.229925468564
2017/07/09/09:37:01.759928,260642,1499564224,559709882,,0.622968738173,-0.0648143141064,0.239824624302,0.812101203298,0.517890512288,-0.256986712205,0.07898659781,-0.00197863549065,-0.00538149426207,-0.00162970494227,-0.00275831218372,-0.0137565314859,-0.0396192625388,-0.394028693438,-0.312649071217,-0.987460374832,-0.0195672959089,-0.563448607922,0.199373826385
2017/07/09/09:37:01.769986,260643,1499564224,569710847,,0.622071591819,-0.0654918618863,0.239453797495,0.812457913853,0.517019423578,-0.257819367399,0.0783085413905,-0.0061367471037,0.00283705070481,-3.86211254844e-05,0.00264781215648,0.0036259898208,-0.0290168076827,-1.00477766991,-0.424763917923,-1.31113469601,-0.0712405368686,-0.705975413322,0.249259203672
2017/07/09/09:37:01.779820,260644,1499564224,579711712,,0.622983031646,-0.0651423785234,0.239917965825,0.812427967182,0.517462339631,-0.256836441054,0.0789212756512,-0.0119417764992,9.06593592727e-05,0.00950581291962,-0.00386321981947,0.0213234833776,-0.0102904491368,-0.325439602137,-0.336175054312,-1.19379758835,-0.0284038595855,-0.59116178751,0.215189650655
2017/07/09/09:37:01.789581,260645,1499564224,589711882,,0.622382777685,-0.0652257178968,0.239535312352,0.812476137034,0.517210336629,-0.257348456276,0.0784076940525,-0.000693170238125,0.00186581645776,6.95639591197e-05,0.00217244745077,0.0123763570867,0.0086629672704,-0.370499283075,-0.546147108078,-1.29881691933,0.0254154335707,-0.560337305069,0.15260194242
2017/07/09/09:37:01.799872,260646,1499564224,599715616,,0.622495355362,-0.0655288020102,0.239630601001,0.812197186497,0.51753367508,-0.257484682739,0.0787163487433,-0.00274274711028,-0.00198010474019,-0.00612752434396,0.00192033891702,0.00801676060278,-0.00118677829893,-0.551988780499,-0.552014529705,-1.1508769989,0.00707470625639,-0.597553014755,0.200678050518
2017/07/09/09:37:01.810035,260647,1499564224,609719850,,0.622714796212,-0.0656463491848,0.239182249067,0.812367065198,0.517371405155,-0.257270050627,0.0787318331987,0.0132751748218,-0.00262624542485,-0.00573585927327,0.00488762852532,-0.0202372280636,0.0346337065601,-0.621298134327,-0.691546618938,-1.13624584675,0.0536273941398,-0.620156526566,0.191885977983
2017/07/09/09:37:01.819721,260648,1499564224,619706618,,0.622608484906,-0.0652796866177,0.239382230066,0.812290529409,0.517563196509,-0.257224406778,0.078409425515,0.00848704296561,-0.00572374116369,-0.000113025542605,-0.00692405533251,-0.0111525604707,0.0268370223148,-0.993834197521,-0.638797283173,-1.07436168194,0.0560281313956,-0.754051446915,0.268978118896
2017/07/09/09:37:01.830126,260649,1499564224,629718157,,0.622871516089,-0.065597698023,0.239737739695,0.812468926816,0.51744991719,-0.256738300789,0.078900386988,0.0103055075104,0.00403579329077,-0.000345465630694,0.0136888496406,-0.0288912472126,0.00703296061427,-0.841911673546,0.149599269032,-1.18245816231,-0.111142866313,-0.700380384922,0.292893469334
2017/07/09/09:37:01.839954,260650,1499564224,639711525,,0.622781925554,-0.0652397004761,0.239022964834,0.812288792695,0.517555201878,-0.257187528624,0.0786009248726,-0.000370655950347,-0.0108759616149,0.00473928569179,-0.0107189664952,-0.0107967762132,-0.0135868568681,-1.38224208355,-0.176129460335,-1.56558513641,-0.13330334425,-0.804255008698,0.331009417772
2017/07/09/09:37:01.850541,260651,1499564224,649714078,,0.622982704963,-0.0655186957202,0.239804399983,0.812429252281,0.517430104991,-0.25682997943,0.0791401172146,0.00409627255773,0.00641260382563,-0.00995531072856,0.00281817492986,0.00819443740489,0.00274305284204,-1.07786643505,-0.562982499599,-0.843236446381,0.0158450230956,-0.77456587553,0.309450179338
2017/07/09/09:37:01.860035,260652,1499564224,659709785,,0.622457360798,-0.0654143658016,0.239208309187,0.812457339182,0.517451064915,-0.256969763792,0.0782560408144,-0.0128768561961,0.00354924721904,-0.0070603434882,0.0216602377758,0.0186580294751,-0.0311534409335,-1.58105349541,-0.366807162762,-1.5448141098,-0.0901849195361,-0.860880017281,0.369317084551
2017/07/09/09:37:01.869867,260653,1499564224,669708459,,0.622483960401,-0.0654933698978,0.239382930682,0.812389911081,0.517407378087,-0.257238952591,0.0783604411978,-0.00585578158017,0.0146072660099,-0.00506391721288,0.0299065887826,0.0198601033418,1.9194165885e-05,-0.505389392376,-0.618564128876,-1.1859600544,0.00151178624947,-0.565332233906,0.197613477707
2017/07/09/09:37:01.879843,260654,1499564224,679713293,,0.622611183005,-0.064828463568,0.239506544339,0.81211714776,0.517827252765,-0.257264913651,0.0783290419531,-0.00199952448856,0.00408359828113,0.0044618190018,0.0152171661,0.000269575858531,-0.00972571771617,-0.185744866729,0.127941742539,-1.10836005211,-0.119377590716,-0.498453080654,0.204680964351
2017/07/09/09:37:01.889632,260655,1499564224,689707815,,0.622976026439,-0.0650376907146,0.239823342155,0.812604841153,0.517320195606,-0.256615435484,0.0787509087122,-0.0139970688761,0.00820251894772,-0.00852528154645,0.0136912991065,0.0414323358066,-0.0109444378433,0.149943172932,-0.773534595966,-0.610225021839,0.092152826488,-0.46818703413,0.126992732286
2017/07/09/09:37:01.900234,260656,1499564224,699713423,,0.622586631419,-0.0649277721515,0.239326342895,0.812567995313,0.517213750104,-0.257095625174,0.0782625658439,-0.000897500711208,0.0133156978892,-0.0139875548084,0.0235086750018,0.00966344537834,0.000862627163065,0.0309046003968,-0.572850823402,-0.738767147064,0.0620234906673,-0.489283293486,0.169834733009
2017/07/09/09:37:01.909773,260657,1499564224,709711024,,0.622812900574,-0.0645245184518,0.239155258248,0.812152060642,0.517922590464,-0.257006201856,0.0781858867654,0.00720855894201,0.00470075832553,0.00181061999422,-0.0123308335477,-0.0214984231354,-0.00211954498525,-0.282457083464,-0.511983752251,-0.924980938435,0.0583851151168,-0.56292450428,0.205629065633
2017/07/09/09:37:01.919811,260658,1499564224,719706906,,0.622773938614,-0.0649211525844,0.238699147934,0.812288433529,0.517631092424,-0.257142986934,0.0782498382218,0.00190891243133,-0.0126366730466,0.00103358537587,-0.0152965605381,-0.0202469889826,-0.0185486845546,0.50422847271,-0.442232608795,-1.33562326431,-0.101831160486,-0.260965943336,0.0779059901834
2017/07/09/09:37:01.929810,260659,1499564224,729716273,,0.622647156012,-0.0645846091744,0.238872222662,0.812249802707,0.517816678762,-0.257012869282,0.0778494073302,0.00160342148522,-0.00192187874009,-0.0124474511791,0.000474345357047,-0.0109879818618,-0.0230294355575,-0.689377784729,-0.572394073009,-1.09151506424,0.0210307352245,-0.620939910412,0.234222635627
2017/07/09/09:37:01.939806,260660,1499564224,739707137,,0.622804539492,-0.0646630422758,0.238849564879,0.812381875349,0.517642561417,-0.25692682206,0.0779132550965,-0.00123644803462,0.00560936541694,-0.00673378192887,0.0179441590776,0.0133992837675,0.00140047906151,-0.488141715527,-0.445707172155,-0.892327785492,0.000492412596941,-0.583622932434,0.246142402291
2017/07/09/09:37:01.950437,260661,1499564224,749709144,,0.622401287864,-0.0651861189304,0.238815241223,0.812584952684,0.517195695136,-0.257193228353,0.0778842146631,0.00909503839887,0.0108989266083,-0.00165985639855,-0.00508895632468,-0.000997080595079,0.023391517351,-0.576901555061,-0.61854159832,-1.36128997803,-0.0848907381296,-0.523227214813,0.216334924102
2017/07/09/09:37:01.960149,260662,1499564224,759715399,,0.622627942174,-0.0644067739483,0.23875822796,0.812266649605,0.517780942876,-0.257095572972,0.0776379513613,0.00348107311362,0.000425975372912,-0.00435852604335,0.00339392493035,0.00672263219683,0.0149519432147,-0.386199593544,-0.152835011482,-1.25090360641,-0.123135298491,-0.535237371922,0.249055191875
2017/07/09/09:37:01.969994,260663,1499564224,769714177,,0.622443258235,-0.0649635569562,0.239212995838,0.812585014053,0.517178042063,-0.257207732091,0.077952872283,0.00478815136811,-0.00123487898427,0.00358740472685,-0.00670579912382,-0.00941379514846,0.00418060593879,-0.365588128567,-0.432395517826,-0.967262387276,-0.0903912708163,-0.523483216763,0.198019459844
2017/07/09/09:37:01.979693,260664,1499564224,779715861,,0.622387931824,-0.0653210143833,0.238882444482,0.812545473802,0.517175955953,-0.257314683807,0.0780258744547,0.000618906332181,-0.00429869412716,-0.00222259756327,-0.0179402836826,-0.00430320078053,-0.0154869555316,-0.912397265434,-1.0450104475,-1.05559003353,0.0996294170618,-0.692385911942,0.220071494579
2017/07/09/09:37:01.989681,260665,1499564224,789710401,,0.62271398869,-0.0648033415149,0.238530370073,0.812481233485,0.5174268935,-0.257041486335,0.0779315688306,-0.0163676972117,-0.00655141374147,-0.0139860619262,-0.00521166063002,0.0313586340259,-0.0456657155154,0.237701848149,-0.508592963219,-1.38012123108,-0.0170202925801,-0.336461007595,0.115595325828
2017/07/09/09:37:01.999996,260666,1499564224,799710770,,0.622647947334,-0.0647529096573,0.23867145445,0.812329375439,0.517599258577,-0.257158453354,0.0779841213833,-0.00203749478872,0.0048054791827,-0.00541659247417,0.0208375581498,0.0196520413644,0.0120059323725,0.307464152575,-0.273481667042,-1.27953839302,-0.0338585264981,-0.338900566101,0.120005778968
2017/07/09/09:37:02.009943,260667,1499564224,809707517,,0.622702771385,-0.0649441610142,0.238739919857,0.812498623927,0.517315274539,-0.257168739977,0.078071326519,0.00563235167474,0.0242541678479,-0.00168896303173,0.023940837119,0.00261983892796,0.0225710906931,-0.00619066040963,-0.439974546432,-1.1607298851,-0.0793995633721,-0.426593989134,0.165900826454
2017/07/09/09:37:02.019975,260668,1499564224,819710114,,0.622446728455,-0.0645957889843,0.23840004911,0.812466537147,0.517435426415,-0.257187999197,0.0775437848947,-0.00556315956659,-0.0034247747779,-0.00786492753693,0.00263801810762,0.0113305833689,-0.00770836797437,0.0820292755961,-0.374326735735,-0.843544840813,-0.0807585343719,-0.407968848944,0.134756565094
2017/07/09/09:37:02.029749,260669,1499564224,829709741,,0.622721647876,-0.0650304589336,0.239134058806,0.812482971714,0.517436836243,-0.256949104049,0.0781517696749,0.000382832507637,-0.00215086071562,-0.0037971335137,0.00331666553727,-0.00632331094512,-0.0101259319949,0.15906535089,-0.617635071278,-0.848439335823,-0.0210795868188,-0.376477122307,0.130606383085
2017/07/09/09:37:02.039566,260670,1499564224,839715378,,0.622374477276,-0.0643240937633,0.238080212643,0.812270373642,0.517661578991,-0.257418295208,0.0773249703009,0.00414152979091,-0.00068933211941,-0.00459096365653,-0.00999021073537,-0.0190674362348,-0.0176699916973,-0.041921980679,-0.600489079952,-1.59065282345,-0.10081384331,-0.384282380342,0.14575278759
2017/07/09/09:37:02.050432,260671,1499564224,849711240,,0.622729105192,-0.065226833175,0.238948677267,0.812602177848,0.517026013022,-0.257261847096,0.0786011732987,-0.000151462538927,-0.00804991600727,-0.00664448379181,-0.0172811860939,-0.0139907059382,-0.0425306433102,-0.0694460272789,-0.76678621769,-1.08056592941,0.02933819592,-0.462234199047,0.173487842083
2017/07/09/09:37:02.059993,260672,1499564224,859717534,,0.622544571442,-0.064652021083,0.238533607999,0.812486634817,0.517240369076,-0.257386416484,0.0779750052981,0.00100926156752,-0.00215159849098,-0.00386258593383,0.00301453837742,0.00499517374671,0.00628517983678,0.0313676074147,-0.280357241631,-1.10839188099,-0.0177852641791,-0.417297303677,0.179930657148
2017/07/09/09:37:02.069927,260673,1499564224,869706814,,0.622702771385,-0.0649441610142,0.238739919857,0.812597802951,0.51715947037,-0.25715376526,0.0781206365717,-0.00170731061999,0.0159793194774,-0.007878573837,0.0104766149766,0.0237109046481,0.0115486162401,0.972862005234,-0.633759140968,-0.984243690968,0.0581051707268,-0.167216196656,-0.00262996228412
2017/07/09/09:37:02.079792,260674,1499564224,879710774,,0.622084214983,-0.0650587624583,0.238420607776,0.812592776375,0.51700117391,-0.257623675897,0.0776711502091,-0.006666492132,-0.00781359514056,-0.000754720176214,0.00113072415922,-0.0103877250514,-0.0331831174843,0.0938359797001,-0.433753073215,-1.14958071709,0.0597088746727,-0.382188379765,0.118418931961
2017/07/09/09:37:02.089676,260675,1499564224,889707707,,0.622447671527,-0.0644794472096,0.238033488818,0.812245218039,0.517631687881,-0.257522274319,0.0774430093923,0.000886640485903,0.00566939824808,0.00086215936516,0.0152278702722,-0.0274656704699,-0.0324934571254,0.131472945213,-0.573799908161,-1.1536077261,0.0632047727704,-0.39953199029,0.0724420547485
2017/07/09/09:37:02.100157,260676,1499564224,899715037,,0.622930720881,-0.0641974476451,0.23840269048,0.812682942469,0.51739172956,-0.256513515743,0.0778013460296,-0.00179990695248,-0.000607203972428,-0.00566876125486,-0.00272045298561,0.021600533768,0.0271586466977,0.244103461504,-0.591432869434,-0.919540584087,0.0952705740929,-0.38861644268,0.0834479779005
2017/07/09/09:37:02.109987,260677,1499564224,909713707,,0.622325686251,-0.0645266294971,0.238324668607,0.812571120223,0.517170441114,-0.257373976875,0.0775986175459,-0.00597850729514,-0.00166381482118,-0.00437132474843,0.00265653847335,0.019288874846,-0.00403880412097,-0.105680048466,-0.181021019816,-0.928264915943,-0.0204840227962,-0.480642318726,0.158700674772
2017/07/09/09:37:02.119748,260678,1499564224,919713241,,0.62242296683,-0.0644061368592,0.238001463527,0.812369704725,0.51758312471,-0.257259123479,0.0773363772559,-0.00446109092397,-0.00859899648375,-0.00639337413164,-0.00673158059606,0.0102960180664,-0.015204092312,-0.582470774651,-0.040876802057,-1.20485806465,-0.0229738280177,-0.63883638382,0.272909849882
