time,.header.seq,.header.stamp.secs,.header.stamp.nsecs,.header.frame_id,.pose.position.x,.pose.position.y,.pose.position.z,.pose.orientation.x,.pose.orientation.y,.pose.orientation.z,.pose.orientation.w,.twist.linear.x,.twist.linear.y,.twist.linear.z,.twist.angular.x,.twist.angular.y,.twist.angular.z,.wrench.force.x,.wrench.force.y,.wrench.force.z,.wrench.torque.x,.wrench.torque.y,.wrench.torque.z
2017/07/09/09:43:52.548529,301721,1499564635,349149614,,0.820110714987,0.491604152722,0.247537654477,0.637042809217,0.76044730825,0.0834476784729,0.0945136792154,0.1036341063,-0.357200418412,-0.0207550332933,-0.00640910088935,0.0212608689362,-0.467598745877,0.505529165268,0.5816603899,0.153693377972,-0.476501047611,0.37078166008,-0.278793692589
2017/07/09/09:43:52.558197,301722,1499564635,359151275,,0.821216168541,0.487810577179,0.247818421855,0.63888007313,0.758875914632,0.0830622084587,0.0950803232783,0.0924971366139,-0.369976438619,-0.0285166459288,-0.0298466253964,0.0407808139775,-0.456985762274,0.824165701866,0.76583313942,0.196286767721,-0.532952785492,0.45843398571,-0.303274452686
2017/07/09/09:43:52.568155,301723,1499564635,369144040,,0.822088292709,0.484733726651,0.246929444089,0.640417366727,0.757660373805,0.082808293932,0.094652738025,0.099604191493,-0.371027807037,-0.0237727318177,-0.0236681198699,0.0223341526535,-0.465251650033,0.341514527798,0.504725933075,0.0967207923532,-0.422263652086,0.25587439537,-0.321015715599
2017/07/09/09:43:52.578506,301724,1499564635,379143048,,0.823124434677,0.481012249489,0.247150450165,0.642331807477,0.756000390496,0.0826591331372,0.0950827344104,0.0900838723069,-0.347697301522,-0.0288921214534,0.00936061763985,0.0312471668789,-0.447282854504,0.467448979616,0.684010744095,0.206230580807,-0.481477916241,0.322743982077,-0.309721946716
2017/07/09/09:43:52.588213,301725,1499564635,389151133,,0.824268278167,0.478124234246,0.247101324311,0.643376380801,0.755040130224,0.0827142848305,0.0956011582724,0.105721599602,-0.352063400287,-0.0266780394658,0.0199120024903,-0.005765036514,-0.46086773957,0.515610218048,0.824996590614,0.294704496861,-0.574047207832,0.373432844877,-0.371650785208
2017/07/09/09:43:52.598313,301726,1499564635,399154816,,0.825069078248,0.47479598044,0.246913846998,0.64518327205,0.753505455764,0.0825931498891,0.0956370492697,0.120828717256,-0.366385939101,-0.0212795069796,-0.00371724983139,-0.0415472004769,-0.468981046454,0.515198588371,0.866059839725,0.278367191553,-0.627633690834,0.352823466063,-0.408519983292
2017/07/09/09:43:52.608199,301727,1499564635,409143400,,0.82696757666,0.47045374847,0.246699163582,0.646913096607,0.751909032154,0.0826207601961,0.096488666628,0.102830658282,-0.357576435697,-0.0177871232501,0.0233065483068,-0.014306315263,-0.473586094049,0.336103916168,0.876325726509,0.378123879433,-0.642399251461,0.287112891674,-0.401812136173
2017/07/09/09:43:52.618416,301728,1499564635,419151191,,0.827943161612,0.467119681874,0.24633650069,0.648662953612,0.750416263043,0.0825902142199,0.096388076477,0.126818045266,-0.392955851468,-0.00931186422607,0.022163689555,-0.0469054218721,-0.509355134815,-0.249744147062,0.614488840103,0.389731109142,-0.550910890102,0.120875433087,-0.404213517904
2017/07/09/09:43:52.628236,301729,1499564635,429142229,,0.829139438382,0.464472263502,0.246730016808,0.649944540106,0.749199859212,0.0831985856147,0.0966936455702,0.123080288594,-0.380689689693,-0.0089365695456,0.0141013132498,-0.0537037091762,-0.50387755072,-0.0600154101849,0.638210177422,0.451029390097,-0.534396350384,0.206380575895,-0.35408231616
2017/07/09/09:43:52.638011,301730,1499564635,439149475,,0.830121223677,0.459767088318,0.245932299005,0.652661914154,0.746899089479,0.082537118215,0.09675639547,0.111342198348,-0.366175653686,-0.0210623873388,0.0218869368218,-0.0332010628092,-0.465491634117,-0.206940665841,0.530354976654,0.441206544638,-0.549134373665,0.125152900815,-0.388335645199
2017/07/09/09:43:52.648098,301731,1499564635,449145126,,0.831042279459,0.457022531342,0.245624846277,0.654128391534,0.745604100756,0.0827831748334,0.0966308350844,0.110948411284,-0.379558511508,-0.0359223912275,0.0358477493668,-0.0152912303047,-0.507932837866,-0.938646495342,0.280816733837,0.375175088644,-0.389880537987,-0.159708499908,-0.311952680349
2017/07/09/09:43:52.658222,301732,1499564635,459142796,,0.832266796849,0.45260102208,0.245250303455,0.656013366936,0.743932170969,0.0823768895014,0.0970846819749,0.114881975638,-0.386593514927,-0.032631345233,0.0357934788067,-0.0327342001237,-0.513296608431,-1.11888563633,0.415277600288,0.292036950588,-0.510991096497,-0.302365064621,-0.399157464504
2017/07/09/09:43:52.668091,301733,1499564635,469178066,,0.833386219404,0.449483686383,0.245589599526,0.657819171242,0.742237200275,0.0830543580106,0.0972617606802,0.114372485,-0.387418671195,-0.0260375619699,0.033216215219,-0.0377157798108,-0.498297635555,-1.49196755886,0.267370700836,0.336913347244,-0.437225282192,-0.425834178925,-0.347076684237
2017/07/09/09:43:52.678416,301734,1499564635,479142623,,0.834718563925,0.444932931733,0.245131116029,0.659549510346,0.740676008299,0.082562916119,0.0978614276134,0.120659177613,-0.383306012887,-0.0164169711132,0.0323613170941,-0.0714505228733,-0.50750142718,-1.23556983471,0.404256552458,0.447841286659,-0.498361051083,-0.340582847595,-0.352968454361
2017/07/09/09:43:52.688556,301735,1499564635,489148008,,0.83555811687,0.441496323417,0.245098294888,0.661141010877,0.739214052095,0.082789361781,0.0979850524251,0.112323245954,-0.403101530413,-0.0327337419212,0.0238218541887,-0.0364416519266,-0.522331471663,-1.26379096508,0.262252122164,0.440940916538,-0.460900962353,-0.348998069763,-0.352062553167
2017/07/09/09:43:52.698323,301736,1499564635,499150479,,0.836918433258,0.437635943211,0.244537857015,0.663131118866,0.73736961023,0.0828904447862,0.0983481126607,0.106635620745,-0.398688322088,-0.0368710606802,0.015908547551,-0.0311643289768,-0.505945462745,-1.53067326546,-0.0147244632244,0.467381417751,-0.331500649452,-0.431344896555,-0.294190824032
2017/07/09/09:43:52.708153,301737,1499564635,509144271,,0.837484001109,0.434452280569,0.244171820265,0.664386750611,0.736262192307,0.0826599100823,0.0983644704962,0.101382362737,-0.393290068067,-0.0424622055103,0.0122773178953,-0.0280053865202,-0.488992214343,-1.5899964571,0.101887077093,0.537453472614,-0.405908226967,-0.439143657684,-0.31550270319
2017/07/09/09:43:52.718254,301738,1499564635,519153639,,0.839024209476,0.430208256708,0.244258983753,0.666708433872,0.734010952163,0.0831855487138,0.0990350987984,0.102920739653,-0.373624388293,-0.0228698014912,0.0179786675581,-0.0539035283826,-0.463319521921,-2.00339531898,-0.112195432186,0.566543996334,-0.254447042942,-0.56607067585,-0.248692452908
2017/07/09/09:43:52.728241,301739,1499564635,529145120,,0.83958028977,0.426109513504,0.243629205426,0.668385332933,0.732547752281,0.0821678763203,0.0994146742135,0.103686117807,-0.392732707565,-0.0266375768208,0.00692518345143,-0.0524869740691,-0.489188617272,-2.13228607178,-0.185769915581,0.256768763065,-0.288465619087,-0.688409626484,-0.281145602465
2017/07/09/09:43:52.738126,301740,1499564635,539148084,,0.840211101852,0.422835661948,0.243351477527,0.669817129093,0.731265223259,0.0821670781311,0.0992207543687,0.0868299209776,-0.381633119508,-0.0388514731806,0.0278044680014,-0.0134550001512,-0.488614594045,-1.48901391029,0.291479617357,0.241002768278,-0.49854901433,-0.418429583311,-0.343093156815
2017/07/09/09:43:52.748231,301741,1499564635,549151653,,0.841296372179,0.41907028728,0.242510924901,0.671736277961,0.729462758962,0.0821295207568,0.0995449545626,0.0924709296157,-0.391653584165,-0.0359457595137,0.0342783995396,-0.0221641027897,-0.489267276363,-1.67171990871,0.108720958233,0.0368005633354,-0.374823719263,-0.506295502186,-0.295683145523
2017/07/09/09:43:52.758149,301742,1499564635,559149874,,0.842300091493,0.415678950151,0.24265124222,0.673123988976,0.728111128673,0.0822932515024,0.0999304784507,0.10246441901,-0.426085705019,-0.041869348412,0.0130213453378,-0.0406562492865,-0.543648419721,-1.02626538277,0.342330873013,0.0956592559814,-0.465362846851,-0.237131178379,-0.346166193485
2017/07/09/09:43:52.768528,301743,1499564635,569145053,,0.843213847154,0.4106439151,0.241939146947,0.67529569863,0.726111827501,0.0816315949577,0.100367405464,0.0773989456197,-0.394873358583,-0.0669164150692,0.0149464850377,0.0158330354429,-0.499492152503,-1.15299642086,0.425099253654,0.0938816294074,-0.488394886255,-0.301577448845,-0.310367763042
2017/07/09/09:43:52.778224,301744,1499564635,579173109,,0.843986064245,0.406869545626,0.241416906576,0.677177243561,0.724352564338,0.0818186612258,0.10024993773,0.0812216635773,-0.428527064272,-0.0488501552767,-0.00939095607984,-0.00660503335033,-0.518463615571,-0.787175834179,0.561959028244,0.282028526068,-0.600838065147,-0.164036363363,-0.412951558828
2017/07/09/09:43:52.788432,301745,1499564635,589143717,,0.844590310898,0.402699729515,0.24111332866,0.678930783173,0.722739013372,0.0813839096454,0.100389090348,0.0686435846321,-0.394262100394,-0.0397423658729,0.0157808212618,-0.0019208294489,-0.508216734474,-0.656666100025,0.774043917656,0.341604411602,-0.708560824394,-0.130125761032,-0.449789822102
2017/07/09/09:43:52.798260,301746,1499564635,599150759,,0.845108259948,0.399266436075,0.240576522263,0.680603447281,0.721211545871,0.0811989391325,0.100197734179,0.0775241836072,-0.400679489818,-0.0428842786851,0.0242119583209,-0.00323449711281,-0.501589958282,-0.97258746624,0.327548623085,0.322522342205,-0.446838140488,-0.272350460291,-0.307921856642
2017/07/09/09:43:52.808172,301747,1499564635,609146931,,0.845752553005,0.394819028913,0.239693418115,0.682787467149,0.71918459103,0.0807633024933,0.100260100236,0.0711108433279,-0.402183083848,-0.0491482139324,0.0170286876045,0.00537028436108,-0.492956562356,-0.854211866856,0.531388163567,0.358994930983,-0.620295405388,-0.232304573059,-0.427107393742
2017/07/09/09:43:52.818224,301748,1499564635,619147565,,0.846630648709,0.391552473032,0.239729638351,0.684118536762,0.717835878117,0.0809496104937,0.100700746314,0.0685536786811,-0.403461059819,-0.0551552188094,0.0295548697474,0.0117900699147,-0.512538282612,-0.96688503027,0.248922690749,0.447093248367,-0.538887262344,-0.266728818417,-0.379043400288
2017/07/09/09:43:52.828201,301749,1499564635,629144403,,0.847312631001,0.388276244866,0.23959077247,0.685485416207,0.716474279259,0.0810516376682,0.101019717674,0.0727335440356,-0.392718388172,-0.0378657564152,0.0299483378451,-0.0162723123296,-0.484916224076,-1.23194289207,0.422813624144,0.603629112244,-0.587973117828,-0.304373681545,-0.396673738956
2017/07/09/09:43:52.838158,301750,1499564635,639150642,,0.847974789216,0.384179703815,0.238808150541,0.687479758801,0.714596071224,0.0807194161323,0.101036686848,0.0769709226244,-0.399342280829,-0.0422257070997,0.0339724436079,-0.026783300991,-0.498811852921,-1.22845602036,0.244347676635,0.831948637962,-0.516467809677,-0.249742045999,-0.36193433404
2017/07/09/09:43:52.848447,301751,1499564635,649148272,,0.848877456551,0.379501835686,0.238321111377,0.689209094647,0.712929364198,0.0803500615016,0.101323309943,0.0710789207799,-0.404983734521,-0.0496247679278,0.00373569842146,-0.0193578809971,-0.489576949481,-0.993474543095,0.240683421493,0.860210418701,-0.583639979362,-0.178848803043,-0.410958409309
2017/07/09/09:43:52.858333,301752,1499564635,659142768,,0.849688306382,0.375810635238,0.238271605735,0.691243969421,0.710906250772,0.0806483231398,0.10143926916,0.0680539787487,-0.397718513859,-0.0340668898313,0.00506747973508,-0.0233796392983,-0.460276468194,-0.450921952724,0.328890889883,0.856569111347,-0.584127545357,0.0596868917346,-0.40175268054
2017/07/09/09:43:52.868485,301753,1499564635,669147416,,0.850016372743,0.372176472152,0.237558343739,0.692281426028,0.709914047497,0.0801446218409,0.101711906545,0.0773241731771,-0.400824004131,-0.0190960631766,0.0265994977588,-0.053628846919,-0.481750855082,-0.451514005661,0.645610570908,0.575067996979,-0.740600943565,-0.000507965683937,-0.484819382429
2017/07/09/09:43:52.878193,301754,1499564635,679159491,,0.850253807121,0.368559143466,0.236950768963,0.693814521475,0.708506302667,0.0797622217195,0.101381541011,0.0712718574298,-0.424413544116,-0.0396887452392,-0.0127668119111,-0.0277682805154,-0.466436723952,0.270219415426,0.954472243786,0.343622028828,-0.926613211632,0.234650790691,-0.555773496628
2017/07/09/09:43:52.888437,301755,1499564635,689145532,,0.851708975262,0.364466396077,0.237307298006,0.69540629776,0.70673468409,0.0802959357061,0.102414501168,0.0671123290425,-0.398254947546,-0.0387968616156,0.00859915028622,-0.0241246244557,-0.435813107922,-0.0720408260822,0.900519490242,0.109782420099,-0.851143121719,0.0583005398512,-0.478766679764
2017/07/09/09:43:52.898062,301756,1499564635,699164547,,0.85226439199,0.36015212161,0.236651984728,0.696903478046,0.705306805479,0.0799323847873,0.102365356901,0.0756647170502,-0.39087930812,-0.0323057300602,0.0149805252244,-0.0502546615474,-0.40379509497,-0.797490954399,0.548173069954,0.247129946947,-0.708228170872,-0.174543589354,-0.402070254087
2017/07/09/09:43:52.908240,301757,1499564635,709153791,,0.85332023918,0.356397419143,0.236598844314,0.697820230759,0.704247261131,0.0802579372214,0.10315708529,0.0724988930682,-0.425087389183,-0.0246347607518,-0.0135745417891,-0.0423007872714,-0.385809537435,-0.587484717369,0.30947881937,0.444826245308,-0.572306156158,-0.0299032479525,-0.359260261059
2017/07/09/09:43:52.918399,301758,1499564635,719159672,,0.853957024746,0.352645867261,0.236309848625,0.69910644815,0.702958021668,0.0800763044453,0.103382684214,0.0799181482834,-0.418409090782,-0.0268139837644,-0.0270267196147,-0.0660917388394,-0.358671162982,-0.617739379406,0.414510667324,0.677384197712,-0.671227931976,-0.0468904972076,-0.394070982933
2017/07/09/09:43:52.928200,301759,1499564635,729155961,,0.854801988435,0.348977541153,0.236207833363,0.699808065747,0.702151175211,0.0802870575691,0.103953771713,0.0787257319156,-0.409985729987,-0.019644908529,-0.0250233620334,-0.0736723620189,-0.32642971149,-0.640546023846,0.312287092209,0.931545615196,-0.607211470604,-0.018786624074,-0.359803140163
2017/07/09/09:43:52.938429,301760,1499564635,739156666,,0.855195718519,0.34550575096,0.236222563158,0.700463911927,0.701474901359,0.0802321247354,0.104144500633,0.0675915014,-0.393054560921,-0.0240415776072,-0.0213829199435,-0.0499043851582,-0.297035540992,-0.225387752056,0.446600079536,0.930411994457,-0.6579028368,0.120594419539,-0.36827519536
2017/07/09/09:43:52.948265,301761,1499564635,749156283,,0.855496470894,0.342223363607,0.235727317988,0.701314670945,0.700635237497,0.0797441844268,0.104445494613,0.0651941713274,-0.377077405327,-0.0358141577494,-0.0251783697949,-0.0403144791785,-0.238663629546,-0.693968355656,0.326317131519,0.790743708611,-0.613130509853,-0.0464534983039,-0.33993601799
2017/07/09/09:43:52.958151,301762,1499564635,759157225,,0.856731993431,0.337337833597,0.23538466123,0.702514937133,0.699300215367,0.079917820046,0.105190845286,0.0644850199632,-0.394913613905,-0.0198633816185,-0.0486702532134,-0.0547987094216,-0.256264204871,-0.781333684921,0.465405642986,0.776203274727,-0.680091619492,-0.0418154783547,-0.306160897017
2017/07/09/09:43:52.968272,301763,1499564635,769153046,,0.857701411251,0.333118690798,0.235623148323,0.703494352936,0.698188451477,0.0800718973817,0.105910683414,0.0832309157232,-0.413415204074,-0.0153142334195,-0.0403690627378,-0.0959929938395,-0.287482366604,-0.0883629620075,0.494145274162,0.539572894573,-0.733943760395,0.177442610264,-0.344199866056
2017/07/09/09:43:52.978380,301764,1499564635,779151250,,0.858309380647,0.329223030428,0.235473976024,0.704382197486,0.697227959049,0.0801853165678,0.106250684663,0.0860382002121,-0.424343683249,-0.0258904799429,-0.0259869529729,-0.0956069883602,-0.30789587213,0.273803561926,0.452438116074,0.510794520378,-0.667127728462,0.327008157969,-0.279226183891
2017/07/09/09:43:52.988176,301765,1499564635,789160363,,0.859348806537,0.325190039738,0.234994948679,0.70562657268,0.695871017081,0.0803304792533,0.106778657128,0.0780901279351,-0.432949134716,-0.0125221678548,-0.0342064002509,-0.0953094981253,-0.33408464277,-0.0557528659701,0.193401739001,0.425578027964,-0.512496292591,0.170358136296,-0.219820320606
2017/07/09/09:43:52.998255,301766,1499564635,799151065,,0.859710063707,0.321892296334,0.234667662416,0.706767207795,0.694681029068,0.080410268502,0.106923199343,0.0736922984428,-0.391300537409,-0.0152528656279,-0.00250697654626,-0.086699304034,-0.310399481562,-0.36113011837,0.0978610664606,0.241462647915,-0.506281137466,0.0169655717909,-0.21876552701
2017/07/09/09:43:53.008452,301767,1499564635,809153543,,0.860182041147,0.317823516967,0.234130808922,0.707982011349,0.693440638151,0.0798883195278,0.107328511452,0.073751356828,-0.412073516165,-0.017293900435,0.00494775291288,-0.0918525257929,-0.418543509303,-0.392533361912,0.431089699268,0.478684008121,-0.651773333549,0.0334018059075,-0.273684680462
2017/07/09/09:43:53.018409,301768,1499564635,819156282,,0.861404929151,0.314337495078,0.23451328121,0.709382063845,0.691792192989,0.080908589621,0.107955774928,0.0796341651925,-0.412779025062,-0.0169323671597,0.00694900675703,-0.105731611153,-0.442677178067,0.132870063186,0.453391432762,0.315138310194,-0.67850458622,0.190239459276,-0.302867650986
2017/07/09/09:43:53.028223,301769,1499564635,829155949,,0.861723693937,0.309683211036,0.233768093298,0.711044260519,0.690110349826,0.0804653259817,0.108116122571,0.0766333364138,-0.380844978487,-0.0244038350242,0.0329634008106,-0.104370199597,-0.393255081709,0.158683270216,0.524576246738,0.309245169163,-0.70284974575,0.190558120608,-0.289442896843
2017/07/09/09:43:53.038281,301770,1499564635,839150867,,0.863014588092,0.305997530327,0.234475326395,0.712131638816,0.688730485695,0.0811556159469,0.10923650064,0.079462201762,-0.418970344551,-0.0147531336768,0.00418327948802,-0.114423158341,-0.423127961642,0.208619207144,0.577879607677,0.185775011778,-0.754407703876,0.192964971066,-0.333061426878
2017/07/09/09:43:53.048284,301771,1499564635,849143281,,0.863439087472,0.301392782111,0.233456511763,0.713845924923,0.687007433673,0.0807701615236,0.10918316059,0.0816573490754,-0.438473536355,-0.00919136191168,0.00218701472135,-0.121624528188,-0.440657375069,-0.519409358501,0.479024171829,0.0568804591894,-0.737995147705,-0.0904112309217,-0.287119626999
2017/07/09/09:43:53.058493,301772,1499564635,859156436,,0.8644309032,0.297377807226,0.233971467774,0.715020531315,0.685558383024,0.0813408680093,0.110177159407,0.0717541844531,-0.43100962211,-0.0273586712103,0.0251351889454,-0.0940775954215,-0.472975159705,-0.314795672894,0.54816287756,0.196893453598,-0.762441396713,0.044505558908,-0.305163055658
2017/07/09/09:43:53.068380,301773,1499564635,869155346,,0.864931941938,0.293597209609,0.23351454711,0.716439037534,0.684004003557,0.0813478233706,0.110617178815,0.0743427989021,-0.42888529706,-0.0188369601553,0.0140145710418,-0.11425775793,-0.462408733115,-0.965895175934,0.203638359904,0.178991928697,-0.650583982468,-0.171995341778,-0.21143014729
2017/07/09/09:43:53.078132,301774,1499564635,879149854,,0.86561842769,0.289791458777,0.233057933143,0.717557265562,0.68278111624,0.0816473861008,0.110703307484,0.0712804361406,-0.405057518453,-0.0160076603559,0.0128033641611,-0.117076541031,-0.383104333069,-1.11608409882,0.303580224514,0.380977988243,-0.763700127602,-0.177631989121,-0.286622226238
2017/07/09/09:43:53.088287,301775,1499564635,889156579,,0.866144627503,0.287209226675,0.232697604061,0.718385274751,0.681857464498,0.0820472749391,0.110730482721,0.0644758439897,-0.398021636317,-0.0296613802285,0.0301040815009,-0.0889726959714,-0.357210687363,-1.47492134571,0.334278702736,0.338172882795,-0.763229310513,-0.34488299489,-0.313251316547
2017/07/09/09:43:53.098207,301776,1499564635,899150107,,0.866858631826,0.282487935233,0.232816888533,0.718872289566,0.681194775869,0.0819581998992,0.111710170048,0.053305806016,-0.392303376646,-0.0355537128467,-0.0182781663945,-0.0618742348977,-0.239312961855,-1.25808787346,0.464085221291,0.329052269459,-0.856253445148,-0.289433240891,-0.34286442399
2017/07/09/09:43:53.108384,301777,1499564635,909165122,,0.867362975504,0.278846948506,0.232311900079,0.718504678538,0.681553336243,0.0817202771867,0.11206191624,0.0578460721676,-0.402687200398,-0.0205250888925,-0.0729056986546,-0.0800638980717,-0.123339727062,-1.2345610857,0.475415438414,0.365762740374,-0.868636190891,-0.327443152666,-0.340242028236
2017/07/09/09:43:53.118261,301778,1499564635,919156209,,0.867340527937,0.274492126883,0.231729492842,0.718196478391,0.681925892341,0.0809636103358,0.112320031976,0.0472320038592,-0.431001746811,-0.035120728816,-0.12556507092,-0.0319026308971,0.0214565330066,-1.25033152103,0.389617085457,0.168887212873,-0.725368797779,-0.371958374977,-0.326622188091
2017/07/09/09:43:53.128248,301779,1499564635,929148434,,0.86798203786,0.271044124417,0.231391134218,0.718943273482,0.681059088263,0.0809212538353,0.112831017396,0.029272037483,-0.417125918513,-0.0565971212258,-0.119611338812,0.0127001714086,0.00446036239571,-1.35681581497,0.458402395248,0.0955890268087,-0.686698555946,-0.439349412918,-0.355509787798
2017/07/09/09:43:53.138072,301780,1499564635,939150216,,0.86830621145,0.266011452099,0.230660622488,0.720760941556,0.679099887286,0.0806878053695,0.113209921296,0.0284263482808,-0.401690844157,-0.0540232461389,-0.0489759128086,-0.00449956885784,-0.226454942946,-0.729435324669,0.458983659744,0.193444415927,-0.788813948631,-0.126072347164,-0.442122876644
2017/07/09/09:43:53.148380,301781,1499564635,949143339,,0.868972367828,0.262300510482,0.230753155375,0.721979730357,0.677698678996,0.0809607721075,0.113644721919,0.0541503294019,-0.444355626811,-0.0338954587371,-0.0176737786265,-0.0862775320824,-0.41055867133,-1.1440577507,0.516986846924,0.417924940586,-0.716171383858,-0.160589665174,-0.351283013821
2017/07/09/09:43:53.158312,301782,1499564635,959144614,,0.869711585927,0.259863496841,0.230509468215,0.722361438194,0.677151852034,0.0816217936936,0.114005283616,0.0492902528417,-0.391963887735,-0.0431768221309,0.0373279801134,-0.0734948370445,-0.379743357219,-1.28790235519,0.663814365864,0.4864795506,-0.872903466225,-0.166697233915,-0.443342149258
2017/07/09/09:43:53.168396,301783,1499564635,969145107,,0.870069620511,0.255448351488,0.229854096693,0.723946391681,0.675438487922,0.0816921202354,0.114065194065,0.0476393269506,-0.368194574215,-0.0515410557133,0.0254621501949,-0.0664791812808,-0.317367329523,-1.6739730835,0.859908461571,0.251804888248,-0.968748569489,-0.297008633614,-0.465476155281
2017/07/09/09:43:53.178348,301784,1499564635,979158425,,0.870103362723,0.251502852662,0.229486398434,0.724812971415,0.674509067946,0.0813294379781,0.114320585395,0.0424434091893,-0.403108047606,-0.0368824439035,0.0277025509008,-0.0695689492526,-0.354093869242,-2.65385484695,0.674341678619,0.103939287364,-0.837529838085,-0.704840064049,-0.397091269493
2017/07/09/09:43:53.188248,301785,1499564635,989147699,,0.870833358599,0.248169495528,0.228843697591,0.725722351603,0.673428192865,0.0817744223268,0.114605764657,0.0445019777866,-0.391927377708,-0.0436312247595,0.0160001592103,-0.0674724267169,-0.312595133922,-3.32318282127,0.803283512592,-0.0250566378236,-0.989582598209,-0.959421873093,-0.487814098597
2017/07/09/09:43:53.198214,301786,1499564635,999145806,,0.870830488882,0.244005670184,0.227995103651,0.726835174137,0.672283370515,0.081584103501,0.114410372876,0.0498041505462,-0.391509620829,-0.0456867082745,0.0194316514306,-0.0873085445891,-0.296811314235,-3.36612939835,0.656840443611,-0.0830302163959,-0.905090928078,-0.969030618668,-0.454331099987
2017/07/09/09:43:53.207912,301787,1499564636,9145525,,0.872358574779,0.240086144177,0.228137220299,0.727460972746,0.671248764415,0.0826098152941,0.115763758661,0.0531318495585,-0.370584451171,-0.0600722350682,0.0472267978299,-0.0946203776872,-0.26137000225,-3.31843996048,0.625649571419,0.0594865083694,-0.831635653973,-0.88979190588,-0.431053817272
2017/07/09/09:43:53.218433,301788,1499564636,19150957,,0.872585995909,0.236222240759,0.227887518362,0.728635660466,0.669911190638,0.082871155607,0.115937235277,0.0639761240333,-0.414109672004,-0.0586047941054,0.00477558910215,-0.132917487339,-0.265493837433,-4.44201517105,-2.62429380417,0.305081009865,-0.163754463196,-1.29921913147,-0.168862164021
2017/07/09/09:43:53.228402,301789,1499564636,29152463,,0.873088568119,0.233512985258,0.226138435785,0.728512602151,0.670007374952,0.0829469241743,0.116100446968,0.0730193838607,-0.371102758829,-0.0628308999089,0.0197842300768,-0.151425102941,-0.211417640427,-4.26489448547,-1.4925044775,-0.0816851630807,-0.449032306671,-1.28091573715,-0.302081257105
2017/07/09/09:43:53.238237,301790,1499564636,39148690,,0.873996490496,0.230337741173,0.225634383432,0.729290686403,0.669000538305,0.084126217541,0.116172948641,0.0689578754887,-0.333767221367,-0.0711782873382,0.0607475262938,-0.144412584138,-0.150180082887,-4.98330545425,-1.81649065018,0.00606699287891,0.0552417337894,-1.55598318577,0.0132040679455
2017/07/09/09:43:53.248293,301791,1499564636,49148597,,0.875052844995,0.226230109605,0.225341771436,0.73000039455,0.668000080831,0.0851358872214,0.116735584438,0.080667407403,-0.320802958594,-0.0611964292243,0.101710065916,-0.172924486788,-0.126750501611,-5.90155553818,-2.1585688591,0.0734230354428,0.494508743286,-2.00769090652,0.241670846939
2017/07/09/09:43:53.258117,301792,1499564636,59151018,,0.875828342944,0.224287137107,0.225094368981,0.729528061426,0.668322734684,0.0861391333513,0.117104993922,0.0958895318107,-0.317701345798,-0.051298002174,0.127668652227,-0.217875758356,-0.115173821547,-6.59920740128,-1.32703852654,-0.237265616655,0.43182438612,-2.33678126335,0.300413042307
2017/07/09/09:43:53.268230,301793,1499564636,69142857,,0.877015638814,0.220330096055,0.223760412871,0.730459108479,0.667098663839,0.0874325016604,0.117321870069,0.103765292054,-0.284621590616,-0.0527902367231,0.140763677156,-0.235604457498,-0.0547318949019,-4.81304216385,0.149216890335,-0.785592079163,-1.09878158569,-1.72276437283,-0.4842017591
2017/07/09/09:43:53.278227,301794,1499564636,79148826,,0.877558558841,0.220004264026,0.223140913882,0.729716291645,0.667845645185,0.0887881306651,0.11667474349,0.104303136566,-0.281081583057,-0.0749792856419,0.123316291721,-0.221412194243,-0.0242349133418,-4.17510890961,3.9147002697,-1.21764492989,-2.39404797554,-1.45788931847,-1.02237951756
2017/07/09/09:43:53.288086,301795,1499564636,89144559,,0.879038493703,0.217077785997,0.222289230677,0.730401160018,0.666854257647,0.0905491521956,0.116706450284,0.111377875615,-0.242517829707,-0.0848545526825,0.233428417801,-0.2213824436,-0.0461019664822,-3.66813588142,4.04891777039,-1.29475045204,-2.82428121567,-1.33035421371,-1.08648478985
2017/07/09/09:43:53.298394,301796,1499564636,99144336,,0.880361310566,0.214963693081,0.222039281939,0.730378496322,0.666581807374,0.0922068255505,0.117106137801,0.118029203329,-0.256249028283,-0.0633957715836,0.263051724352,-0.251819281984,-0.109388489809,-4.22074270248,3.64990448952,-1.58601665497,-2.55850052834,-1.59172415733,-0.862914025784
2017/07/09/09:43:53.308299,301797,1499564636,109143128,,0.881160528833,0.210623226723,0.221628927948,0.73100379181,0.665666013159,0.0930783054473,0.117722743508,0.108310987267,-0.289645690374,-0.0617670880315,0.19083642095,-0.239158082771,-0.105942712737,-5.77161550522,0.535357892513,-1.79026627541,-1.35427713394,-2.13757514954,-0.324375510216
2017/07/09/09:43:53.318348,301798,1499564636,119150126,,0.882389440566,0.208594274418,0.221435396432,0.73057878306,0.665835173281,0.094432470213,0.118324436756,0.0904629953185,-0.323146516869,-0.0762236251239,0.104408280892,-0.198376800693,-0.0861190004796,-6.28896713257,-0.273470938206,-1.56362295151,-0.578229665756,-2.33152699471,-0.122058875859
2017/07/09/09:43:53.328290,301799,1499564636,129162305,,0.883234621112,0.205348628879,0.220310662965,0.730819989349,0.665390567753,0.0951096982161,0.118792595809,0.102694053228,-0.329148481703,-0.0581270088746,0.0378373102971,-0.237989631101,-0.052590541341,-6.38613128662,-0.554234683514,-1.85168659687,-0.43280595541,-2.31198811531,-0.111980058253
2017/07/09/09:43:53.338277,301800,1499564636,139188045,,0.884025724451,0.201984223628,0.219400051164,0.7313743589,0.664636785168,0.096074352707,0.118824280752,0.0880965583872,-0.335807685595,-0.0841051635669,0.0275717908518,-0.191807420737,-0.0576653109936,-6.52891159058,-0.508467853069,-1.43459868431,-0.529283642769,-2.37231588364,-0.176877111197
2017/07/09/09:43:53.348291,301801,1499564636,149144908,,0.884387370869,0.199778751489,0.218365331405,0.731218074119,0.664732828003,0.0967460572738,0.118703815686,0.0880477099907,-0.320768619674,-0.0777399138665,0.0987852716781,-0.1961100227,-0.0778900721449,-8.01953792572,0.558496117592,-1.34026610851,-0.831608831882,-2.87905621529,-0.232281371951
2017/07/09/09:43:53.358269,301802,1499564636,159144519,,0.88494149058,0.197321863344,0.217369705415,0.731572431343,0.664278301395,0.0975104922054,0.118439097872,0.0739483332665,-0.270123807584,-0.0855347358157,0.181138387631,-0.167801278336,-0.0570218800841,-8.47380161285,0.76268863678,-1.71199262142,-0.835872411728,-3.0517642498,-0.19229054451
2017/07/09/09:43:53.368154,301803,1499564636,169143396,,0.885978055748,0.19395148516,0.216556851502,0.731954333359,0.663617221746,0.0987547802057,0.11875407473,0.0654364959952,-0.27233081579,-0.100016064877,0.153477181772,-0.137834473294,-0.0469964527374,-9.02414989471,0.433948755264,-1.38224554062,-0.765567302704,-3.26042723656,-0.191460460424
2017/07/09/09:43:53.378087,301804,1499564636,179154820,,0.886755620779,0.191917090597,0.215829327557,0.731754275522,0.66366580998,0.0998492383264,0.118800263147,0.0711095971261,-0.289315073877,-0.0945477477573,0.105553873074,-0.15588740421,-0.0404026445046,-9.37687683105,0.855032742023,-1.10885727406,-0.737714111805,-3.3919916153,-0.164542838931
2017/07/09/09:43:53.388376,301805,1499564636,189151124,,0.887215394628,0.187144867167,0.214375824536,0.732449069931,0.662780429254,0.0998656008528,0.11944590542,0.0783478717121,-0.286306076306,-0.0999621888682,0.0801774514208,-0.16692207572,-0.0201831106874,-8.12730121613,-0.812458515167,-1.70084607601,-0.525954902172,-2.89915943146,-0.158237025142
2017/07/09/09:43:53.398012,301806,1499564636,199144515,,0.888227112981,0.186411605672,0.213661651512,0.731556400444,0.663548688079,0.101085155941,0.119625092545,0.0837056726596,-0.319847852621,-0.0834045562184,0.0232843001628,-0.189816266617,-0.0420670792643,-7.52715349197,0.634959697723,-1.42767977715,-0.730050384998,-2.69177293777,-0.212522476912
2017/07/09/09:43:53.408213,301807,1499564636,209149005,,0.888944747031,0.182436703793,0.212800938766,0.731836450646,0.663045972552,0.101560956707,0.12029472084,0.0740726263926,-0.307666610698,-0.106093448981,0.0151622764419,-0.15196807923,-0.0139785759999,-7.26821660995,-0.157995015383,-1.42100870609,-0.610202312469,-2.56506562233,-0.187385171652
2017/07/09/09:43:53.418273,301808,1499564636,219143622,,0.889502319751,0.179704265408,0.211022092256,0.732198873959,0.662647660267,0.101869684508,0.120022725739,0.0628116575303,-0.317014717174,-0.118024470795,0.0243592360259,-0.116539053656,-0.0262771732645,-6.6468911171,0.859686076641,-2.16378879547,-0.905502617359,-2.43390846252,-0.290776848793
2017/07/09/09:43:53.428507,301809,1499564636,229147750,,0.890010777586,0.176361502282,0.210216779609,0.731967844255,0.662750455035,0.102167850118,0.120609451242,0.0633661218197,-0.303500417179,-0.121256545319,0.0372550292402,-0.10766892063,-0.02105196081,-7.79645872116,0.65699005127,-1.87861502171,-0.859861850739,-2.92256736755,-0.233670666814
2017/07/09/09:43:53.438243,301810,1499564636,239150526,,0.890614863856,0.173084693159,0.2094415777,0.732221699853,0.662324025839,0.102674296617,0.120980394589,0.0799380772277,-0.298503705765,-0.0805375044917,0.0193943118394,-0.16714688709,0.00310509510346,-8.60987854004,0.262772917747,-1.76824676991,-0.772720396519,-3.15540933609,-0.230161190033
2017/07/09/09:43:53.448113,301811,1499564636,249143488,,0.891525616374,0.171065822925,0.208265731456,0.731581015998,0.66286352692,0.103284161144,0.121381809866,0.0717036198129,-0.308179301756,-0.0876712247434,-0.00512699708206,-0.143149051252,0.0211786100385,-8.39665031433,1.07295012474,-1.74917840958,-0.825876712799,-3.07795166969,-0.264625102282
2017/07/09/09:43:53.458243,301812,1499564636,259142833,,0.892447539701,0.16925588896,0.207845916615,0.731270206828,0.6629749502,0.104437931901,0.121658614131,0.0719654872294,-0.284128162661,-0.0938174286449,0.00716443721397,-0.129088332388,0.0317362513589,-8.70991706848,1.27224457264,-1.55570447445,-0.885946810246,-3.17302799225,-0.299873530865
2017/07/09/09:43:53.468212,301813,1499564636,269177312,,0.893242351921,0.165955620275,0.206880499762,0.731256998629,0.662827674004,0.104764761469,0.122258011129,0.0680679181953,-0.267278500126,-0.109202199064,0.046050892812,-0.105250075413,0.0325354322328,-7.766705513,0.504234671593,-1.69702756405,-0.708510518074,-2.79499483109,-0.232321858406
2017/07/09/09:43:53.478520,301814,1499564636,279143437,,0.893365431701,0.162412933087,0.205505635883,0.731578080441,0.662513127546,0.10454344415,0.122231486666,0.082722692643,-0.321178416546,-0.0907609918593,0.0197597033651,-0.158821834192,-0.0210456364027,-7.19499921799,0.160012051463,-1.72819697857,-0.629881858826,-2.51222586632,-0.198363393545
2017/07/09/09:43:53.488243,301815,1499564636,289144281,,0.894054114098,0.159485270486,0.204761902253,0.731563436024,0.662382832664,0.105168827134,0.122488529518,0.0659590047259,-0.307500515948,-0.108424561003,0.0165630876425,-0.103355204061,0.00610247042586,-7.09397172928,0.348171770573,-1.45638549328,-0.60110104084,-2.48376345634,-0.18417955935
2017/07/09/09:43:53.498053,301816,1499564636,299150924,,0.894939167195,0.157206044829,0.20392345637,0.730992749969,0.662854525811,0.105625775652,0.122949878498,0.0563164026317,-0.31319974572,-0.101196920654,-0.00114936276644,-0.0779242596559,0.00491531242001,-6.89566469193,1.37797033787,-1.49165141582,-0.858638763428,-2.55980420113,-0.289002180099
2017/07/09/09:43:53.508202,301817,1499564636,309142070,,0.895458871901,0.154141975857,0.202656533702,0.73116600026,0.662658440935,0.105633085381,0.122970411054,0.0548655751957,-0.305144872254,-0.109725069355,-0.03115140624,-0.0530757365613,0.0464255468024,-6.86223649979,0.967517971992,-1.78146028519,-0.700374722481,-2.59639787674,-0.197997391224
2017/07/09/09:43:53.518332,301818,1499564636,319150212,,0.896031349336,0.151143095116,0.20144833698,0.730826282203,0.662965069679,0.105586514429,0.123376454793,0.0557040296696,-0.318817448057,-0.117843684276,-0.0435897103548,-0.0456258264548,0.0309169080871,-6.77395391464,1.37802934647,-1.40008890629,-0.780709683895,-2.56715631485,-0.240752309561
2017/07/09/09:43:53.528256,301819,1499564636,329150363,,0.895995564754,0.147706184459,0.200419637232,0.730974327755,0.662897676213,0.10537040608,0.123045847376,0.0413041177287,-0.320762004379,-0.120069875434,-0.0541673649781,-0.0109979321608,0.0369181088315,-7.63987112045,0.713253617287,-1.02039802074,-0.592465281487,-2.8309803009,-0.140918105841
2017/07/09/09:43:53.538213,301820,1499564636,339151844,,0.89711910942,0.144420737877,0.199654547436,0.730601321976,0.663081588022,0.105414373147,0.124226912892,0.0417893693272,-0.310163519183,-0.110067738704,-0.0721392173281,-0.0116150216299,0.0633434777058,-7.35239648819,0.441187798977,-1.11083698273,-0.561719536781,-2.74164676666,-0.159557834268
2017/07/09/09:43:53.548044,301821,1499564636,349154653,,0.896692301073,0.14200468945,0.197998109538,0.730533534326,0.663412674407,0.104810764379,0.123365644859,0.0544273151673,-0.316084862399,-0.0866673034222,-0.0524789313059,-0.0400706834927,0.0408940425646,-6.67574071884,0.72553640604,-1.19435238838,-0.700260043144,-2.38441801071,-0.259704887867
2017/07/09/09:43:53.558288,301822,1499564636,359153265,,0.897192818932,0.138815527166,0.197089116145,0.730513794504,0.663436187583,0.104631539693,0.123508145267,0.0362583771315,-0.316079443622,-0.108465910378,-0.0275528054094,0.0169639220522,0.0219844714897,-6.72295379639,0.436571836472,-1.55017447472,-0.668078422546,-2.4857301712,-0.233059614897
2017/07/09/09:43:53.568545,301823,1499564636,369150266,,0.897230100407,0.136135847555,0.196092784843,0.730155037784,0.663914349585,0.104446443223,0.123216466889,0.0277492465109,-0.326045285118,-0.115759065134,-0.0228797074011,0.0446400107131,0.00642539006701,-6.25001525879,0.935802102089,-1.58709704876,-0.833583533764,-2.35196638107,-0.282811522484
2017/07/09/09:43:53.578271,301824,1499564636,379148655,,0.898093764047,0.1326053014,0.195417329322,0.730308265797,0.663616299598,0.104560732941,0.123815576337,0.0284372140862,-0.313213458808,-0.108480681858,-0.028161272404,0.0437340660093,0.0392246304281,-5.45176887512,0.859286665916,-1.46720016003,-0.843064844608,-2.14195656776,-0.325195789337
2017/07/09/09:43:53.588384,301825,1499564636,389143142,,0.897727158262,0.129259590657,0.1943153361,0.730518400977,0.663597710918,0.103783260643,0.123328742431,0.0327467245823,-0.330396593165,-0.0975332216497,-0.0578875701145,0.0252631478769,0.0238506656709,-5.4732837677,1.00766897202,-1.50789046288,-0.896869122982,-2.1669690609,-0.312117338181
2017/07/09/09:43:53.598191,301826,1499564636,399148891,,0.898188012355,0.12583854152,0.193680411682,0.730516553589,0.663559506049,0.103774485941,0.123552429892,0.0193490820846,-0.366186861471,-0.0927437913477,-0.0591798726317,0.0378265214189,-0.0414069470169,-5.51372098923,0.901497364044,-1.86117267609,-0.831765294075,-2.25904846191,-0.283916056156
2017/07/09/09:43:53.608236,301827,1499564636,409144839,,0.898592342158,0.123108774738,0.192194226919,0.729876472113,0.664299861064,0.103273694208,0.123776306824,0.0166489099977,-0.347588057491,-0.110047102699,-0.0555817232824,0.062518211628,0.0109302573063,-4.72695684433,1.30984985828,-1.55600953102,-0.863521635532,-2.12532043457,-0.287679970264
2017/07/09/09:43:53.618253,301828,1499564636,419150648,,0.899237951354,0.119128821514,0.191680628373,0.730346069641,0.663680494727,0.103222670626,0.124370011447,0.0412343511769,-0.333723655618,-0.0978978927701,-0.0751287314105,0.00911753514505,0.0354457822608,-4.78503131866,0.453022837639,-1.97151267529,-0.656970918179,-2.14575910568,-0.177772775292
2017/07/09/09:43:53.628227,301829,1499564636,429146601,,0.899520831412,0.116321844995,0.190520051413,0.730158944531,0.663938718137,0.102836525147,0.124410382909,0.048804483967,-0.36093792481,-0.0833979213777,-0.0944100977892,-0.0223371591615,-0.0181917148704,-4.68775129318,0.80446434021,-1.92068326473,-0.595858931541,-2.09926223755,-0.186920970678
2017/07/09/09:43:53.638275,301830,1499564636,439150699,,0.900322291332,0.112880419923,0.190361410824,0.729611086036,0.664363724923,0.102763370237,0.12541209622,0.0457693214369,-0.35417371459,-0.0931276840234,-0.113081022549,-0.0122384439216,0.020326471418,-4.21601104736,0.761176228523,-1.41646325588,-0.573090136051,-1.97147977352,-0.152893766761
2017/07/09/09:43:53.648235,301831,1499564636,449165155,,0.900763414576,0.110317438349,0.18878125826,0.729259895955,0.664786707309,0.10267691497,0.125284033577,0.0563861825644,-0.333993976404,-0.0957776214452,-0.121933863652,-0.0250353600583,0.0643202088514,-3.57331705093,0.712422609329,-2.15114426613,-0.649305045605,-1.64029920101,-0.247562274337
2017/07/09/09:43:53.658381,301832,1499564636,459150862,,0.900766869237,0.105646261948,0.187873662415,0.729560156777,0.664463694346,0.101878880549,0.125899444943,0.0641878129584,-0.33852117486,-0.0853106893202,-0.0700646448614,-0.0670064583764,0.0391773681463,-4.24240446091,0.159391015768,-1.5854408741,-0.489909768105,-1.8297675848,-0.129988774657
2017/07/09/09:43:53.668052,301833,1499564636,469153157,,0.90129954698,0.103513315563,0.186686319745,0.72913188445,0.664980812574,0.102014617029,0.125539762226,0.0423820747545,-0.334037270615,-0.0955958282384,-0.0487543328,-0.0137256882241,0.0144474152577,-4.37579107285,0.838523447514,-2.03886699677,-0.68311214447,-1.99989771843,-0.196346342564
2017/07/09/09:43:53.678103,301834,1499564636,479149234,,0.902303485678,0.100181233196,0.186453388926,0.72906642285,0.66482672532,0.102091011077,0.126668866854,0.0549867207173,-0.306317793804,-0.084121245226,-0.0411599368376,-0.0359785820712,0.0349740930387,-3.62506246567,1.01068973541,-1.75541782379,-0.921842336655,-1.78733873367,-0.35119831562
2017/07/09/09:43:53.688118,301835,1499564636,489151046,,0.902916361555,0.0971847212205,0.185352024334,0.729269150772,0.664560865527,0.102595607963,0.126489141703,0.0469295864117,-0.307716078165,-0.100788833291,-0.032201439633,-0.0135024195636,0.0315415914967,-2.9810590744,0.634284317493,-1.6327188015,-0.864479541779,-1.55387806892,-0.324626803398
2017/07/09/09:43:53.698279,301836,1499564636,499150056,,0.902539268095,0.0946995841503,0.183685847605,0.728838920614,0.665244522418,0.102027507289,0.125832988311,0.0440888484415,-0.339243088127,-0.0758116330157,-0.0425748498834,-0.042958369087,0.0094611677882,-3.24986362457,1.24183213711,-1.73412156105,-0.958728551865,-1.46053874493,-0.383037269115
2017/07/09/09:43:53.708444,301837,1499564636,509150605,,0.903192083051,0.0911742308802,0.183172443828,0.729332281225,0.66456479419,0.102591079938,0.126107605648,0.0499883905951,-0.328081789296,-0.0656090465769,-0.0433587949903,-0.0616558455452,0.00641898210884,-2.22075819969,1.10638523102,-1.09223353863,-1.00934565067,-1.01655900478,-0.411732643843
2017/07/09/09:43:53.718179,301838,1499564636,519142586,,0.903802201115,0.0884901521493,0.182732981496,0.72899675796,0.664858510116,0.102398122162,0.126655094599,0.0393802615985,-0.311713267945,-0.0878166969562,-0.0361682884199,-0.0127717763355,0.034335331547,-2.00384831429,1.1855738163,-0.84911686182,-0.883348584175,-0.914670169353,-0.37476542592
2017/07/09/09:43:53.728203,301839,1499564636,529149501,,0.903919781445,0.0853989410893,0.182183952188,0.728038617567,0.665936078107,0.101859305471,0.126939328404,0.0284132781002,-0.327134583938,-0.0912019550328,-0.0590053007357,0.0134769004711,0.0428537988727,-3.33787918091,0.666697382927,-0.920865952969,-0.714865684509,-1.32731556892,-0.271419286728
2017/07/09/09:43:53.738148,301840,1499564636,539150345,,0.903648426426,0.0820641670103,0.181040587098,0.728712514202,0.665383564601,0.101266062879,0.126443537254,0.01778811376,-0.300934986449,-0.0822318462963,-0.0660547193284,0.0392731360678,0.107365094606,-3.06610679626,0.618868470192,-1.36238503456,-0.821180701256,-1.25407719612,-0.361473858356
2017/07/09/09:43:53.748153,301841,1499564636,549149756,,0.903960387125,0.0793457918678,0.18009942332,0.728121323527,0.666022387418,0.101150769494,0.126578195255,0.0205576215509,-0.305889793427,-0.081869052711,-0.0730536915525,0.0337251779582,0.0941523912911,-2.70632576942,0.949234724045,-1.34679937363,-0.896119058132,-1.06576120853,-0.392883867025
2017/07/09/09:43:53.758007,301842,1499564636,559144050,,0.904666519515,0.076159556307,0.179759090499,0.727493516852,0.666582013662,0.101077167619,0.127298893108,0.0106183769621,-0.295966320364,-0.0903699361947,-0.0548719558023,0.0650084812036,0.0799407598456,-1.57530796528,0.618204295635,-0.876196026802,-0.777270257473,-0.613555431366,-0.37732064724
2017/07/09/09:43:53.768400,301843,1499564636,569150421,,0.904108359438,0.0734042846065,0.178138475393,0.727313456115,0.667044697092,0.10041362166,0.126426315383,0.00769098436314,-0.302746939753,-0.0947688579001,-0.0534357323367,0.0673414615058,0.108796756896,-1.66424429417,0.876995921135,-0.881605565548,-0.889797568321,-0.646194696426,-0.465870797634
2017/07/09/09:43:53.778406,301844,1499564636,579148214,,0.904132861601,0.0709631164422,0.177571212944,0.727168503063,0.667297286324,0.0999837006662,0.126267808323,0.00142468975505,-0.291050617723,-0.0857573395638,-0.0506708964356,0.0832168921634,0.114458936746,-1.4203337431,0.452886044979,-0.730469703674,-0.852579891682,-0.595553398132,-0.466321468353
2017/07/09/09:43:53.788457,301845,1499564636,589144524,,0.904255871025,0.0677990811407,0.17718860298,0.726653159335,0.667873481989,0.0997348547442,0.12638495493,-0.0021828440547,-0.29074752374,-0.0794379767019,-0.0537224597172,0.0852720919248,0.118005332779,-0.784638345242,0.319914638996,-0.26628896594,-0.827659726143,-0.317383497953,-0.472682416439
2017/07/09/09:43:53.798207,301846,1499564636,599149014,,0.904317719575,0.0652162968158,0.176317404727,0.726206574032,0.668430305208,0.0991748940366,0.126448722039,-0.015914582103,-0.297012177042,-0.0810546349368,-0.0644508339724,0.107657461569,0.128059649312,-0.874173223972,0.147859364748,-0.560632348061,-0.745383918285,-0.350106060505,-0.417922466993
2017/07/09/09:43:53.808230,301847,1499564636,609150399,,0.904125738036,0.0632206145391,0.175298285742,0.725601916346,0.669264087958,0.0989835836085,0.1256570322,-0.00623522176029,-0.296796010622,-0.0810143441947,-0.0688351047749,0.0868223244363,0.132766799506,0.530671834946,0.759012341499,-1.1855711937,-0.8805565238,0.232802003622,-0.519995629787
2017/07/09/09:43:53.818403,301848,1499564636,619150407,,0.904261192938,0.0598785327206,0.175206263848,0.724891736692,0.670002510811,0.0986478064493,0.126084161833,0.000542387366593,-0.28340653322,-0.0750888278931,-0.0474661956449,0.0634685861242,0.155595048004,0.562695741653,0.468245059252,-0.371122479439,-0.829721987247,0.332268178463,-0.517053484917
2017/07/09/09:43:53.828176,301849,1499564636,629150114,,0.904089063926,0.0577216199201,0.174118909469,0.724189999732,0.670876440106,0.0982041730424,0.125815685808,0.00435700007503,-0.293168222067,-0.0472878292362,-0.0755053945236,0.0385344511182,0.170252340255,0.232691928744,1.3864710331,-0.668972671032,-1.01430058479,0.262699007988,-0.593532800674
2017/07/09/09:43:53.838038,301850,1499564636,639148892,,0.904224718427,0.0542423833546,0.173830657455,0.723599499734,0.671509110434,0.0978064569017,0.126147435873,-0.01680961999,-0.261549768221,-0.0817230710576,-0.097675449071,0.118064851132,0.24969731651,0.605933845043,0.677313566208,-0.564980387688,-0.789202392101,0.358704090118,-0.495693981647
2017/07/09/09:43:53.848245,301851,1499564636,649146105,,0.903681067171,0.0517833048979,0.172593953212,0.722907539893,0.672515128319,0.0972168415938,0.125207734021,-0.00297419409222,-0.2649189888,-0.0726518448145,-0.0972830095295,0.0798035272867,0.284090960528,0.234989255667,0.52274274826,-0.921379089355,-0.656902611256,0.215413942933,-0.394506514072
2017/07/09/09:43:53.858563,301852,1499564636,659144476,,0.90386173149,0.0498613800032,0.172235277404,0.721337545845,0.67419177331,0.0968168459007,0.125555151646,-0.00931008602233,-0.282680184576,-0.0722145036803,-0.105187046248,0.086484635158,0.275122592094,0.985326826572,0.730857789516,-0.135908544064,-0.689468383789,0.411779522896,-0.433646351099
2017/07/09/09:43:53.868327,301853,1499564636,669142657,,0.904130346588,0.0477446622422,0.171837683514,0.720359268917,0.675259593184,0.0967970077251,0.125448574298,-0.0108388632215,-0.274120746878,-0.0677532551588,-0.0950372735053,0.0891990459486,0.296176319538,1.787124753,0.286051869392,-0.287879168987,-0.449746012688,0.636965751648,-0.301376819611
2017/07/09/09:43:53.878257,301854,1499564636,679143988,,0.90376642973,0.0454164171462,0.170919628978,0.719270862586,0.676586543615,0.0958873066689,0.125242563264,-0.0114820094003,-0.264102714494,-0.0790235874371,-0.108839501562,0.0954748600725,0.330073571517,3.78907155991,0.466597616673,-0.516164660454,-0.548541009426,1.28678238392,-0.400857597589
2017/07/09/09:43:53.887945,301855,1499564636,689144524,,0.903957505632,0.0421665437145,0.170853553922,0.718311855831,0.67753047802,0.0957619463274,0.125738533326,-0.00593611506399,-0.227361330364,-0.0710940494408,-0.0912402095155,0.0907194254087,0.389012182496,2.8152654171,-0.625851869583,-0.210486531258,-0.392900168896,1.0482558012,-0.33630502224
2017/07/09/09:43:53.898206,301856,1499564636,699151306,,0.903953780896,0.0406021081985,0.170046601735,0.716413643252,0.679606741779,0.0952862672329,0.125724681617,-0.00687657869754,-0.25459902282,-0.0611232132702,-0.128908564431,0.071939121114,0.384005195653,2.45248436928,-0.250768959522,-0.114096388221,-0.480823099613,0.994612932205,-0.377623319626
2017/07/09/09:43:53.908403,301857,1499564636,709145045,,0.903647601757,0.0374890224235,0.169443782003,0.715100544085,0.681078067564,0.094563570489,0.125783976993,-0.00576529539317,-0.275964796957,-0.0422655956469,-0.142833961166,0.0425844595523,0.375723047301,1.7295923233,-0.394917309284,0.202392324805,-0.369148612022,0.85229408741,-0.324256807566
2017/07/09/09:43:53.918227,301858,1499564636,719151084,,0.904063512056,0.0361019419123,0.168412071797,0.713166426967,0.683109131841,0.0946917536367,0.125654419882,-0.0087823598915,-0.239726012643,-0.063138240033,-0.134187426032,0.0698418630214,0.442511114201,2.57862472534,0.205319657922,0.315282285213,-0.4528632164,1.10296237469,-0.362605333328
2017/07/09/09:43:53.928101,301859,1499564636,729145435,,0.903516691262,0.0325800394923,0.168208502529,0.712272029007,0.684087241543,0.0941412754671,0.125819803312,-0.00716176456419,-0.24621168237,-0.0696697520406,-0.121146531056,0.0558887999398,0.460516035119,1.95975506306,-0.150537699461,0.528429508209,-0.417953372002,0.978778958321,-0.362156540155
2017/07/09/09:43:53.938222,301860,1499564636,739151884,,0.903077142167,0.0313263181239,0.166984407653,0.710131248482,0.686502841617,0.0934723840584,0.125261214272,-0.00423698488937,-0.221225917254,-0.0564248936008,-0.128823167903,0.0495902745825,0.500240267658,2.88285565376,0.239493951201,-0.242104023695,-0.469950258732,1.33008301258,-0.347680568695
2017/07/09/09:43:53.948240,301861,1499564636,749150944,,0.903692253411,0.0286693340734,0.166614152865,0.70860328456,0.687925434058,0.0936582130324,0.125968731908,-0.00416061722831,-0.219689117383,-0.0723483236386,-0.121191084834,0.0525805633328,0.498472463013,3.13495397568,-0.237608447671,-0.0162326619029,-0.393890410662,1.3783800602,-0.284522414207
2017/07/09/09:43:53.958541,301862,1499564636,759144238,,0.903759431366,0.0269737782513,0.166070129137,0.707010499557,0.689596101347,0.093454997336,0.12593464176,0.000596205585433,-0.223747791444,-0.0673026457296,-0.14692628249,0.0357338701846,0.526400750694,3.5092921257,0.121699169278,-0.107150621712,-0.467915475368,1.4809230566,-0.309724837542
2017/07/09/09:43:53.968292,301863,1499564636,769150373,,0.903079629265,0.0237889299274,0.164603694219,0.705318858663,0.691484053922,0.0924010220981,0.125845786186,-0.0107955613795,-0.228578109733,-0.0767097889254,-0.128144824006,0.0562111729554,0.502574765027,2.78470134735,-0.483949065208,-0.496747851372,-0.328819572926,1.20055532455,-0.214492797852
2017/07/09/09:43:53.978206,301864,1499564636,779152789,,0.902947512783,0.022118263205,0.164210047009,0.704130147102,0.692714524351,0.0926093167353,0.125581997708,-0.00962383967363,-0.256170422427,-0.0738536899251,-0.167929585658,0.0377039121797,0.462257122243,2.06118917465,-0.2998290658,-0.0341737270355,-0.292258709669,0.950269162655,-0.209535181522
2017/07/09/09:43:53.987964,301865,1499564636,789144814,,0.903214388111,0.0204297528374,0.163689971101,0.702423008758,0.694373623804,0.0926184804077,0.125972236704,0.00733433870919,-0.200080135321,-0.047306049349,-0.0876778302649,-0.00828390128796,0.424315646889,2.23236441612,0.0616724714637,0.370654761791,-0.352915108204,0.944628834724,-0.186574146152
2017/07/09/09:43:53.998119,301866,1499564636,799151677,,0.903305787127,0.0177047548972,0.163788142623,0.701609252897,0.695106600697,0.0924165640721,0.126611407867,-0.00967491175739,-0.230454241706,-0.0555662024248,-0.0887161246665,0.00377139622915,0.325595449967,2.63723516464,-0.639016151428,0.469425469637,-0.167477875948,1.17504715919,-0.14887624979
2017/07/09/09:43:54.008389,301867,1499564636,809155409,,0.903353857564,0.0158513727102,0.163222766548,0.700355979156,0.696337808341,0.0924951527438,0.126727289303,-0.00843079291381,-0.210284459578,-0.0675509087907,-0.0655883750015,0.00853719568401,0.322813414147,3.22256183624,-0.701698541641,0.560495197773,-0.244857102633,1.39663779736,-0.196436911821
2017/07/09/09:43:54.018438,301868,1499564636,819150118,,0.903659787121,0.0146003586218,0.162385510645,0.698993324044,0.697636065276,0.0927815939673,0.126900863626,0.00303767507639,-0.222509671279,-0.0380232911824,-0.0684577052393,-0.0414061539862,0.300676826778,4.05312013626,-0.112999752164,0.0267209596932,-0.22572170198,1.57403361797,-0.191826611757
2017/07/09/09:43:54.028362,301869,1499564636,829159167,,0.903434910729,0.0128053685718,0.16215096852,0.698247339991,0.698395014299,0.0927790722618,0.126834931894,0.0187614224317,-0.216631829874,-0.0309048306651,-0.0983101095303,-0.0798874043341,0.301744258848,4.41109228134,-0.161000713706,-0.498346120119,-0.249485597014,1.84456372261,-0.210085496306
2017/07/09/09:43:54.038086,301870,1499564636,839146935,,0.903600418869,0.010512538451,0.161585499443,0.696470892912,0.700066289544,0.0927948030012,0.127375861554,0.0230616006646,-0.186440294028,-0.0361268767341,-0.0895596195433,-0.0773577457505,0.366987484993,4.56675863266,-0.565107285976,-0.0443058274686,-0.12033508718,1.88331913948,-0.10754494369
2017/07/09/09:43:54.048193,301871,1499564636,849147930,,0.903367956916,0.00733046386167,0.160969710698,0.694777661228,0.701692965359,0.0923204022238,0.128015339541,0.00420982837952,-0.213502343598,-0.0625290479821,-0.111432491103,-0.0397658170184,0.442022019161,3.83515310287,-1.62877988815,-0.543119013309,0.0980361253023,1.68500113487,-0.0456390231848
2017/07/09/09:43:54.058702,301872,1499564636,859150518,,0.903082182135,0.00527188005001,0.160341878375,0.693466072437,0.702996436607,0.0922333094593,0.128038404874,-0.0195469644911,-0.22885877261,-0.0777693478495,-0.136264962861,0.0118037038175,0.458551666878,2.79269242287,-0.860957503319,0.0681267902255,-0.113172985613,1.31326007843,-0.0834644511342
2017/07/09/09:43:54.068181,301873,1499564636,869144958,,0.903061799193,0.0043316631364,0.159451755605,0.691664729541,0.704807968351,0.0921638251244,0.127872823527,-0.0170591922295,-0.215623079487,-0.0693581016134,-0.144453357683,0.0083759726631,0.45737518159,2.96609115601,-0.292736947536,0.147269293666,-0.178220555186,1.35399115086,-0.105806000531
2017/07/09/09:43:54.078120,301874,1499564636,879150504,,0.902912081362,0.00190057831137,0.159114498461,0.6901254402,0.70621414074,0.092115916193,0.128464478327,-0.0111794926814,-0.188538105425,-0.0678438017543,-0.132669594621,0.0046620183465,0.476456679965,2.95671749115,-0.843184888363,0.666009128094,-0.113332614303,1.41988253593,-0.0770025923848
2017/07/09/09:43:54.088228,301875,1499564636,889149296,,0.902781170202,-4.21811562586e-05,0.158521308919,0.688512279058,0.707784259693,0.0917016882694,0.128775322507,-0.0178374137007,-0.197399182709,-0.0618013483821,-0.12668740758,0.00775126363177,0.456004788195,3.173787117,-0.0205644965172,0.46771299839,-0.264308780432,1.40874278545,-0.118333414197
2017/07/09/09:43:54.098279,301876,1499564636,899155192,,0.90247169023,-0.00221371000512,0.1575897285,0.687721256225,0.708563611874,0.0917426180234,0.128687115529,-0.0238028334846,-0.216735955987,-0.0618887010877,-0.129614666247,0.0078271397822,0.392219384121,2.70322942734,-0.71971565485,0.350485950708,-0.0608560368419,1.28698778152,-0.0286709181964
2017/07/09/09:43:54.108429,301877,1499564636,909143966,,0.902884502601,-0.00378456754436,0.157528026316,0.685875517142,0.710197262333,0.091746927819,0.129526540892,-0.026384975156,-0.224716809004,-0.0786787531705,-0.117840391938,0.00399789639421,0.327556033507,3.65490293503,-0.716021478176,0.340276986361,-0.0133794192225,1.59181058407,-0.0253006704152
2017/07/09/09:43:54.118345,301878,1499564636,919155631,,0.902255985983,-0.0047546881644,0.155822210384,0.68527222473,0.710958552751,0.0916347968167,0.128619509784,-0.0321011209021,-0.225801117083,-0.0793676419132,-0.108657729638,0.0103635175237,0.292695039339,3.81445026398,-0.0561937913299,0.180720224977,-0.22035638988,1.70767474174,-0.11886908114
2017/07/09/09:43:54.128065,301879,1499564636,929143766,,0.902685206361,-0.00708412192691,0.155759576129,0.683436313973,0.712505367989,0.0915996620067,0.129847630896,-0.0146300235995,-0.184933365634,-0.0698653861658,-0.106421502005,-0.0113113985753,0.366279479645,4.08544445038,-0.410414040089,0.128700867295,-0.134776502848,1.78039872646,-0.0824453085661
2017/07/09/09:43:54.138254,301880,1499564636,939156915,,0.901970679095,-0.00880544035957,0.15472357477,0.683231936629,0.71282376589,0.0916226903834,0.129157586533,-0.00528362726988,-0.207700435836,-0.0608596296515,-0.101124706956,-0.0464152679347,0.288439731269,3.96175599098,-0.682856738567,0.151201829314,0.051517136395,1.88422226906,-0.0501474626362
2017/07/09/09:43:54.148263,301881,1499564636,949150896,,0.901513278925,-0.0115420884789,0.15415006111,0.68211927756,0.713841055492,0.0912406296944,0.129689576173,-0.0334846952438,-0.218549735964,-0.0773890758791,-0.0865690699592,0.0105333375211,0.22812480928,3.83806204796,-1.32119393349,0.215432092547,0.183491706848,1.8388594389,-0.0319176241755
2017/07/09/09:43:54.158366,301882,1499564636,959150530,,0.901763085652,-0.0125941030805,0.153423055221,0.681213415445,0.714634470047,0.0914815249353,0.129911459978,-0.0248313299961,-0.187433573969,-0.0653793382153,-0.0582527310309,-0.0129627839099,0.212422006119,3.14815402031,-0.689579427242,-0.0892115682364,0.066514082253,1.58691179752,-0.0440354309976
2017/07/09/09:43:54.168289,301883,1499564636,969143014,,0.900641725945,-0.0146853705722,0.152146988413,0.681267714776,0.714753030643,0.0912621288824,0.129126410245,-0.032016814548,-0.171035675515,-0.0916601191181,-0.0463696117145,0.019406965391,0.210659632243,3.46975064278,-0.914001226425,0.0161474272609,0.0288852788508,1.80145764351,-0.0930486470461
2017/07/09/09:43:54.178232,301884,1499564636,979159366,,0.900641751147,-0.0166311141001,0.151924997734,0.680470697029,0.715422748022,0.0910016348886,0.129802251692,-0.0345051525009,-0.186033216843,-0.0835806791632,-0.0231076130775,0.00837495252882,0.164721659751,4.54259395599,-0.957267582417,0.0664162784815,0.0159810557961,2.20014381409,-0.137751117349
2017/07/09/09:43:54.188184,301885,1499564636,989144439,,0.90004065678,-0.0180565517118,0.150962607368,0.679843897517,0.716115656631,0.0909472997669,0.12930286154,-0.0449384701142,-0.190056138554,-0.0793450223367,-0.0569175517797,0.0326550650232,0.182633021678,3.04892158508,-0.165780171752,0.306085556746,-0.276344209909,1.68177056313,-0.223835214972
2017/07/09/09:43:54.198282,301886,1499564636,999150717,,0.899641520337,-0.0195444997371,0.149744939096,0.679365231833,0.716604843639,0.0910683957768,0.129022971366,-0.0489190895091,-0.165812138827,-0.0897676761018,-0.00444878972201,0.0425654814639,0.164472317709,2.55156946182,0.00965876877308,-0.141305193305,-0.389727592468,1.42854177952,-0.23781272769
2017/07/09/09:43:54.208410,301887,1499564637,9142679,,0.899451724799,-0.0204808868998,0.149183347496,0.678891111098,0.717057288519,0.09141511748,0.128759390144,-0.0417575920111,-0.134029502842,-0.089246149961,0.0484071010756,0.0274893147263,0.156168510705,2.19958806038,0.595104634762,0.386316239834,-0.393456608057,1.17780458927,-0.187506109476
2017/07/09/09:43:54.218359,301888,1499564637,19143745,,0.898396655851,-0.0228617591124,0.148374672298,0.67851294352,0.717510472415,0.0909477677969,0.128558978618,-0.0454984718351,-0.164069326329,-0.0831366084775,0.0133612162329,0.0156791710933,0.116340327698,1.49029278755,-0.109492316842,0.509552121162,-0.22062112391,0.995050132275,-0.121577218175
2017/07/09/09:43:54.228241,301889,1499564637,29142741,,0.898691526906,-0.0239235213843,0.147733487277,0.677713137238,0.718138447478,0.0914255555993,0.128931926426,-0.051884923825,-0.172951769603,-0.0838333039644,-0.0058216149596,0.0242386323464,0.106944692274,1.56921744347,-0.319407761097,0.772312700748,-0.115989357233,1.02166807652,-0.0812551677227
2017/07/09/09:43:54.238040,301890,1499564637,39151259,,0.898187371066,-0.0254685660452,0.147026035742,0.677643678511,0.718206998844,0.0916126820345,0.1287822514,-0.0291607606909,-0.148809361377,-0.0674100088973,0.0176058939537,-0.0289130113503,0.135523587667,1.66780984402,0.348833620548,0.380541026592,-0.347763627768,1.10814929008,-0.210229948163
2017/07/09/09:43:54.247868,301891,1499564637,49145516,,0.897901897003,-0.0261031864041,0.146240120309,0.676575337404,0.71926088372,0.0918201309985,0.128369223378,-0.0192541465873,-0.106534311624,-0.0670093119307,0.0423819026953,-0.0363020266276,0.1997590069,1.3120316267,0.335630655289,0.120262689888,-0.269323706627,1.0153273344,-0.13482016325
2017/07/09/09:43:54.258760,301892,1499564637,59150713,,0.89799455921,-0.0261578598747,0.145958213515,0.676154299669,0.719579217345,0.0929096562856,0.128019173459,-0.0326382874088,-0.116967249069,-0.0711277783942,0.0554721006293,-0.0191851624525,0.149186964408,0.79910504818,0.710626661777,0.256567329168,-0.377859354019,0.831725001335,-0.194769501686
2017/07/09/09:43:54.268355,301893,1499564637,69150969,,0.897688047962,-0.0280304886488,0.145284287405,0.676177418155,0.719474017688,0.093692330614,0.127917880818,-0.0396887212601,-0.106551720804,-0.0805110887305,0.121898842465,-0.0165726482554,0.132810391911,0.593931674957,0.114661440253,-0.113039001822,-0.317234635353,0.736362457275,-0.157890155911
2017/07/09/09:43:54.278270,301894,1499564637,79150966,,0.897271341313,-0.0282053777633,0.144246408676,0.676076915391,0.719622962593,0.0944641433631,0.127040630516,-0.0335433946247,-0.0888607624628,-0.0751848226443,0.177616841702,-0.0363029913561,0.103521236009,0.614449262619,0.532853782177,-0.231251806021,-0.320699751377,0.68721139431,-0.165078759193
2017/07/09/09:43:54.288231,301895,1499564637,89154179,,0.897096677352,-0.028999684894,0.144010777034,0.676703654385,0.718970685403,0.0954858101025,0.126632451379,-0.0273780350786,-0.0469026085565,-0.0852321896859,0.245178002829,-0.0393545531977,0.0369471020952,1.2998278141,0.144755035639,0.345596373081,-0.242356047034,0.915002584457,-0.145840272307
2017/07/09/09:43:54.298177,301896,1499564637,99152210,,0.896790125469,-0.028375729973,0.14286015378,0.676821586233,0.718927575149,0.0966093084652,0.125388690146,-0.00870781897668,-0.0602794375915,-0.0578969302483,0.269940666724,-0.103951178855,-0.127224720704,0.708924949169,0.612118124962,0.392520576715,-0.307034701109,0.670984208584,-0.027463119477
2017/07/09/09:43:54.308357,301897,1499564637,109160038,,0.897101865448,-0.0297025739146,0.142690851702,0.677288786431,0.718252849137,0.0979413134556,0.125699019886,-0.00205684219831,-0.0249872513145,-0.0604118490357,0.271513168839,-0.100918074387,-0.0617554781902,1.27714943886,-0.469774663448,0.672821700573,-0.382754027843,0.982911229134,-0.0394788086414
2017/07/09/09:43:54.318433,301898,1499564637,119150426,,0.896711699161,-0.0314530840834,0.14275383446,0.67754209155,0.717919675895,0.0985363985815,0.125772140376,-0.0186356732511,-0.0602349519411,-0.0554402160899,0.236401971947,-0.0801699892848,-0.044012748554,2.41961669922,-0.838600099087,0.83059823513,-0.416185081005,1.35640144348,-0.111343055964
2017/07/09/09:43:54.328317,301899,1499564637,129150053,,0.896448147293,-0.0305763904895,0.141242368021,0.677336411944,0.718217350829,0.0991944414293,0.124658272138,-0.0167463327798,-0.0548098095944,-0.0657992737681,0.199751293645,-0.0639391791929,0.00377365293046,3.77544307709,-0.316720753908,0.472330302,-0.356109559536,1.73372018337,-0.126427844167
2017/07/09/09:43:54.338206,301900,1499564637,139149114,,0.89687535887,-0.0310282886633,0.141107598235,0.676664340408,0.718644339002,0.100205479268,0.125038179631,-0.011647730884,-0.0467606917666,-0.0688830734311,0.182075187572,-0.0621390499831,0.00396631771249,4.80422782898,-0.974656879902,0.545704782009,-0.107822611928,2.12323594093,-0.0739159733057
2017/07/09/09:43:54.348303,301901,1499564637,149148972,,0.89646066796,-0.0313185322901,0.14035853705,0.677596170994,0.717807630308,0.101132842263,0.12404750357,-0.00128458836735,-0.0357474614184,-0.0494207644826,0.166104077037,-0.075851881445,-0.00644683555619,4.18388986588,-0.971754550934,0.817280709743,0.109931752086,1.96321177483,0.061095841229
2017/07/09/09:43:54.358258,301902,1499564637,159143466,,0.896296355257,-0.0322077627064,0.139350390404,0.678101560741,0.717291006802,0.101888377845,0.123655340936,0.00732658012546,-0.0455581204782,-0.0262987202908,0.18997117528,-0.118908094267,-0.0762711447034,3.40708994865,-1.45744609833,0.214272320271,0.303664147854,1.68764650822,0.139205172658
2017/07/09/09:43:54.368528,301903,1499564637,169147506,,0.896970041677,-0.0318882062599,0.139765440284,0.678512878298,0.716680478894,0.103414388366,0.123672266231,0.00180735588357,-0.041544701978,-0.0470222899127,0.220897069683,-0.0946056699845,-0.110342218989,3.71855092049,-0.395317196846,0.85464656353,0.0954162627459,1.71806287766,0.0758460536599
2017/07/09/09:43:54.378227,301904,1499564637,179150638,,0.896435157165,-0.032568531209,0.139310222316,0.679301683465,0.71593925076,0.104153803382,0.12301299648,0.000232173944344,-0.0204334601398,-0.0335430535085,0.232159005385,-0.0722528019211,-0.135452850529,2.06147193909,-0.719294369221,0.461544036865,0.00634140521288,1.20270657539,0.0236907824874
2017/07/09/09:43:54.388326,301905,1499564637,189150586,,0.896730975372,-0.0331976871661,0.139179210366,0.679768163698,0.715346895303,0.105118293557,0.123061803019,-0.00328913404286,-0.0259025047561,-0.0477906863214,0.252230293219,-0.0712951659645,-0.145080629322,2.12470340729,-0.284281134605,0.881424963474,-0.100257888436,1.16455030441,-0.0233961306512
2017/07/09/09:43:54.398131,301906,1499564637,199143190,,0.896199028788,-0.0324303474012,0.137951383706,0.680127617205,0.715147562043,0.105857724876,0.12159165639,0.00745133657104,-0.0266312570832,-0.0384273320717,0.208230774991,-0.0891919990189,-0.107860227058,1.80397319794,0.0821070373058,0.356400132179,-0.228984951973,1.10699307919,-0.0692560821772
2017/07/09/09:43:54.408280,301907,1499564637,209145072,,0.896717667979,-0.0326713554609,0.138287448792,0.680289615902,0.714764680442,0.106916215017,0.122009889165,0.00382198660279,-0.00769157874646,-0.0380340615377,0.225678565654,-0.0741751685697,-0.0973708296308,2.44448375702,-0.250864952803,0.928502559662,-0.0443463511765,1.38568794727,-0.00712062418461
2017/07/09/09:43:54.418406,301908,1499564637,219150532,,0.89663254337,-0.0334769161286,0.137937556587,0.680892341285,0.714117428255,0.107703205163,0.12174538118,-0.0020258622726,-0.027516390181,-0.0328476344528,0.206327313036,-0.0807148164162,-0.126044565811,2.16383290291,-0.797156155109,0.814297258854,-0.00781569257379,1.36101818085,0.0194301232696
2017/07/09/09:43:54.428367,301909,1499564637,229150241,,0.896601636441,-0.0327304385549,0.137011040106,0.681061530671,0.713984375013,0.108403373699,0.120955414297,-0.0178805541268,-0.0350933926159,-0.0455617994753,0.201339352621,-0.0392348514886,-0.134936810429,1.97280454636,0.129271388054,1.39526796341,-0.21325981617,1.2914801836,-0.0811497271061
2017/07/09/09:43:54.438123,301910,1499564637,239179780,,0.896393003074,-0.0333232892795,0.13701241385,0.681732827484,0.713295688653,0.10885805667,0.120828539586,-0.00606856937176,-0.0246649839008,-0.0310190438323,0.175503555097,-0.0577378946477,-0.105126744434,0.797467589378,0.155563652515,1.24979054928,-0.29486182332,0.786802589893,-0.0827705860138
2017/07/09/09:43:54.448121,301911,1499564637,249150848,,0.896578681837,-0.0343945526047,0.137379071805,0.682195892447,0.712690704486,0.109490564006,0.121212790004,0.00367973130212,-0.00118330941156,-0.0192086786478,0.133891341807,-0.0556659893876,-0.0416141861457,0.817887604237,-0.234144002199,1.60492086411,-0.253180086613,0.773703575134,-0.0877829939127
2017/07/09/09:43:54.458416,301912,1499564637,259150287,,0.896517223897,-0.0339857134304,0.137126568287,0.682133134683,0.712718886474,0.110250871716,0.120710068827,-0.0123029316534,-0.0290207599343,-0.0357529958679,0.124792989096,-0.0252652494033,-0.0683586147373,1.42610621452,-0.4326402843,1.37062978745,-0.194485247135,1.00969588757,-0.0671171098948
2017/07/09/09:43:54.468280,301913,1499564637,269155887,,0.895982664742,-0.0350929450426,0.136341349038,0.683123178002,0.711810265017,0.110481143695,0.120261328698,-0.00873822547558,-0.0512119258595,-0.0205724231491,0.112375779299,-0.0570806054815,-0.08671213765,1.628708601,-0.513800740242,0.985696017742,-0.0982720479369,1.04992437363,-0.0341747291386
2017/07/09/09:43:54.478196,301914,1499564637,279151367,,0.896319011633,-0.0351913441563,0.136311494376,0.682991184163,0.711801603405,0.111090918005,0.12050032233,-0.00202457375689,-0.049915852614,-0.0277239361825,0.0923048504086,-0.0609853275143,-0.0992564267642,2.38758087158,-0.706784009933,0.891980886459,0.028793297708,1.35333693027,0.0329118296504
2017/07/09/09:43:54.488523,301915,1499564637,289148337,,0.896428040402,-0.0347251631076,0.136191068233,0.683066469338,0.711712026511,0.111539588371,0.120187811406,0.0022167022067,-0.0290255208871,-0.00926163762793,0.0909634125703,-0.0568260750439,-0.0672857439341,1.97773957253,-0.596961081028,1.23153293133,-0.0104386769235,1.13258874416,0.0219316035509
2017/07/09/09:43:54.498040,301916,1499564637,299148501,,0.896382513485,-0.036141261333,0.136012388511,0.683473450939,0.711254473786,0.111380228534,0.120729284236,-0.0114740523007,-0.0548374114902,-0.0221942358713,0.0738512177666,-0.0352615317446,-0.0943112223179,2.29060149193,-0.860875725746,0.916992127895,0.0349871739745,1.24581766129,0.00485424697399
2017/07/09/09:43:54.508610,301917,1499564637,309150551,,0.896242039627,-0.0362627675419,0.136226091543,0.683898465823,0.710802954139,0.112039156648,0.120371409437,0.00105287914303,-0.0304271521049,-0.0132942743727,0.0802267801793,-0.0479513994517,-0.0583693860422,0.820437610149,-0.430771619081,1.00542473793,-0.0753768533468,0.726106226444,0.0217467658222
2017/07/09/09:43:54.518364,301918,1499564637,319149381,,0.895829392764,-0.0362796807736,0.135677503533,0.683712295133,0.711072744731,0.111931533557,0.119934903095,-0.00988780802282,-0.0170871688439,-0.0150605206813,0.0796340495433,-0.0181670385197,-0.0385259452468,0.758803784847,0.164522215724,0.831130206585,-0.155281871557,0.712579727173,-0.0185536295176
2017/07/09/09:43:54.528286,301919,1499564637,329149832,,0.895886114048,-0.0362876214983,0.136092609938,0.683958969793,0.710779863723,0.11250933607,0.119723691315,0.00492383366194,0.000638631451187,0.00174272289307,0.0606163931191,-0.0333088769946,-0.0124066131607,1.32327437401,0.0724421367049,1.18604242802,-0.0918889194727,0.935882627964,0.0346765778959
2017/07/09/09:43:54.538060,301920,1499564637,339144123,,0.895834807369,-0.0363714245526,0.135877206181,0.684061981123,0.710669129075,0.112535437181,0.119767985457,-0.0211564167794,-0.00352722530302,-0.010606221002,0.0764956251954,0.0177943254577,-0.0174320912327,1.37894928455,-0.0442987084389,0.789126873016,-0.174180209637,0.904756486416,-0.0662491768599
2017/07/09/09:43:54.548275,301921,1499564637,349144254,,0.895676746718,-0.0372025481217,0.136157713745,0.684594466129,0.710108731017,0.112939028646,0.119669473499,-0.0144958069421,0.017345540582,-0.0140186261214,0.0707025836196,0.0285187190757,-0.00227487095065,1.43021976948,-0.64440703392,1.31668508053,-0.102770075202,0.894619643688,-0.00417090207338
2017/07/09/09:43:54.558503,301922,1499564637,359157370,,0.894864172233,-0.0357886388474,0.134749231312,0.684116693659,0.71091837006,0.112356566166,0.11813307161,-0.033971292372,-0.0204419397365,-0.017878174254,0.0481398550874,0.0562963140687,-0.0341931612672,1.65327692032,0.0620801746845,0.549222290516,-0.225210294127,0.877929806709,-0.0845237448812
2017/07/09/09:43:54.568432,301923,1499564637,369156133,,0.894696816821,-0.0364269877027,0.135385897052,0.684434191886,0.710550234176,0.112603121384,0.118273998595,-0.0384854296776,-0.00539906196523,-0.0182153151513,0.0422718712259,0.0838186484986,-0.0122194187263,1.73754703999,-0.377534031868,0.973374307156,-0.0469362363219,0.785334289074,0.0277158394456
2017/07/09/09:43:54.578235,301924,1499564637,379156293,,0.894657022267,-0.0366199165923,0.135504883571,0.684431677316,0.71056662763,0.112426409706,0.118358139498,-0.0147510397232,-0.0202739952026,0.0160952597352,0.0226017864464,0.00890765253848,-0.0260245247706,1.15536415577,-1.11672151089,0.833916008472,0.189117148519,0.564844250679,0.134009882808
2017/07/09/09:43:54.588224,301925,1499564637,389156274,,0.895305829994,-0.036604790599,0.135951472257,0.684163422952,0.710663245407,0.1127331597,0.119035276391,-0.0164604531173,-0.0217993231154,0.00810131823853,0.0265733633094,0.00678118761174,-0.0452308438478,1.80125725269,-0.641397058964,0.830273211002,0.139591157436,0.740062952042,0.0755061134696
2017/07/09/09:43:54.598070,301926,1499564637,399151265,,0.895065390074,-0.0370617301658,0.135872819166,0.685030479528,0.709823849557,0.11317325089,0.118638779498,-0.00815183681328,-0.0218194420805,0.0041929380073,0.00905491319538,-0.00292058580492,-0.0394470170736,1.55920910835,-1.67395925522,0.669843435287,0.339311659336,0.725620806217,0.170633584261
2017/07/09/09:43:54.608934,301927,1499564637,409144691,,0.894688814096,-0.0369087677675,0.135488991835,0.684902511151,0.710089887595,0.112416344215,0.118505136209,-0.00922519641617,-0.0313046958777,-0.00450015253596,-0.00569031467981,0.000544761716375,-0.0366210051823,0.0117709562182,-0.470832169056,1.27336883545,-0.0127107910812,0.164992392063,0.0290702581406
2017/07/09/09:43:54.618239,301928,1499564637,419149358,,0.894966856956,-0.036894009873,0.13588541118,0.684476186693,0.710415591369,0.112489011289,0.1189464574,-0.00941631553804,-0.0122148052379,-0.00675123428139,0.00995025476829,0.00891337668922,-0.0115370321115,2.34668469429,-0.561648726463,0.817110657692,-0.0135701410472,0.981590151787,0.00859646871686
2017/07/09/09:43:54.628196,301929,1499564637,429144057,,0.894902928319,-0.0376715246042,0.13590621764,0.685225288098,0.709645977246,0.112758580864,0.118972240335,0.00972465423343,-0.0173876298929,0.0207795096989,-0.0205412281646,-0.0369588528922,-0.0138031652825,1.39988744259,-0.557887554169,0.432098537683,0.012279516086,0.646538317204,0.042068939656
2017/07/09/09:43:54.638119,301930,1499564637,439150514,,0.894873204563,-0.0376980075572,0.136197894041,0.684522434334,0.710333574411,0.112454963409,0.119202060231,-0.0140706141308,-0.0348489787251,-0.000458532973247,-0.0128697656177,0.00676461284799,-0.0305897959915,2.02082848549,-0.409248799086,0.499808490276,0.0129842534661,0.802947759628,0.0275299921632
2017/07/09/09:43:54.648175,301931,1499564637,449174659,,0.89397544026,-0.0378069174469,0.13509172905,0.685050595265,0.710026434857,0.112371084996,0.118071516413,-0.0130816409143,-0.0351002381497,0.00575189592063,-0.00707133950566,0.00467905099658,-0.0359090638495,1.68241727352,-0.703733921051,-0.136353343725,0.0338067039847,0.733029127121,0.0493712387979
2017/07/09/09:43:54.658353,301932,1499564637,459150890,,0.894142989357,-0.0378590072945,0.135242022271,0.684865361627,0.710189469679,0.112136695412,0.118387985631,-0.0170543175251,-0.0202608112596,-0.00301214998403,0.00224074399995,0.0268581285123,-0.0281240741124,-0.176867097616,-0.251602500677,0.419703274965,-0.130825817585,-0.0277794376016,-0.0323341824114
2017/07/09/09:43:54.668353,301933,1499564637,469142652,,0.89388340494,-0.0380069611293,0.135467184886,0.685031388215,0.710063838738,0.112146572683,0.118171436109,-0.0178100932106,0.00181436816628,-0.00144290707919,0.0174313030261,0.0394635109612,0.00586740107902,1.68632411957,-0.372505903244,-0.158753842115,-0.0162247568369,0.573707699776,0.0487136170268
2017/07/09/09:43:54.678354,301934,1499564637,479144104,,0.893841098298,-0.0376240426957,0.135385545451,0.685050766042,0.710081835825,0.11225024189,0.117852100414,-0.0144310539455,0.00391371037661,-0.014062644071,0.0254405258571,0.0349396224685,-0.00781558972351,2.73143553734,-0.50688201189,-0.00437536323443,-0.00598800927401,0.977290511131,0.00575630366802
2017/07/09/09:43:54.688308,301935,1499564637,489149926,,0.894283890162,-0.0381277190186,0.136208088127,0.685308177614,0.709690814144,0.112378054685,0.118586773463,0.00363282666834,-0.00295001563958,0.00682087152084,-0.0102897219619,-0.0140363016957,-0.0125368565744,2.77628111839,-0.912269592285,0.430935531855,0.098881021142,1.03918111324,0.0593996122479
2017/07/09/09:43:54.698264,301936,1499564637,499149633,,0.893522390976,-0.0386274074574,0.135056235724,0.685519423681,0.709654599659,0.111950942805,0.117984979317,-0.00302440688352,-0.0275804860806,0.00695616648067,-0.00472527630748,-0.0164110593177,-0.0358255952191,3.00978159904,-1.16900408268,-0.041106492281,0.217673420906,1.12705910206,0.135422885418
2017/07/09/09:43:54.708444,301937,1499564637,509150608,,0.894231252902,-0.037834488389,0.135585015619,0.68520471079,0.709790086641,0.112662699707,0.118320130627,0.00188998100386,0.0114645326156,-0.00419454602366,0.020775004259,-0.000312776049493,0.00440965487858,1.53173005581,-0.972845077515,0.839083731174,0.14655700326,0.658171951771,0.0830947309732
2017/07/09/09:43:54.718217,301938,1499564637,519143655,,0.894232492763,-0.0382725909638,0.136125167464,0.685305210646,0.709684373192,0.112367632426,0.118652323583,0.00711636033078,0.0203043194836,0.00566778468685,0.0127136165773,-0.00487364486484,0.0299889006712,1.62861251831,-0.799153387547,0.917404830456,0.119904696941,0.738975226879,0.0946656838059
2017/07/09/09:43:54.728458,301939,1499564637,529145084,,0.893627074273,-0.0377807864739,0.135181280232,0.685105492657,0.710091588703,0.111876238108,0.117830840323,0.00202833875502,-0.0166987470686,0.00284143788168,-0.00772417166841,-0.0154906730732,-0.0258877410151,0.282851785421,-0.224332675338,0.0848802253604,-0.0606018640101,0.26756593585,-0.00968214869499
2017/07/09/09:43:54.738099,301940,1499564637,539143089,,0.893870363956,-0.0377041946469,0.13512233704,0.685156928226,0.709934599372,0.112590566972,0.11779733676,0.0141409143126,0.0229110875991,0.00700095896466,0.000347548784041,-0.0139530460362,0.0295481331614,0.83285266161,-0.771322548389,-0.00350906606764,0.141289442778,0.529165029526,0.0952247008681
2017/07/09/09:43:54.748281,301941,1499564637,549143943,,0.893811926556,-0.0378498316916,0.135470041035,0.685072639736,0.710058550274,0.112084244902,0.118023114318,-0.0103871910833,-0.00714997223187,0.000990635136974,-0.0163014742614,0.0266755082703,0.00269725806394,0.716152012348,-0.631180226803,0.332800984383,0.106835573912,0.380463600159,0.0759818851948
2017/07/09/09:43:54.758410,301942,1499564637,559144620,,0.894407508496,-0.0388236461284,0.136517542518,0.6853322812,0.709584005053,0.112320272793,0.119140087454,-0.00962643096594,-0.0135149454346,0.00386628672546,-0.0442202779015,0.0266134010745,-0.00126640174369,1.46924519539,-0.979867517948,1.2100520134,0.158062115312,0.672400593758,0.0755469426513
2017/07/09/09:43:54.768065,301943,1499564637,569162063,,0.893445936721,-0.0389861061343,0.135559247333,0.685427805718,0.709803505686,0.111125493691,0.118401144916,-0.0102558008699,-0.0202077348506,0.0030233382497,-0.0607327268565,0.0262002927112,0.0155253132198,3.05964970589,-1.45132279396,0.171737089753,0.333204865456,1.32211184502,0.15159702301
2017/07/09/09:43:54.778039,301944,1499564637,579149249,,0.893310078475,-0.0384105515407,0.135208402724,0.68510852599,0.710139135588,0.111418634299,0.117960178251,-0.0226239497088,0.00357961055362,-0.0133615862391,-0.0126016545411,0.066024007904,0.019774361144,2.7775759697,-1.29164719582,0.0218301676214,0.29962772131,1.15972113609,0.126243084669
2017/07/09/09:43:54.788161,301945,1499564637,589149636,,0.893537161783,-0.0376380784526,0.135545667988,0.684822912432,0.710428977327,0.111425438511,0.117866952259,-0.0215279237367,-0.00898414324532,-0.000837684720731,-0.016555010586,0.0526798511043,0.00251509260835,3.36516690254,-0.820881426334,0.150010734797,0.241699650884,1.26165938377,0.117675699294
2017/07/09/09:43:54.798091,301946,1499564637,599143953,,0.893784386369,-0.0386673788232,0.135992107547,0.685050067185,0.710094325518,0.111460105634,0.118528895919,-0.00924566938117,0.000620259790742,-0.0149062739721,-0.0145348539106,0.0352301985594,0.026553198173,2.21646738052,-1.51576519012,0.914460122585,0.29227116704,0.952403247356,0.134374916553
2017/07/09/09:43:54.808478,301947,1499564637,609159180,,0.893269788037,-0.0386036879155,0.135327586366,0.685378664582,0.709892210209,0.111286947695,0.118001488525,0.00698051750643,-0.0127426292229,0.00374309519746,-0.00638008869772,-0.0288647942757,-0.0146228344067,1.39813017845,-1.4122480154,0.32366669178,0.331388920546,0.739597976208,0.164609774947
2017/07/09/09:43:54.818400,301948,1499564637,619144137,,0.893281241415,-0.0385295392191,0.135265119324,0.685182693553,0.710099923176,0.111124741483,0.118042650731,-0.00124168437571,-0.00127801403061,-0.00484075456002,0.0103531970545,-0.00384123856993,-0.0146689475569,4.02311229706,-1.20568680763,0.206105798483,0.351081639528,1.6573818922,0.144419014454
2017/07/09/09:43:54.828199,301949,1499564637,629144225,,0.893406583675,-0.0382447912819,0.135229815559,0.68479809178,0.71045471473,0.111112709389,0.118150910386,-0.00266940338812,0.0128267682152,-0.0195736254299,0.00836251075886,0.0194911352583,0.0221616895908,1.91976332664,-0.929965734482,0.656218707561,0.174843758345,0.939031362534,0.0763893201947
2017/07/09/09:43:54.838166,301950,1499564637,639150248,,0.893733488429,-0.0387507046099,0.135777089189,0.685152473913,0.709983920836,0.111486172356,0.118573829396,0.0147556136497,-0.0140024907368,0.0120302875643,-0.0369422464557,-0.0385308234874,0.00611421025997,3.09318518639,-1.14193940163,0.654410302639,0.320510745049,1.28810441494,0.139666587114
2017/07/09/09:43:54.848572,301951,1499564637,649153197,,0.893559506165,-0.0388371997391,0.135718527518,0.684997860638,0.710186006208,0.111216552295,0.118510109284,-0.00802100548841,-0.0223864701569,0.00308950584055,-0.0233248098698,0.010251393454,-0.0225192422833,1.18760931492,-0.778391242027,0.581363737583,0.178374186158,0.628435134888,0.098459482193
2017/07/09/09:43:54.858523,301952,1499564637,659145371,,0.893661591003,-0.0393440295542,0.135832095705,0.685185051462,0.709950119214,0.111209532786,0.118847437072,-0.0119905538808,-0.0190824418173,-0.0132189174653,-0.0291619192961,0.0294430348514,-0.00710336615911,3.34433674812,-1.4616830349,0.434372574091,0.323802530766,1.39501106739,0.136321946979
2017/07/09/09:43:54.868265,301953,1499564637,669147725,,0.893346027894,-0.038886832518,0.13548694098,0.685104512291,0.710179841416,0.110714787457,0.118400320625,-0.00828108114039,0.0114873455869,-0.0122707085817,0.00579854642526,0.0276877059342,0.011712546647,3.1016356945,-0.93233537674,0.518629670143,0.285113692284,1.27350485325,0.114676855505
2017/07/09/09:43:54.878161,301954,1499564637,679149520,,0.893201466686,-0.0389916110308,0.135032158285,0.685161013263,0.710131817123,0.110822166868,0.118260879185,-0.00196162560289,-0.0142377302883,-0.000702169101965,-0.0485893759337,0.00522358758523,0.00713418328112,1.75331056118,-0.845166921616,0.629983603954,0.229586467147,0.884256064892,0.0960770770907
2017/07/09/09:43:54.888177,301955,1499564637,689148594,,0.892711583012,-0.0388199423091,0.134422512989,0.684968654703,0.71050923911,0.110081669316,0.117798935881,-0.00328126874791,-0.0227057985269,0.00766325346627,-0.0345319105489,-0.0024030356217,-0.0141690830092,1.78123223782,-0.797566890717,0.0965909138322,0.169729501009,0.953420102596,0.062165774405
2017/07/09/09:43:54.898209,301956,1499564637,699143508,,0.892799874129,-0.0398304162921,0.13545950977,0.685411244312,0.709940659021,0.110238142594,0.118504171897,-0.00108005914752,-0.00697002234071,0.000360855459999,-0.0334505028829,0.00634789523906,0.013591997407,3.72145628929,-1.73399066925,0.506280779839,0.48678278923,1.60522472858,0.188968598843
2017/07/09/09:43:54.908588,301957,1499564637,709150114,,0.893573729196,-0.0380986946276,0.135587666912,0.68443307011,0.710802167765,0.110831421549,0.11844005589,0.000902519354709,-0.00291290983329,-0.00104383057135,-0.00518100902903,-0.00155494614239,0.00577229162848,3.9215118885,-0.453486263752,0.226207464933,0.264048725367,1.56741917133,0.120661094785
2017/07/09/09:43:54.918257,301958,1499564637,719150801,,0.893738789058,-0.0386007695747,0.135777929247,0.684867884067,0.71028616736,0.111019268512,0.11884554619,-0.00389048827185,-0.000180628917457,-0.00954221286331,-0.00424601531608,0.00910967076095,0.0129918314844,1.89510047436,-0.419598281384,0.901347517967,0.0892891213298,0.894184887409,0.0379114076495
2017/07/09/09:43:54.928475,301959,1499564637,729143876,,0.893060276873,-0.039422712005,0.135309490198,0.684761616131,0.710542189502,0.110149997636,0.118736279345,-0.00779746726723,-0.0139248346775,-0.00183612196462,-0.0115920283327,0.0141371047721,-0.00517547141618,1.39075505733,-0.74065631628,0.836077928543,0.277427017689,0.688271820545,0.164528489113
2017/07/09/09:43:54.938057,301960,1499564637,739144022,,0.89285164974,-0.0396245862882,0.135410053571,0.68497550895,0.710368180625,0.110193866499,0.118502792709,-0.00326801530699,-0.00821582210477,0.00118815570306,-0.0182237815549,0.00416054353214,0.0134680355525,1.8603836298,-1.07991409302,0.789998710155,0.208190143108,0.892182290554,0.097146935761
2017/07/09/09:43:54.948040,301961,1499564637,749142312,,0.893325238893,-0.0392283034661,0.135623449134,0.685067126614,0.710160632773,0.110730110968,0.118717101621,-0.000290266959388,0.00485182672997,-0.00858394652441,0.00439268459215,0.00719047882932,0.00673288673382,3.57343816757,-1.15317440033,0.482749253511,0.233815744519,1.50583791733,0.0841788128018
2017/07/09/09:43:54.958322,301962,1499564637,759150506,,0.893432077172,-0.0386110049132,0.135174270636,0.685170517556,0.710106803126,0.110657717617,0.118509744567,0.0107017098274,0.025316187492,-0.000760371649952,0.0304883018109,-0.0092220971294,-0.00537462529178,2.11920189857,-0.702037572861,0.597246229649,0.19222715497,0.950200498104,0.0906340181828
2017/07/09/09:43:54.968216,301963,1499564637,769147011,,0.893101847081,-0.0388309423514,0.134827825482,0.684806546074,0.710535480402,0.110425236075,0.118260698382,-0.000197925149524,0.0141254551772,-0.0076028134045,0.00873714575649,0.0110152786613,0.00731821185351,3.58820009232,-1.54285478592,0.458594352007,0.427850276232,1.48693537712,0.185534358025
2017/07/09/09:43:54.978150,301964,1499564637,779147941,,0.892904433182,-0.0388673140158,0.135101388164,0.68500051317,0.710376102286,0.110455923174,0.118065995504,-0.0110744478893,-0.0123359259576,0.000156069228796,-0.0133319673844,0.016563174084,0.00746859929986,1.93631899357,-1.20730316639,0.708553791046,0.379324793816,0.937965750694,0.189107522368
2017/07/09/09:43:54.988146,301965,1499564637,789154403,,0.893379774106,-0.0386798870432,0.135563089039,0.684640097276,0.710625246462,0.110505110617,0.118609935587,0.00267642761671,0.000968490624531,-0.00323351032932,0.00447947632736,-0.00365628862995,0.00260960062459,4.372423172,-1.22314167023,0.761508226395,0.465066075325,1.79133939743,0.182667523623
2017/07/09/09:43:54.998165,301966,1499564637,799150114,,0.892978563781,-0.0395685911651,0.134800285039,0.684971785841,0.710364259405,0.110161238758,0.118578130516,0.00585254574714,-0.00196120557115,-0.00626289978951,-0.00846118914687,-0.0120411908487,0.00464312269755,3.63761091232,-1.63400030136,0.600494384766,0.400756657124,1.62668919563,0.173677459359
2017/07/09/09:43:55.008446,301967,1499564637,809150337,,0.893277884968,-0.0390602979391,0.13516256405,0.684729004335,0.710543662106,0.11038111228,0.118700905283,0.00505055628774,-0.0130862942803,-0.00211289309931,-0.0163318909798,-0.0188916998347,-0.0264210844823,2.3578722477,-1.3255674839,1.34373903275,0.395857721567,1.19546592236,0.169867813587
2017/07/09/09:43:55.018254,301968,1499564637,819150540,,0.893409825995,-0.0387894338617,0.134931519732,0.684811071504,0.710437214207,0.110755713486,0.118515538841,0.00265417625991,0.00334993013633,-0.00655288303329,0.00748064522914,-0.0029362062824,-0.00432618207774,4.33238697052,-1.41324210167,0.765456020832,0.517286717892,1.88638854027,0.220141589642
2017/07/09/09:43:55.028379,301969,1499564637,829147218,,0.893574406555,-0.0395063831303,0.135150877847,0.684994566108,0.710190636674,0.110743793761,0.118943331577,0.00358142521856,0.00652691596354,-0.0058137968459,0.00174561446468,-0.000574217595883,0.0143468270771,3.49229979515,-1.6367213726,1.07697987556,0.439735323191,1.64223086834,0.175021469593
2017/07/09/09:43:55.037956,301970,1499564637,839144195,,0.893513087123,-0.0385761767019,0.13462537148,0.684936545789,0.7103185641,0.110850011933,0.118413430793,0.00165101578032,-0.0159958009384,0.00118045681127,-0.0195973593824,-0.00811013428238,-0.0193268620296,0.987943053246,-0.788828492165,1.05523145199,0.206780612469,0.774074792862,0.0982863977551
2017/07/09/09:43:55.048189,301971,1499564637,849149606,,0.893256604325,-0.0385184300379,0.134500418722,0.684716009441,0.710597391839,0.110648877094,0.118203887944,0.00426383840117,0.00239670661578,0.00510252901357,0.00250314322646,-0.0119409489883,0.0126850928571,3.3016500473,-1.08003926277,0.773376047611,0.348079442978,1.56626570225,0.133790701628
2017/07/09/09:43:55.058558,301972,1499564637,859150293,,0.894047398898,-0.0389112410905,0.135571996219,0.684770273513,0.710299165953,0.111210704788,0.11915093999,0.00700169086846,0.00514347919848,-0.00727509821255,0.00674415325105,-0.0159149939687,0.00836306030612,3.46667551994,-1.08671879768,1.49565398693,0.328874140978,1.64933502674,0.13140758872
2017/07/09/09:43:55.068545,301973,1499564637,869145051,,0.893555428956,-0.0390204240022,0.134839845298,0.684674913463,0.710535847388,0.110687375414,0.11877448116,-0.00368895299901,-0.00230909304622,0.00152642636598,-0.0298049050816,0.0104271228304,0.0169743366259,3.20441532135,-0.98944991827,1.05396449566,0.308133721352,1.56005108356,0.144276469946
2017/07/09/09:43:55.078662,301974,1499564637,879151716,,0.893584375774,-0.0400907396791,0.135376339079,0.685101639676,0.71004567617,0.110538944496,0.119381836204,0.00167201316642,-0.0074140048564,-0.00286286174959,0.005753326525,-0.0106950048141,-0.0201221901196,1.80327641964,-1.68118011951,1.46931040287,0.443112075329,1.12509822845,0.174562782049
2017/07/09/09:43:55.088194,301975,1499564637,889147387,,0.893956845056,-0.0389572359917,0.135183760362,0.684724833234,0.710375291699,0.110936693092,0.119213664576,0.00654970306112,0.0090925448502,-0.00617505438728,0.0194795609614,-0.00924291035671,-0.00774429685308,3.47088098526,-1.13107776642,1.23890900612,0.341796696186,1.70650804043,0.13645747304
2017/07/09/09:43:55.098300,301976,1499564637,899151066,,0.893310879828,-0.0389186572384,0.134284926805,0.684868284255,0.710454795734,0.110324478859,0.118481753044,0.000178863447929,-0.028254669863,-0.00401014241914,-0.0040783689509,-0.0174244149431,-0.0416437074199,2.66077280045,-0.545810937881,0.541461586952,0.240246325731,1.38223433495,0.105947352946
2017/07/09/09:43:55.108189,301977,1499564637,909143402,,0.893669520959,-0.0390245763752,0.134896187912,0.684643974169,0.710558380864,0.110706433086,0.118800259644,-0.0148603456724,0.0191905341644,-0.0216074700074,0.0081215425891,0.0554488345058,0.0287777992196,2.93424296379,-0.656050264835,1.20035541058,0.214040905237,1.49261975288,0.0957797542214
2017/07/09/09:43:55.118007,301978,1499564637,919151410,,0.89401786004,-0.0398260418759,0.135577613033,0.684751926249,0.710274458586,0.110843635452,0.119744233511,0.000227054849506,0.0179476521099,-0.00393762855556,0.00491752558133,0.0125056111289,0.0262594111834,3.16016817093,-1.11193466187,1.57017111778,0.318151444197,1.48493206501,0.148416742682
2017/07/09/09:43:55.128238,301979,1499564637,929143205,,0.893646490533,-0.0385911118551,0.135038463675,0.684720757359,0.710464545739,0.111001203131,0.118643780254,0.00207048789567,-0.015281453998,0.0105894395439,-0.0211957424417,-0.0145949228613,-0.00552659037904,2.65990710258,-0.932135283947,1.27212238312,0.291068613529,1.37800824642,0.104427739978
2017/07/09/09:43:55.138137,301980,1499564637,939148925,,0.893370430458,-0.0392112340756,0.134476361823,0.685190118174,0.710093935014,0.110557991494,0.118566588587,-0.00649069143243,-0.00986010440448,-0.00588451544451,-0.00525147270875,0.0126285460179,-0.00504219887572,2.16056966782,-1.25164461136,0.826704084873,0.404809772968,1.13682341576,0.182617023587
2017/07/09/09:43:55.148201,301981,1499564637,949150731,,0.89395662076,-0.0392790198502,0.135241157463,0.684966096176,0.710135223187,0.110956145426,0.119239866115,-0.0102440998723,0.000238947688613,-0.0158023761132,0.0100634908229,0.0274656710678,0.0023416017548,3.45038175583,-1.0700275898,1.19121181965,0.248675733805,1.58514380455,0.0815532505512
2017/07/09/09:43:55.158433,301982,1499564637,959144695,,0.893276646715,-0.0389728013634,0.134311484628,0.68493412303,0.710368628339,0.110606028724,0.118355250796,-0.010007709815,0.00922705050356,-0.0171264653008,0.0143730525247,0.0317213688179,0.00815026354644,3.46508026123,-1.0643389225,0.791438281536,0.358227789402,1.64644134045,0.140759289265
2017/07/09/09:43:55.168112,301983,1499564637,969142824,,0.893629694967,-0.038834486676,0.134826052348,0.684642071837,0.710578903687,0.110569222379,0.118816253807,0.00099513331261,0.00046981407997,0.00364104736325,0.025710718371,-0.00868183090651,-0.0260145878452,3.26144361496,-1.16018652916,1.16835641861,0.407529085875,1.55338275433,0.189184188843
2017/07/09/09:43:55.178419,301984,1499564637,979151164,,0.893247689581,-0.0390002945781,0.134603879032,0.684639596413,0.710661574107,0.110370739619,0.118520251212,-0.00501812372629,-0.0142717890066,0.00692657246026,0.00425367621756,-0.005006360991,-0.0311957051128,3.38753867149,-0.72217476368,1.26156020164,0.305709123611,1.63003373146,0.12305662781
2017/07/09/09:43:55.188152,301985,1499564637,989153474,,0.89337922828,-0.0386376342068,0.134608365282,0.684761914476,0.710493387122,0.110872123415,0.118353874416,0.0178518726856,0.00699655387602,0.0133622125399,-0.0123608576052,-0.0435053256959,0.0229338829517,3.63235330582,-1.43894422054,1.16704118252,0.462647080421,1.75216078758,0.213265329599
2017/07/09/09:43:55.198202,301986,1499564637,999150532,,0.89344716139,-0.0391990772135,0.13474830564,0.685151303538,0.710039831639,0.11116910222,0.11854349184,6.61590484695e-05,0.00548428482887,-0.00869585471707,0.0116120652878,-0.00101293370662,0.0069203981722,3.09681940079,-1.38057756424,1.19911122322,0.401778131723,1.59870004654,0.152785748243
2017/07/09/09:43:55.208384,301987,1499564638,9151181,,0.893150793111,-0.0391045131904,0.134449763548,0.685056087739,0.710242071519,0.110712892445,0.118308968144,0.00747782647491,-0.00580333219432,-0.00192671114012,-0.00591508228517,-0.0153554266917,-0.0120509818548,3.23649692535,-1.23630416393,1.20760631561,0.277802139521,1.73351991177,0.101478010416
2017/07/09/09:43:55.218246,301988,1499564638,19147754,,0.89286363857,-0.0390778905621,0.133530969845,0.685250846268,0.710174847058,0.110465308793,0.117815023865,0.00274824896016,-0.00742408373177,-0.00390127261027,0.001185749245,-0.00605368864993,-0.0150143381823,2.47580504417,-0.711384057999,0.803750813007,0.208160370588,1.4521613121,0.0843673348427
2017/07/09/09:43:55.228368,301989,1499564638,29169761,,0.893618691315,-0.0389387624293,0.134520846701,0.684767392327,0.710460369699,0.11061843138,0.118757080344,0.00734024026734,0.0037272116415,-0.00614136529723,-0.0270866432052,-0.00441973547372,0.017461662775,2.8788022995,-1.43469882011,1.30293691158,0.406570583582,1.62929785252,0.14926122129
2017/07/09/09:43:55.238320,301990,1499564638,39151059,,0.893399503117,-0.0392587770946,0.13371251897,0.684785788289,0.710458328519,0.110731326928,0.118557837497,-0.00534289700059,-0.0135670737792,-0.00724335950216,-0.0213577307161,0.0105244475699,-0.00505551847664,3.38438248634,-1.57221603394,1.43210756779,0.427728652954,1.80033743382,0.159737080336
2017/07/09/09:43:55.248154,301991,1499564638,49147897,,0.893670016488,-0.0385178326177,0.134442246069,0.684582684157,0.710618069418,0.110773866366,0.118733560968,0.00685275686591,0.000583292665463,-0.00277994443448,-0.00470289415683,-0.0169740085001,-0.000905195621924,3.13669872284,-0.807088553905,1.43770468235,0.359842717648,1.65892899036,0.13851878047
2017/07/09/09:43:55.258309,301992,1499564638,59148581,,0.893647497812,-0.0386963105246,0.134199521604,0.684904543194,0.710291591529,0.110985423571,0.118633289892,0.00561199803582,0.00232148974914,0.00038134455488,-0.00846063525823,-0.0115929233908,0.0159837677219,3.47221302986,-1.02233481407,1.41601788998,0.410297185183,1.77659988403,0.204220786691
2017/07/09/09:43:55.268120,301993,1499564638,69153555,,0.893865691504,-0.0398452660922,0.134703361464,0.685069049477,0.710048728058,0.110702835543,0.119398841846,-0.00202416297582,-0.00383309919738,-0.00325595158604,-0.0196501882401,0.00618917265981,0.00928197009236,3.15986704826,-1.72565746307,1.59896636009,0.449305444956,1.67888629436,0.16171887517
2017/07/09/09:43:55.278375,301994,1499564638,79150837,,0.893384626384,-0.0397878598122,0.134144614287,0.684953225614,0.710300488885,0.110167156131,0.119060874852,-0.0109064780439,-0.0282209334566,-0.00766687640777,-0.0339544329278,0.0193258343642,-0.0255532131616,3.1676003933,-1.45735001564,1.15275132656,0.462922543287,1.65546488762,0.205687120557
2017/07/09/09:43:55.288240,301995,1499564638,89150484,,0.893219885446,-0.0393925085997,0.133982725086,0.684738678049,0.710569568674,0.110153136651,0.118701800084,0.00305400520513,-0.0153723293161,0.00449115361246,-0.0586921272898,-0.00164424389731,0.0164978004496,3.09222555161,-0.838260650635,1.3037750721,0.263039678335,1.6300920248,0.0921563133597
2017/07/09/09:43:55.297901,301996,1499564638,99149743,,0.893084849595,-0.0401422925828,0.133885536558,0.684796373477,0.710481222258,0.110019769616,0.119021048497,-0.0069020996016,-0.0121382250794,-0.00424392422023,-0.0532206231563,0.0263090718954,0.0189200011852,3.19588088989,-1.93020272255,1.01836657524,0.526114881039,1.76065135002,0.215395525098
2017/07/09/09:43:55.308543,301997,1499564638,109142102,,0.893205468143,-0.0396303189188,0.133990718783,0.684457051892,0.710871674977,0.10943355355,0.119181807287,-0.0125976017405,-0.0136455707814,-0.0128383847922,-0.029390114548,0.0302661136635,0.00323243559679,3.45774817467,-0.930514395237,1.09818696976,0.351129025221,1.69564604759,0.1626598984
2017/07/09/09:43:55.318150,301998,1499564638,119151447,,0.893275921317,-0.0401704477383,0.134177087819,0.684552020606,0.71074080478,0.109477978816,0.119375925795,-0.00479739660007,-0.0131605446899,-0.00151023624896,-0.042192961326,0.0155639708143,0.00842969746521,2.84809947014,-1.29375803471,1.54702484608,0.423418313265,1.54004144669,0.167652547359
2017/07/09/09:43:55.328210,301999,1499564638,129143840,,0.892989634269,-0.0408288406103,0.134265738529,0.684677661321,0.710654704232,0.108954328038,0.119646754419,-0.015185945179,-0.0164277138605,-0.0045304200541,-0.0423239559783,0.0390347220108,0.00454017536611,4.57439804077,-1.901927948,1.46346521378,0.490991950035,2.14241528511,0.179097831249
2017/07/09/09:43:55.337865,302000,1499564638,139147894,,0.893701235883,-0.0399734104198,0.134660569261,0.684468623818,0.710687354721,0.109704297177,0.119963136126,-0.0107556048401,-0.0395754134022,0.00152159939972,-0.0417421057622,0.00444734597589,-0.025587870454,3.4879693985,-0.66706353426,1.35568666458,0.333778113127,1.62583172321,0.145516425371
2017/07/09/09:43:55.348512,302001,1499564638,149145200,,0.893217242208,-0.0397242339262,0.134089174812,0.684511265885,0.710805148935,0.109431631329,0.119268961549,-0.00131479268496,-0.0123167157469,0.00119306205516,-0.0280994556795,0.00451652108633,-0.000892222107821,3.40023136139,-0.58944684267,0.960987508297,0.256780266762,1.63627576828,0.132511481643
2017/07/09/09:43:55.358579,302002,1499564638,159145072,,0.892763898479,-0.0411511081063,0.133890343925,0.684750515582,0.710649884215,0.108593302514,0.119586655291,-0.00962394232034,-0.0115212228447,-0.00240856397035,-0.0252269383611,0.0236281517487,0.0042404039249,3.30548405647,-1.67338502407,0.849118947983,0.409261822701,1.69556033611,0.147596150637
2017/07/09/09:43:55.368232,302003,1499564638,169144986,,0.893041581631,-0.040759183355,0.133876792615,0.684798579842,0.710531248876,0.109039396544,0.119610448618,0.00500197151505,0.000579552594768,0.00769729248666,0.00154278151958,-0.0149912205499,0.00906111760728,2.8226416111,-1.50071942806,0.743208229542,0.395168840885,1.51915848255,0.144869312644
2017/07/09/09:43:55.378206,302004,1499564638,179147169,,0.893156228514,-0.0405036310842,0.134007929191,0.684421083193,0.710897284071,0.109002014674,0.119630235217,-0.0060200800441,-0.0115709929382,-0.00396296868795,0.00636832937261,0.00408948035289,-0.0182324592609,3.38078951836,-1.3575206995,0.98041510582,0.395607501268,1.61839008331,0.164003819227
2017/07/09/09:43:55.388181,302005,1499564638,189142364,,0.893021922275,-0.0405205682541,0.134094566559,0.684603119521,0.710765614369,0.108927281883,0.119438927632,0.00672921032464,0.0142440819163,0.00329384950858,0.00735309393431,-0.00656601009065,0.020593737522,3.62157654762,-1.26329934597,1.39076328278,0.348414957523,1.76552081108,0.120272696018
2017/07/09/09:43:55.398119,302006,1499564638,199144064,,0.892815926775,-0.0408537298342,0.134075801293,0.684763854457,0.710621552925,0.108744332475,0.119541383223,-0.0104487729302,-0.010163273913,0.00877372710642,-0.0226582206732,0.0167189576438,0.00505398086773,3.61199331284,-1.00891554356,0.963632881641,0.353079169989,1.68302607536,0.13979203999
2017/07/09/09:43:55.408828,302007,1499564638,209143993,,0.892827574012,-0.0409775607516,0.133806853194,0.684882633858,0.710513168443,0.108652098453,0.119589032988,-0.0137242548396,-0.0143292533572,-0.0139423824342,-0.0287706847024,0.0346175246309,-0.00616370778206,3.64752030373,-1.27702558041,1.00840640068,0.347937107086,1.73040926456,0.118303023279
2017/07/09/09:43:55.418230,302008,1499564638,219148668,,0.892806193259,-0.0413355437969,0.134180580835,0.684823109689,0.710553904092,0.10848846521,0.119836182896,0.000267445884884,-0.0323898108517,0.0116330067359,-0.0385559139057,-0.0195034751366,-0.0281575255368,3.70898509026,-1.28029108047,1.13340187073,0.378130733967,1.68909287453,0.155862480402
2017/07/09/09:43:55.428376,302009,1499564638,229149896,,0.892620393037,-0.0414963117068,0.13418475102,0.684864822802,0.710547806524,0.108381060992,0.119731093498,-0.00750222906391,-0.00784116459863,0.0116715347982,-0.0328649202943,0.0168092764492,0.0221769550365,2.44013333321,0.57231760025,1.660400033,-0.782677292824,1.51309776306,-0.415736794472
2017/07/09/09:43:55.438335,302010,1499564638,239149345,,0.892475061076,-0.0412655804665,0.134275957228,0.684865435286,0.710580238974,0.10842667315,0.119493581751,-0.0131352909199,0.00846802373064,-0.00989863189873,-0.0195107367874,0.0509062462081,0.0246986977759,1.78700721264,0.652398049831,1.53051006794,-0.792687416077,1.23784005642,-0.399335682392
2017/07/09/09:43:55.448191,302011,1499564638,249143753,,0.892408748982,-0.040797111017,0.13390212084,0.684571221262,0.710963147435,0.108025741767,0.119264769003,-0.00320801988609,-0.00738314482664,-0.007245816243,-0.0148348406236,0.0132019155968,-0.000415553398034,2.03300237656,-0.432552814484,1.21464848518,-0.208711653948,1.18099212646,-0.119612157345
2017/07/09/09:43:55.458511,302012,1499564638,259150252,,0.892550482947,-0.0410182276824,0.134130639358,0.684528256569,0.71091361982,0.108276995627,0.119578356448,-0.00542945794581,-0.0120543201571,-0.00605338098093,-0.00839417467311,0.0048704828983,-0.00554114460449,1.18138718605,-0.693136334419,0.961075663567,-0.0367486327887,0.829515099525,-0.0578356273472
2017/07/09/09:43:55.468133,302013,1499564638,269150137,,0.89254027355,-0.0417597444013,0.134160694713,0.684661930641,0.710764554593,0.108031348938,0.119920875213,-0.00145196100383,-0.00589039093014,-0.0031466956825,-0.0129634918436,-0.00717938446954,0.0221889406361,1.2114443779,-0.891849637032,0.854300379753,-0.0034407377243,0.904655873775,-0.0518456064165
2017/07/09/09:43:55.478271,302014,1499564638,279153282,,0.892332164259,-0.0415168709015,0.133938738665,0.684572572286,0.710886316492,0.108083492065,0.11966201169,0.00411362564163,-0.01025199028,-0.00462561539657,-0.0104304128321,-0.0223766897937,-0.0147509710462,3.14838886261,-1.63718020916,1.23457360268,0.31232342124,1.73058319092,0.0492559894919
2017/07/09/09:43:55.488162,302015,1499564638,289145326,,0.892279704457,-0.0420117768656,0.133546319048,0.684874520273,0.710598921007,0.108002777845,0.119714096591,-0.00427282312151,-0.00582332321268,-0.0187007203545,-0.00709856896537,0.00702033977814,0.00677614234386,3.46599292755,-1.84370052814,1.46953356266,0.431916326284,1.90535151958,0.114853940904
2017/07/09/09:43:55.498191,302016,1499564638,299149672,,0.89252910524,-0.041739548984,0.133590780205,0.684723751719,0.710703013916,0.108108954117,0.119862687615,-0.00243456256348,-0.0170905031181,-0.00659568127034,-0.00811558657418,-0.00644571545691,-0.0254188261188,3.09705495834,-1.59048259258,1.37646126747,0.320416629314,1.76104664803,0.0667331963778
2017/07/09/09:43:55.508476,302017,1499564638,309152557,,0.892268560117,-0.0419616264311,0.133343806477,0.685008355204,0.71044746522,0.108193707865,0.11967486804,-0.00179012744344,0.00596936312331,-0.0159212563193,0.030111564558,0.00165125185882,-0.0173286827623,2.26734948158,-0.968869268894,1.23149597645,0.0773770362139,1.45268332958,-0.0155243650079
2017/07/09/09:43:55.518110,302018,1499564638,319149329,,0.892092072661,-0.0417319867931,0.133008250778,0.684950409232,0.710570576343,0.108215118688,0.119255528238,-0.00483490547972,-0.0100045065585,-0.0143107522731,0.0145851280664,0.00235098395276,-0.0179607964964,1.81973767281,-0.832694292068,1.29096961021,0.0221144948155,1.28411650658,-0.0164819248021
2017/07/09/09:43:55.528236,302019,1499564638,329144264,,0.892164162498,-0.0424643745318,0.133208151284,0.684885719791,0.710573811215,0.107995967613,0.119805177772,-0.0124980454752,-0.0109970003185,-0.0204006155237,0.011515665438,0.018564425514,-0.0203099325537,2.59947371483,-1.0288516283,1.63337945938,0.0766360834241,1.67038464546,-0.0258586630225
2017/07/09/09:43:55.538108,302020,1499564638,339158968,,0.891925065191,-0.0412174489537,0.132361939945,0.685148376741,0.710444917891,0.108563068144,0.118548642874,-0.0247680666617,-0.0217099050041,-0.0308549350367,0.0132478654864,0.0480570572926,-0.0256279645011,2.21082448959,-0.675316035748,1.55891442299,-0.160762026906,1.49935126305,-0.0987887829542
2017/07/09/09:43:55.547984,302021,1499564638,349167844,,0.891491857223,-0.0418606555957,0.132571431083,0.685023777944,0.710659571992,0.107883912119,0.118602099028,-0.0255326873625,0.00466934631453,-0.0294024290506,0.0412474788701,0.0606746270961,0.00668685494262,-0.333689391613,0.124262139201,1.27937328815,-0.322469055653,0.397110849619,-0.10995593667
2017/07/09/09:43:55.558413,302022,1499564638,359149977,,0.891255072511,-0.0418427831064,0.132436519771,0.685227577281,0.710494723494,0.107816510874,0.118473689921,-0.0417610884748,0.00633991379414,-0.0343456470789,0.0236050016343,0.0993023497694,0.0162395094427,-0.843141794205,0.416900098324,1.27971601486,-0.403454035521,0.196940809488,-0.10367809236
2017/07/09/09:43:55.568510,302023,1499564638,369149661,,0.890984072012,-0.0412496370679,0.131672799933,0.68539541503,0.710422674418,0.108005616433,0.117760500793,-0.0343971135833,0.00424852560772,-0.0384932740492,0.0185777222921,0.0771505125974,0.00137984170698,0.685230374336,-0.421155750751,1.49411141872,-0.117803178728,0.792862415314,-0.037469048053
2017/07/09/09:43:55.578272,302024,1499564638,379150067,,0.890695919711,-0.042061514226,0.131658806888,0.685238748373,0.71063305185,0.107295437326,0.118051736435,-0.0380971575367,0.00420567392433,-0.0385936806801,0.0206753448673,0.0805863718342,0.00159868051351,3.27629876137,-1.19775950909,1.97880649567,0.145818054676,1.7932420969,0.0314057469368
2017/07/09/09:43:55.588281,302025,1499564638,389142644,,0.889567918442,-0.0419454294954,0.13038013806,0.685528288552,0.710673461767,0.10660311173,0.116747474935,-0.0333464407983,0.00320805721246,-0.0277565661549,0.0306539296883,0.0698488222344,0.00591174738383,5.00981616974,-1.84345650673,2.14669036865,0.336428493261,2.34601068497,0.0926875993609
2017/07/09/09:43:55.598399,302026,1499564638,399147953,,0.889816722343,-0.0413896894384,0.13064596253,0.685169045345,0.710976024551,0.107031666006,0.11662201459,-0.0512953577797,0.000650733862334,-0.0369431323264,0.0315934017389,0.121229292714,-0.0105383652627,4.2231631279,-1.44307100773,1.93409526348,0.174760743976,1.91161644459,0.0461664572358
2017/07/09/09:43:55.608590,302027,1499564638,409147096,,0.889263289199,-0.0414985207348,0.130275014346,0.685624112127,0.710632030822,0.107114426662,0.115966345296,-0.0318997316657,0.00315360996385,-0.0203684088117,0.0419349479405,0.0764058646693,-3.77860540942e-05,1.61806225777,-0.395926177502,1.50773990154,-0.248105898499,0.806719303131,-0.0734558776021
2017/07/09/09:43:55.618476,302028,1499564638,419150384,,0.889142130529,-0.0418314570778,0.13010640279,0.685492009704,0.710789533504,0.106638792201,0.1162201002,-0.030389505849,0.0156420350275,-0.0234078859737,0.0477846574867,0.0772590748536,-0.00203333237461,0.48239928484,-0.0755597800016,1.43242120743,-0.370219826698,0.424183607101,-0.120426632464
2017/07/09/09:43:55.628196,302029,1499564638,429154343,,0.888967144249,-0.041597753984,0.129992798716,0.685367130987,0.71096816752,0.106394962244,0.11608734877,-0.0175980768058,-0.0191976511302,-0.0130963302812,-0.0334405978312,0.0318694317363,-0.00612283905513,2.01880407333,-0.679905653,1.76343417168,-0.122035995126,1.16699576378,-0.0524172410369
2017/07/09/09:43:55.637860,302030,1499564638,439145189,,0.889349217923,-0.0422880186191,0.130291561197,0.68558107852,0.710613129612,0.106552330784,0.116851040228,-0.0153481609368,-0.0210414715118,-0.0348531098716,-0.0525011625354,0.03125145546,0.0213751848863,3.59523248672,-1.38939857483,1.96356225014,0.20007674396,1.82646918297,0.0540643595159
2017/07/09/09:43:55.648159,302031,1499564638,449150572,,0.888841057078,-0.0422712626627,0.129833358359,0.685500009058,0.710825605642,0.10614563995,0.116403604171,-0.00544354484096,-0.0297113958281,-0.0115530683086,-0.054929336357,-0.00431239772752,-0.00688080792458,5.58143234253,-2.10967588425,2.15100979805,0.484432667494,2.61833763123,0.146943688393
2017/07/09/09:43:55.658417,302032,1499564638,459150938,,0.888834691308,-0.0419409844572,0.129754598244,0.685126691635,0.711209459007,0.1060517375,0.116342386091,0.00125168518619,0.0151295899601,-0.00804313399744,-0.00653577247277,0.00688235344029,0.0178470267645,3.4101190567,-1.42310059071,1.893835783,0.250558167696,1.68978047371,0.106900550425
2017/07/09/09:43:55.668190,302033,1499564638,469145238,,0.888358724667,-0.0416794519143,0.129259181982,0.685274330974,0.71124090939,0.105647769684,0.115646049995,-0.0216347541009,0.0116487052711,-0.0145035325797,0.0170718786822,0.0593159254919,0.00418083278579,2.92506170273,-1.12451982498,1.61498761177,0.0351720042527,1.4710007906,-0.00833559874445
