time,.header.seq,.header.stamp.secs,.header.stamp.nsecs,.header.frame_id,.pose.position.x,.pose.position.y,.pose.position.z,.pose.orientation.x,.pose.orientation.y,.pose.orientation.z,.pose.orientation.w,.twist.linear.x,.twist.linear.y,.twist.linear.z,.twist.angular.x,.twist.angular.y,.twist.angular.z,.wrench.force.x,.wrench.force.y,.wrench.force.z,.wrench.torque.x,.wrench.torque.y,.wrench.torque.z
2017/07/09/09:43:01.138657,296580,1499564583,939581932,,0.775043880479,0.593723508696,0.246786960875,0.578588617021,0.806441612202,0.0803815180621,0.0917929731386,0.0571146225098,-0.228468293089,-0.0360503680782,-0.0666631993804,0.0730896664159,-0.272310962324,3.13532710075,2.95935893059,0.244383469224,-1.0626834631,1.3484351635,-0.290943473577
2017/07/09/09:43:01.148858,296581,1499564583,949575912,,0.775834653211,0.591963269584,0.246634614168,0.57997015736,0.805461308509,0.0803709521299,0.0916908235297,0.0661006619129,-0.239812353778,-0.0297693354311,-0.0784637610507,0.0617174784551,-0.270740370505,2.58121609688,2.58970284462,0.00518713891506,-0.939881503582,1.12816858292,-0.296029269695
2017/07/09/09:43:01.158688,296582,1499564583,959576295,,0.776485876922,0.58906690023,0.245790687125,0.581505511561,0.804450563334,0.0794779422792,0.0916181634126,0.0653719100046,-0.238287692026,-0.0454627916571,-0.0775422644709,0.0723088333975,-0.285769860429,2.89636421204,2.09936714172,-0.144774064422,-0.716855943203,1.22013819218,-0.205025270581
2017/07/09/09:43:01.168784,296583,1499564583,969577907,,0.777423135645,0.586535283631,0.24535382837,0.582264938548,0.803953406343,0.0789274381056,0.0916347165696,0.0720784709932,-0.266644694046,-0.0599552916799,-0.0604128062515,0.112649001936,-0.335033904542,2.90507602692,1.25129747391,-0.0608130730689,-0.294991672039,1.31823611259,-0.0577203482389
2017/07/09/09:43:01.178908,296584,1499564583,979581510,,0.777286378909,0.584535768974,0.244718704562,0.583942500721,0.802928547934,0.0780772331631,0.0906688944823,0.0693476114623,-0.249143949047,-0.046364528743,-0.0344003572742,0.097943919153,-0.296348061627,2.83998775482,0.629954278469,0.115074239671,-0.00543544627726,1.31564950943,0.0607187002897
2017/07/09/09:43:01.188794,296585,1499564583,989574614,,0.778336593803,0.582433529403,0.24498594711,0.584763842629,0.802274610841,0.0782265742285,0.0910346101121,0.075020309341,-0.258691486861,-0.0358560287848,-0.00757075943844,0.0891996864057,-0.360127536083,2.52300715446,0.402404338121,-0.0724578946829,0.0227843690664,1.16466665268,0.0278768390417
2017/07/09/09:43:01.198557,296586,1499564583,999590124,,0.778486619078,0.580583287855,0.244064063142,0.586319771589,0.801313985561,0.0776429465218,0.0899810804792,0.0757494144524,-0.243021960486,-0.0307076514964,0.0236954853618,0.08276992314,-0.353955750466,2.66238021851,1.08216691017,-0.0296451654285,-0.314566791058,1.17101955414,-0.0840711444616
2017/07/09/09:43:01.208714,296587,1499564584,9574922,,0.779432124449,0.577910172022,0.243710885157,0.587892074658,0.800223922897,0.0774848681375,0.0895582323811,0.0611687283149,-0.210425185302,-0.0321631943352,0.0770685480397,0.104205608045,-0.319704084542,2.49716496468,1.63038551807,0.0603003315628,-0.591340601444,1.1213850975,-0.175404936075
2017/07/09/09:43:01.218737,296588,1499564584,19588817,,0.780799497133,0.574977033405,0.243883860478,0.589514283399,0.798972861396,0.0774313741615,0.0901091489069,0.0804972208618,-0.248766418495,-0.0376383492102,0.0533783337749,0.0899004137747,-0.376336729124,2.85679244995,2.35254883766,0.063997015357,-0.992560625076,1.23166358471,-0.317813724279
2017/07/09/09:43:01.228780,296589,1499564584,29578812,,0.781647814536,0.572025381344,0.243167662626,0.591254679484,0.797793288003,0.0766860267286,0.0897943590111,0.0778764476977,-0.241824814166,-0.0404042276868,0.0503028575949,0.0872206944316,-0.368404741241,2.96779537201,2.57734203339,0.2157574296,-1.11678051949,1.28380358219,-0.321363061666
2017/07/09/09:43:01.238684,296590,1499564584,39581919,,0.782307557647,0.569473487758,0.242488804746,0.592744084352,0.796782485009,0.0760441022465,0.0894953437994,0.0879071995668,-0.265951201334,-0.0391556789375,-0.000136032034617,0.0655666055827,-0.369706155584,2.47163391113,2.29696846008,0.291562974453,-0.977703273296,1.12842190266,-0.291432231665
2017/07/09/09:43:01.248786,296591,1499564584,49574935,,0.78291528514,0.566761315242,0.242274118071,0.593276208966,0.796434643895,0.0752226752804,0.0897593839264,0.0914318089135,-0.291141486093,-0.0322484166126,-0.0633037141471,0.0530301039,-0.366691008335,2.28330111504,1.89393770695,0.0650411620736,-0.789424479008,1.0273733139,-0.235419049859
2017/07/09/09:43:01.258857,296592,1499564584,59584533,,0.784074950244,0.564629020175,0.242513066485,0.594891596809,0.795157183484,0.0754890656759,0.0901689667416,0.0773193795739,-0.285948640566,-0.0394542248181,-0.0687592426266,0.0806432834571,-0.338441721386,2.74567198753,1.82805478573,-0.0247115977108,-0.699003815651,1.26288282871,-0.187233269215
2017/07/09/09:43:01.268483,296593,1499564584,69573018,,0.784430419457,0.56158708717,0.24160402126,0.596092755775,0.794425680263,0.074255304327,0.0897073844831,0.0723530303261,-0.263259392945,-0.0273099887811,-0.0315331923463,0.0668954833462,-0.336621703633,2.35242581367,1.7575520277,0.0344606935978,-0.661511719227,1.08304357529,-0.178559049964
2017/07/09/09:43:01.278877,296594,1499564584,79581908,,0.78532280794,0.559219080454,0.241702569529,0.597260514313,0.793534117112,0.0743665598136,0.0897390539499,0.0852583290013,-0.291507961852,-0.0262873332124,-0.024701884484,0.071133290038,-0.393760507671,2.49479675293,1.62439501286,-0.0177372973412,-0.64625620842,1.14106833935,-0.175847873092
2017/07/09/09:43:01.288807,296595,1499564584,89575341,,0.786835293199,0.555942036182,0.241763307712,0.599707987882,0.79166387279,0.074471283936,0.089848036474,0.0900878250193,-0.302782211991,-0.0266643081481,-0.0365062954715,0.0497622995781,-0.395885318237,2.45433688164,1.91579937935,0.0551868230104,-0.787779569626,1.13740992546,-0.247223392129
2017/07/09/09:43:01.298910,296596,1499564584,99591565,,0.786739212111,0.553237126018,0.2407455804,0.600797379651,0.791039119172,0.0730196803037,0.089262236321,0.0944695987152,-0.305265558116,-0.0146126303654,-0.0490836583064,0.0312559179845,-0.382742552451,2.81142449379,2.21706390381,0.123259022832,-0.897470295429,1.23923265934,-0.269434601068
2017/07/09/09:43:01.308677,296597,1499564584,109575871,,0.787948062818,0.550419954197,0.240879231511,0.602344493502,0.789817306015,0.0728925248755,0.0897575293974,0.0838819383785,-0.300302375931,-0.0340886972374,-0.0291403572116,0.0739158467616,-0.397345886958,2.97017550468,2.23823022842,-0.0838045626879,-0.897545218468,1.24802088737,-0.297753155231
2017/07/09/09:43:01.318618,296598,1499564584,119573784,,0.789102397093,0.54576090924,0.240017372416,0.604554835168,0.788222419277,0.0714663991375,0.090063437747,0.0991871027797,-0.322187338437,-0.0312299886941,-0.0377793746229,0.0631751150101,-0.425051464786,3.16606545448,2.11140799522,-0.0743825733662,-0.839439034462,1.30357968807,-0.258231252432
2017/07/09/09:43:01.328744,296599,1499564584,129572726,,0.789912585849,0.543995891431,0.240100312224,0.605804349349,0.787278224579,0.0719193993582,0.089563873351,0.0871738045446,-0.302845813862,-0.0310764601957,-0.0365653245357,0.0668866096008,-0.387673321048,2.87128639221,2.09259819984,-0.169859871268,-0.808994710445,1.17397201061,-0.269841313362
2017/07/09/09:43:01.338795,296600,1499564584,139588680,,0.791036002203,0.540959282398,0.239819953571,0.607436128644,0.786042432931,0.0715219100825,0.0896842217331,0.0915235529395,-0.309966869066,-0.0236873853295,-0.0303178391805,0.0551906594343,-0.413444244322,2.7447347641,1.80516040325,-0.148315265775,-0.687996864319,1.14386034012,-0.23277977109
2017/07/09/09:43:01.349033,296601,1499564584,149577841,,0.792034170595,0.538596809248,0.240230157672,0.608801882836,0.784946767612,0.0718136701359,0.0897866151116,0.0933819368218,-0.298183112466,-0.0163977175666,0.00918610796369,0.0469260338087,-0.419172937214,3.23037600517,1.96235871315,0.0960945039988,-0.775662541389,1.35745453835,-0.255163609982
2017/07/09/09:43:01.358626,296602,1499564584,159572727,,0.793066864637,0.5350626782,0.239895259705,0.610497267481,0.783660203757,0.0711364191534,0.0900521033395,0.0990556586256,-0.275688435876,-0.0145345811175,0.0143483235568,0.0187396345912,-0.375151638427,3.50822257996,1.84963476658,0.339392691851,-0.726858198643,1.50365555286,-0.222516268492
2017/07/09/09:43:01.368573,296603,1499564584,169576328,,0.794371232447,0.531653295751,0.239481380013,0.612447670568,0.782171507229,0.070735853019,0.0900667707467,0.109845620422,-0.316206312555,-0.0186725567477,-0.0215438004779,0.0207595105415,-0.395386718181,3.40487456322,1.66877317429,0.316040307283,-0.660979747772,1.44802045822,-0.20583768189
2017/07/09/09:43:01.378693,296604,1499564584,179597047,,0.794876812812,0.529957162782,0.239629893193,0.613609560225,0.781280881263,0.0708958441543,0.0897623053061,0.114125076451,-0.327249884152,-0.00673221307576,-0.0126639028975,0.0151977706785,-0.435132902436,3.29605650902,1.69520449638,0.216096788645,-0.681881427765,1.38116061687,-0.233021736145
2017/07/09/09:43:01.388825,296605,1499564584,189573643,,0.79575728121,0.526546883415,0.239837113242,0.614974243247,0.780239006689,0.070222056044,0.0900146400766,0.103370403429,-0.308051600485,0.0103215295962,-0.0183864475049,0.00275164390265,-0.407165737698,2.8237657547,1.88871121407,0.0851551443338,-0.81395727396,1.13137543201,-0.284487128258
2017/07/09/09:43:01.398943,296606,1499564584,199580914,,0.79711904829,0.523112129575,0.239623797473,0.616424936721,0.779081995355,0.069935328995,0.0903359931633,0.0990255242835,-0.309496516705,-0.0147383403392,0.00345196403976,0.0365837120929,-0.428059094547,3.10551166534,1.96946036816,0.179126381874,-0.824316620827,1.24396955967,-0.293224394321
2017/07/09/09:43:01.408594,296607,1499564584,209578060,,0.797746042576,0.521181278262,0.240022689528,0.617536160356,0.778191214075,0.0701481591255,0.0902594081564,0.119126378618,-0.34773358359,-0.00156484576274,-0.0156142804562,0.00809817465511,-0.481148594537,3.33210253716,2.02172923088,0.11159402132,-0.816306650639,1.31868159771,-0.268342405558
2017/07/09/09:43:01.418766,296608,1499564584,219583998,,0.799219439998,0.516601688891,0.239325122874,0.619996667404,0.776288543844,0.0691750322686,0.0905264823951,0.0972658081029,-0.326761263236,-0.00613641100489,-0.023259276249,0.036378047814,-0.432544368457,2.91262412071,1.79777753353,-0.0900338739157,-0.749143362045,1.09873044491,-0.284549742937
2017/07/09/09:43:01.428489,296609,1499564584,229576485,,0.799801036885,0.514396191615,0.239165657018,0.621384957992,0.775218316641,0.0690293780401,0.090289758518,0.114428700196,-0.339984781869,-0.0075260959225,-0.0301992935584,0.0100178433419,-0.436091175442,2.54973936081,1.48031032085,-0.0465531498194,-0.631812334061,0.96986246109,-0.260355949402
2017/07/09/09:43:01.438536,296610,1499564584,239583400,,0.801957851908,0.510145291414,0.239732336414,0.623694277358,0.773231758874,0.0692505252361,0.0912275189528,0.116029203529,-0.333962001503,-0.00121027185753,0.0112048700831,-0.00417847691958,-0.467593483886,2.30924272537,1.25971221924,-0.171108514071,-0.469822078943,0.880595564842,-0.189202487469
2017/07/09/09:43:01.448662,296611,1499564584,249577394,,0.80288244649,0.507009810704,0.240027310817,0.625232654759,0.772006497212,0.0693501512374,0.0909980890379,0.116874233545,-0.345803851115,-0.00139708666289,0.0332866191031,0.00819753362069,-0.503804033439,2.43489718437,1.32145237923,-0.103804752231,-0.532315254211,0.954207777977,-0.223274797201
2017/07/09/09:43:01.458719,296612,1499564584,259580466,,0.803966107097,0.503622181213,0.239441042816,0.626891510912,0.770664715671,0.0686786651083,0.0914667727912,0.115348910437,-0.343160078321,-0.00761494352596,0.00617919828272,0.000364378520558,-0.475292086428,2.46335601807,1.41855943203,-0.0290704108775,-0.632039546967,0.964844346046,-0.235405400395
2017/07/09/09:43:01.469016,296613,1499564584,269577939,,0.804615863776,0.50100717849,0.239246777035,0.628415027149,0.769473458342,0.0684970099672,0.0911773556692,0.117722086118,-0.318918933528,0.00754731653781,-0.00367489227858,-0.0384390448146,-0.41387062734,2.61098241806,1.49064326286,0.0658483058214,-0.634160935879,1.05543231964,-0.266468703747
2017/07/09/09:43:01.478939,296614,1499564584,279575635,,0.805590734837,0.497612668381,0.239283950758,0.629800180069,0.768357732484,0.0681497288613,0.0912893343929,0.108311641657,-0.335991308816,-0.00368330128757,-0.0180258832286,-0.00327838556241,-0.435987750345,2.28563022614,1.54815840721,0.0196304395795,-0.660715937614,0.916702628136,-0.271926522255
2017/07/09/09:43:01.488631,296615,1499564584,289572930,,0.806592905715,0.494186613599,0.239514718328,0.632128751442,0.766435555427,0.0679213919006,0.0915230326156,0.0925362405167,-0.312233976257,-0.00952811278426,0.0234841950305,0.0333552327108,-0.418968266732,2.28672742844,1.28299832344,-0.0610052905977,-0.525165200233,0.896322250366,-0.198798939586
2017/07/09/09:43:01.498777,296616,1499564584,299581043,,0.807775042103,0.490686226402,0.239390900642,0.633915909132,0.764969354397,0.0677153756967,0.0915813020041,0.0891267533883,-0.333807411872,-0.00742014580009,0.00302308818025,0.0381342833092,-0.4646554718,2.27514672279,1.16346144676,0.0628497302532,-0.517546117306,0.874383330345,-0.230353176594
2017/07/09/09:43:01.508817,296617,1499564584,309577075,,0.808308173617,0.487409147881,0.239030818093,0.635364680583,0.76383977821,0.0670024769584,0.0914941745356,0.103033843039,-0.352490263682,-0.000724441473202,-0.0215415629775,0.00688065130642,-0.482817406675,2.78799080849,1.48779642582,0.253367424011,-0.651796758175,1.07059979439,-0.267366409302
2017/07/09/09:43:01.518643,296618,1499564584,319611471,,0.809325545675,0.484141049034,0.239057021521,0.636941051569,0.762511345828,0.0667329540704,0.0918109859992,0.083690110343,-0.342617126144,-0.00434607495111,-0.0103659869933,0.0375834269209,-0.457267584371,2.74302244186,1.35281467438,0.192427769303,-0.524065971375,1.05679833889,-0.215989142656
2017/07/09/09:43:01.528699,296619,1499564584,329576977,,0.810573727479,0.480871821141,0.239195481284,0.638831950403,0.760896568332,0.0668785604881,0.0919641755855,0.104440686582,-0.351608391537,0.011630110426,-0.00511599220109,-0.0167037321131,-0.445688141226,2.89962053299,1.27882671356,0.0743046104908,-0.516715764999,1.06608116627,-0.236314445734
2017/07/09/09:43:01.538741,296620,1499564584,339577213,,0.811726592075,0.477684840806,0.239564612947,0.640510026706,0.759441878813,0.0672035565384,0.0920794243209,0.0955474309069,-0.361018916278,-0.00421368308427,-0.0189648528444,0.0148952701826,-0.467553832624,2.75285339355,1.21263694763,0.0620818324387,-0.509480059147,1.0272796154,-0.241978853941
2017/07/09/09:43:01.548807,296621,1499564584,349575541,,0.81243749375,0.474642584137,0.239508832194,0.641837122594,0.758354366892,0.0668207807783,0.0920801038919,0.101229474644,-0.347391886626,0.000833446236624,-0.00909211902588,-0.00832162375131,-0.474864830739,2.996073246,1.34878921509,0.15672403574,-0.50541228056,1.16071498394,-0.228380843997
2017/07/09/09:43:01.558726,296622,1499564584,359571335,,0.813526676553,0.471194284835,0.239840920654,0.643684480735,0.756734758457,0.0667122606948,0.0925865480342,0.0967938095838,-0.361532663883,-0.0100821048416,-0.00916791814356,0.0161945522657,-0.471004376655,2.93599867821,1.21585392952,0.0131419189274,-0.47889059782,1.09392416477,-0.210802733898
2017/07/09/09:43:01.568809,296623,1499564584,369574205,,0.814479861271,0.466931191314,0.239136725512,0.645580307779,0.755163084111,0.0657184690659,0.092929357184,0.0881022570754,-0.372683229774,-0.0181889513499,-0.0205118004177,0.0352294143239,-0.474531036248,2.99979162216,1.21519672871,0.0639459118247,-0.447342216969,1.15470600128,-0.202302530408
2017/07/09/09:43:01.578997,296624,1499564584,379580998,,0.815137635272,0.464423255197,0.238627507638,0.647195144353,0.75385772442,0.0658098617392,0.0922281874228,0.0839869458828,-0.356484955673,-0.00589624530573,-0.0113666984667,0.0225291378494,-0.471622109865,2.22813916206,1.05758428574,-0.0328841246665,-0.394698917866,0.799739539623,-0.172261536121
2017/07/09/09:43:01.588741,296625,1499564584,389575963,,0.81602011245,0.460891861487,0.239019814216,0.648975630863,0.752321373093,0.0655655839749,0.0924355793625,0.0892257337634,-0.353758343181,-0.0063818998608,0.00296284098195,0.0185220867013,-0.47469816082,2.33873128891,1.32472550869,-0.000686090439558,-0.52904689312,0.846989929676,-0.246412664652
2017/07/09/09:43:01.598650,296626,1499564584,399581219,,0.817010105522,0.456881876322,0.239022026007,0.650573140091,0.750909290368,0.0651413051059,0.0929862215598,0.0945244624132,-0.369720897236,-0.0012326298113,-0.00679564977119,0.00754707090114,-0.486552123307,2.89130854607,1.38831269741,0.0559477508068,-0.56582224369,1.03882884979,-0.269372224808
2017/07/09/09:43:01.608540,296627,1499564584,409608790,,0.817624156834,0.453472064736,0.239086569226,0.652611160227,0.749173596245,0.0648580680549,0.0929033220315,0.0889607974748,-0.363578502528,0.00255907297554,-0.00653734939389,0.00696596627855,-0.458170984959,2.61789798737,1.30762374401,0.141896545887,-0.53490036726,0.961406767368,-0.245038181543
2017/07/09/09:43:01.618673,296628,1499564584,419580969,,0.818845067544,0.449997527203,0.238893089366,0.654509121925,0.747505188982,0.0648629747173,0.0929870758347,0.0849846648122,-0.367391542197,-0.0176583155543,-0.0018080266996,0.0269275401069,-0.505156765781,2.78263640404,1.35191893578,0.266533136368,-0.563610494137,1.0225661993,-0.28944849968
2017/07/09/09:43:01.628495,296629,1499564584,429579566,,0.819193167092,0.445761023459,0.238727517116,0.656494499466,0.745854932358,0.0638514015716,0.0929429425305,0.0979724414337,-0.391337917156,-0.00366733202803,-0.00569383875986,-0.00303123296544,-0.519331743947,2.75980997086,1.35369300842,0.425158441067,-0.555111169815,1.05021882057,-0.270538181067
2017/07/09/09:43:01.638481,296630,1499564584,439579342,,0.820628367457,0.441831643966,0.238261574613,0.658200125788,0.744312706024,0.063822991829,0.093262081138,0.0840601611022,-0.372151075497,-0.00961895377422,0.0119686870471,0.0195063339602,-0.498726720908,2.32168126106,1.00917077065,0.452668756247,-0.437587797642,0.88091814518,-0.239761546254
2017/07/09/09:43:01.648553,296631,1499564584,449576579,,0.820968363577,0.43824308248,0.237755423911,0.659625147631,0.743148653719,0.062862201273,0.0931294085654,0.0948048674364,-0.389295085554,-0.0112695896167,-0.00698346403918,0.00267218060198,-0.510453277995,2.05685091019,0.960017681122,0.518527746201,-0.400000691414,0.79983907938,-0.234755337238
2017/07/09/09:43:01.658835,296632,1499564584,459579336,,0.82234577665,0.434154162805,0.238707771518,0.662212959537,0.740744716865,0.0635660152694,0.0934377994207,0.0917942173208,-0.399949387335,-0.00983188727941,-0.0147845532436,0.00631591383198,-0.521336078509,2.14374780655,1.13943374157,0.479857116938,-0.497533023357,0.811888277531,-0.280824244022
2017/07/09/09:43:01.668783,296633,1499564584,469607908,,0.822662438973,0.431164291043,0.237400848217,0.663340384963,0.739852742245,0.0626347558908,0.0931361413468,0.0737409150885,-0.390232946499,-0.019042220332,0.00512622743383,0.048991758984,-0.525264484816,1.66342401505,0.925405800343,0.634630799294,-0.389823973179,0.650007486343,-0.219174265862
2017/07/09/09:43:01.678566,296634,1499564584,479579203,,0.823522456668,0.427232091793,0.237397570881,0.665497465817,0.737925525949,0.0624946265559,0.0931314275413,0.075845663136,-0.396561992261,-0.0210301277797,-0.000420918604632,0.0436682877333,-0.501624264259,1.84135246277,0.830982327461,0.827975690365,-0.342210561037,0.759264409542,-0.211904495955
2017/07/09/09:43:01.688726,296635,1499564584,489576772,,0.823948122032,0.423504920398,0.237325377171,0.666712952593,0.736860284169,0.0617891600845,0.0933427027429,0.0830632971171,-0.394547910673,-0.0246408486032,-0.0137239017856,0.0226133431017,-0.505783655377,2.14860105515,0.904784142971,0.958716511726,-0.396203398705,0.87844979763,-0.259974777699
2017/07/09/09:43:01.698725,296636,1499564584,499607956,,0.825257663618,0.419572190767,0.237686625986,0.668948710313,0.73474995029,0.0620051313615,0.0938376108161,0.0788761015748,-0.36923995623,-0.0121538450577,0.0175529199121,0.0040528708191,-0.49031032592,2.34589147568,0.943973839283,1.21042823792,-0.369988501072,1.0324267149,-0.23063506186
2017/07/09/09:43:01.708805,296637,1499564584,509575817,,0.826019209306,0.415551593089,0.237269116546,0.67085750206,0.733030898724,0.0615575689011,0.0939498757682,0.0803188501922,-0.376560935541,-0.0066370718085,0.0243396271909,-0.00611910744375,-0.505503582883,1.84595310688,0.946751058102,1.37104463577,-0.423321276903,0.876872837543,-0.283269226551
2017/07/09/09:43:01.718627,296638,1499564584,519580718,,0.826582551977,0.412576829359,0.237267134875,0.672640819749,0.731425484205,0.0616277132626,0.0936649006831,0.0806689660437,-0.392208307198,-0.00804226833195,0.007634742692,-0.00117521631858,-0.505683578574,1.53508985043,0.728869080544,1.46733605862,-0.372918426991,0.781545937061,-0.247095227242
2017/07/09/09:43:01.728450,296639,1499564584,529575092,,0.827708427168,0.409062330891,0.237959344084,0.674347143023,0.729751523454,0.0618758592852,0.0942869171814,0.0789430667045,-0.39714971327,-0.00194454185772,0.00019532711595,0.00111298717919,-0.527974995554,1.09058082104,0.779286503792,1.29168689251,-0.428953617811,0.599056303501,-0.307904183865
2017/07/09/09:43:01.738582,296640,1499564584,539581222,,0.828262836609,0.404439958281,0.237052757641,0.676268225879,0.728073309021,0.0611293365622,0.093988018223,0.0797416539554,-0.417261319669,-0.0103358938929,-0.0198338040959,0.00341782803344,-0.536485338138,0.854511678219,0.772059381008,1.24255263805,-0.408624976873,0.540057182312,-0.282281458378
2017/07/09/09:43:01.748398,296641,1499564584,549574110,,0.82890545028,0.399813142805,0.236988015444,0.678043745985,0.726405733135,0.0603434757274,0.0946047268129,0.0672552896963,-0.420272916787,-0.00396757202948,-0.0190570096213,0.0100842544516,-0.527993274413,0.394199222326,0.593009054661,1.110273242,-0.329729169607,0.34667044878,-0.229839920998
2017/07/09/09:43:01.758679,296642,1499564584,559581283,,0.829383225123,0.39667560342,0.236612191606,0.679926292476,0.724693569806,0.0602846385749,0.0942614928443,0.0631645846484,-0.397048980942,-0.0101295668197,0.00237266007685,0.015790836225,-0.5120575296,0.476647853851,0.640534162521,1.24633133411,-0.350186407566,0.414879441261,-0.259907871485
2017/07/09/09:43:01.768565,296643,1499564584,569573733,,0.830112162561,0.392687491173,0.2366607002,0.681870273598,0.7228533896,0.0600525393115,0.0944965589292,0.0672604701999,-0.426974301736,-0.0131948214225,-0.0208774732222,0.0155441266873,-0.539914509076,1.42792773247,0.720630168915,1.4884967804,-0.380213439465,0.804798662663,-0.276268482208
2017/07/09/09:43:01.778760,296644,1499564584,579576322,,0.830663475988,0.389074906433,0.237569526937,0.683663461413,0.721096928717,0.0601490744762,0.0948977331884,0.0645621075594,-0.425164036452,-0.0195107388228,0.00347999838672,0.0197188789072,-0.563019271617,1.21633481979,0.808713018894,1.35199427605,-0.428165763617,0.716649472713,-0.313281863928
2017/07/09/09:43:01.788739,296645,1499564584,589582646,,0.83148944347,0.383979028747,0.236516982479,0.685817810737,0.719071508837,0.0592954453868,0.09525831098,0.0495688425849,-0.395941541526,-0.0144396158037,0.0103291623067,0.0360159015679,-0.506012322236,0.644989728928,0.638944625854,1.25240468979,-0.335602283478,0.49801337719,-0.270673513412
2017/07/09/09:43:01.798709,296646,1499564584,599579532,,0.831879749757,0.380234698223,0.236452667868,0.687312249599,0.717710357293,0.0590800497808,0.094885522093,0.0558031652665,-0.414099814367,-0.0019438956249,-0.0148230817442,0.00845725745768,-0.508999144175,0.0669707208872,0.529418826103,1.03593873978,-0.331144690514,0.271821498871,-0.279136776924
2017/07/09/09:43:01.808484,296647,1499564584,609579171,,0.832766977609,0.376056858652,0.237396542911,0.689226389784,0.715737019592,0.0592384763574,0.0958034724278,0.0484868664125,-0.418874046609,-0.0172805364228,-0.00487380272087,0.0251713772902,-0.539464250145,0.640449523926,0.70406961441,1.16832971573,-0.441357165575,0.573068141937,-0.325283110142
2017/07/09/09:43:01.818940,296648,1499564584,619581064,,0.832799470784,0.37243702481,0.236160600572,0.690904235034,0.714263898494,0.0584471113372,0.0951964101083,0.0554469147429,-0.432125510888,-0.0069220501806,-0.00386190945518,0.00534612535852,-0.552848397024,0.709212720394,0.837201118469,1.04172217846,-0.533306896687,0.556823253632,-0.383507698774
2017/07/09/09:43:01.828416,296649,1499564584,629574004,,0.833055381437,0.368566684274,0.236070832561,0.692567617916,0.71270144916,0.0581643942884,0.0949928534974,0.0503673156148,-0.404417377372,-0.00869457437403,0.0215615668541,0.00163050535618,-0.5341346006,0.645681977272,0.748970270157,1.16553199291,-0.4630227983,0.566428303719,-0.352511286736
2017/07/09/09:43:01.838708,296650,1499564584,639572793,,0.833507045956,0.364002677308,0.23578360048,0.694852981909,0.710508710703,0.0574663602776,0.0951542063368,0.0379036728025,-0.379805634624,-0.0232405681816,0.0447148632877,0.0356514996941,-0.484392772153,0.858713805676,0.650539875031,1.04590296745,-0.424865186214,0.605829834938,-0.341854691505
2017/07/09/09:43:01.848625,296651,1499564584,649574773,,0.833954688384,0.360618856516,0.235664690513,0.696465164762,0.70892103423,0.0576489809066,0.0950990877921,0.03628212435,-0.396337176557,-0.0259165373211,0.00333710188645,0.0351219136804,-0.484698105507,0.770137190819,0.772773861885,0.846422612667,-0.498266220093,0.529520988464,-0.351289719343
2017/07/09/09:43:01.858727,296652,1499564584,659573155,,0.834297598259,0.357008687409,0.235815540144,0.697915479692,0.707494983564,0.0576022846729,0.0951147109479,0.0442776878615,-0.441340662366,-0.0196773631704,-0.0118136490004,0.0177939050333,-0.54167185694,1.24149739742,0.892318665981,0.894564270973,-0.639664053917,0.703275799751,-0.446632504463
2017/07/09/09:43:01.868512,296653,1499564584,669573194,,0.835019501025,0.352935435218,0.235400007631,0.699626676841,0.70578319704,0.0573170051086,0.0954324512598,0.041378044344,-0.406551045148,-0.0174774700537,0.0192773290105,0.00610474514223,-0.533215105087,1.15259039402,0.716033577919,0.989540696144,-0.496639728546,0.730473875999,-0.371292203665
2017/07/09/09:43:01.878591,296654,1499564584,679574443,,0.835355506405,0.348603258945,0.23506281886,0.701806991846,0.70363238206,0.056790811736,0.095620190412,0.0445684259371,-0.390942878408,-0.0133870478715,0.0171719359328,-0.0160792037032,-0.466082962964,1.22802472115,0.718020319939,1.06594705582,-0.520277798176,0.791825890541,-0.374681651592
2017/07/09/09:43:01.888493,296655,1499564584,689575975,,0.835817784058,0.344784434514,0.235081782776,0.703374174283,0.702039531098,0.0567616373439,0.0958299757524,0.0445508946046,-0.423746240211,-0.0212245009121,-0.00076228546671,-0.00848755505515,-0.524524842159,0.847442567348,0.452158510685,0.797922492027,-0.416235178709,0.615265727043,-0.352363228798
2017/07/09/09:43:01.898507,296656,1499564584,699589131,,0.836238040146,0.340822584682,0.234848309811,0.704782547996,0.700614314266,0.0564844062126,0.0960762954117,0.0360767898392,-0.401663635347,-0.0354738410901,0.0128993067218,0.0161547886613,-0.471910920425,1.01237618923,0.510589540005,0.636267185211,-0.501081287861,0.630941390991,-0.391512006521
2017/07/09/09:43:01.908757,296657,1499564584,709576077,,0.836703559081,0.337873714738,0.234394778482,0.705918774761,0.699485907652,0.0568575575986,0.0957359210515,0.0445848195648,-0.404244609082,-0.0167528405487,0.015138258361,-0.0249282085467,-0.461503092836,0.529349207878,0.466657519341,0.673069357872,-0.451415449381,0.441699236631,-0.333334296942
2017/07/09/09:43:01.918652,296658,1499564584,719581254,,0.837093696217,0.334084064142,0.234086400661,0.707275944218,0.698061349371,0.0565276596823,0.0963105131179,0.0374556997578,-0.395895274377,-0.0248296120565,0.017944437063,-0.0140737210377,-0.429444173426,1.08572995663,0.677150130272,0.607172369957,-0.613808214664,0.630589604378,-0.410953700542
2017/07/09/09:43:01.928353,296659,1499564584,729573692,,0.837368182172,0.330860379206,0.234119387041,0.708491234943,0.696855524207,0.056971373463,0.0958478533769,0.0375416164422,-0.388896325124,-0.0356742902448,-0.00548194548245,-0.00846934227547,-0.353833685042,1.63399243355,0.766867101192,0.634281694889,-0.692918896675,0.835526108742,-0.442190051079
2017/07/09/09:43:01.938565,296660,1499564584,739578902,,0.837651799863,0.32597202912,0.233087867688,0.709683261158,0.695666559185,0.0558514250345,0.0963240654571,0.0466127106319,-0.387952752883,-0.022151784743,-0.00258654230206,-0.0408790787424,-0.3421808661,1.34819960594,0.772811770439,0.557238399982,-0.622016489506,0.684455096722,-0.385118752718
2017/07/09/09:43:01.950880,296661,1499564584,749577691,,0.838416533268,0.322099171585,0.233577045357,0.710699937447,0.694473578644,0.0562626710485,0.0971934119392,0.0473677894832,-0.40329304225,-0.0219461120391,-0.0302765401833,-0.04674792169,-0.334909364951,1.45733010769,0.635697722435,0.339370757341,-0.677699685097,0.657538056374,-0.414561748505
2017/07/09/09:43:01.958668,296662,1499564584,759585667,,0.838758739888,0.318149403622,0.233073350948,0.711750829915,0.693416865001,0.0561194278678,0.0971309284596,0.0380269895751,-0.398673882761,-0.0288727868582,-0.0243165755815,-0.0282937535452,-0.30616024426,1.19241309166,0.430431067944,0.380115449429,-0.566722869873,0.570656716824,-0.330665647984
2017/07/09/09:43:01.968872,296663,1499564584,769575593,,0.839441162185,0.313902256044,0.233359940182,0.712745834044,0.692270831536,0.0561870719351,0.0979667535643,0.0498461493136,-0.419991362856,-0.0291998690846,-0.0197268457268,-0.0525235792593,-0.329246094881,1.37072253227,0.616635918617,0.0551815405488,-0.688437521458,0.58839392662,-0.380000293255
2017/07/09/09:43:01.978836,296664,1499564584,779580982,,0.839412111138,0.311010285162,0.232258075905,0.713260667822,0.691833098341,0.055905280589,0.0974719620204,0.0464540291311,-0.395188792945,-0.0273527587309,-0.0186003802388,-0.0535644199201,-0.265127378345,1.00496578217,0.34006434679,0.00174590200186,-0.60712826252,0.465600878,-0.30193567276
2017/07/09/09:43:01.988623,296665,1499564584,789579048,,0.839740765882,0.306394108071,0.232008879218,0.714235706573,0.690766798311,0.0554800089309,0.0981353881952,0.0391049345827,-0.38742508114,-0.0320123043078,-0.0167290896345,-0.0469713190037,-0.258724573477,1.31563842297,0.389105856419,0.0748150795698,-0.598342180252,0.607458412647,-0.321303963661
2017/07/09/09:43:01.998659,296666,1499564584,799572954,,0.840171103234,0.304129829258,0.231543635904,0.714612464833,0.690357513716,0.0558550940037,0.0980598635246,0.0174642190841,-0.395373729165,-0.04813221397,-0.0621706831201,0.00665955789174,-0.203126116665,1.43500447273,0.466060310602,0.0694591253996,-0.665873289108,0.642451047897,-0.309240937233
2017/07/09/09:43:02.008998,296667,1499564584,809580570,,0.840403877503,0.300363757195,0.231522187829,0.71529225362,0.689618098021,0.0555533281259,0.098476893365,0.0275831568486,-0.373864782106,-0.0484232083652,-0.0269899650233,-0.00828961759316,-0.171802179852,2.01112699509,0.758029043674,0.0462962053716,-0.760602474213,0.849069774151,-0.36266130209
2017/07/09/09:43:02.018852,296668,1499564584,819608292,,0.840588161655,0.295324865553,0.230849667627,0.716406859087,0.688445144169,0.055048524053,0.0988643298815,0.0300725038587,-0.391044871819,-0.0303474513019,-0.0643300535948,-0.0373574395439,-0.206113039757,1.70196211338,0.448496043682,0.021058999002,-0.678930044174,0.739118337631,-0.324705183506
2017/07/09/09:43:02.028724,296669,1499564584,829572458,,0.841032007293,0.291441221488,0.230654728985,0.717053213607,0.687701577431,0.0549110525535,0.0994283941403,0.0213720956166,-0.377548424188,-0.0328150660622,-0.0389928081202,-0.0210876896376,-0.205400303674,1.53056168556,0.54561060667,0.0985650867224,-0.74331921339,0.693878948689,-0.34267449379
2017/07/09/09:43:02.038574,296670,1499564584,839581216,,0.841487829918,0.289014479668,0.23035534285,0.717248582204,0.687436247138,0.0553745200789,0.0995968873662,0.0244009980885,-0.40518934126,-0.0456396832575,-0.0636038608035,-0.0188538724857,-0.212523368223,1.46982443333,0.385133326054,0.112121000886,-0.606259763241,0.690611362457,-0.276127457619
2017/07/09/09:43:02.049051,296671,1499564584,849587742,,0.841396017329,0.284852029256,0.229621505871,0.717475506699,0.687235542778,0.0543870824237,0.0998911972892,0.0271963570293,-0.388246257479,-0.0464782385203,-0.0561072297067,-0.020677681926,-0.167515930902,1.63901877403,0.200728476048,0.200266093016,-0.532511413097,0.783062577248,-0.258748978376
2017/07/09/09:43:02.058500,296672,1499564584,859577313,,0.841680507332,0.281004910625,0.229204473817,0.71845457103,0.686194974877,0.0545557116797,0.0999157652339,0.0193976574096,-0.383638025201,-0.0497741727211,-0.0664616954535,-0.0116707062786,-0.14392436758,1.44625616074,0.252124667168,0.113979205489,-0.585616052151,0.658897340298,-0.284772127867
2017/07/09/09:43:02.069887,296673,1499564584,869575544,,0.84143478311,0.277467470333,0.22812754372,0.719085671018,0.685630057179,0.0539811590436,0.0995653398393,0.00466590583889,-0.356162973311,-0.0624131517846,-0.0530535551102,0.0204706861359,-0.120822739564,0.758285999298,0.164518535137,0.249091148376,-0.51484310627,0.422708123922,-0.237540334463
2017/07/09/09:43:02.079280,296674,1499564584,879581240,,0.841935835387,0.274202669792,0.228080246109,0.719447054345,0.685148719608,0.0539445630329,0.100285353528,0.00893986236479,-0.358342796374,-0.0408913155349,-0.0404254412559,0.00376124080781,-0.156441327852,0.993511259556,0.487528860569,0.24514490366,-0.717902481556,0.50431728363,-0.316672325134
2017/07/09/09:43:02.088776,296675,1499564584,889575787,,0.841943945631,0.27182216909,0.227946955582,0.719596638672,0.684995967308,0.054139827617,0.100150294307,0.0145694482713,-0.367163825666,-0.0438475661798,-0.0594364418945,-0.0177058616725,-0.180500455962,1.17282092571,0.322417527437,0.341575652361,-0.633903503418,0.605229198933,-0.29359793663
2017/07/09/09:43:02.098708,296676,1499564584,899576001,,0.842166363527,0.267961227963,0.227034777066,0.72018155128,0.684320388922,0.0536516694202,0.100824783011,0.0110449131204,-0.358555973675,-0.0433621722709,-0.0456751356647,-0.0175079312901,-0.162615374885,1.19923949242,0.566133499146,0.586343050003,-0.77517747879,0.682842552662,-0.375397622585
2017/07/09/09:43:02.108861,296677,1499564584,909580148,,0.842146233257,0.26429882348,0.226541401621,0.720598328245,0.683874166823,0.0533569150198,0.101030752262,0.00744533465095,-0.351366038702,-0.0715203117072,-0.0568215539855,0.0121565298178,-0.115932344939,0.983126938343,0.320251047611,0.662555277348,-0.612626671791,0.643339276314,-0.326225280762
2017/07/09/09:43:02.118632,296678,1499564584,919581128,,0.842304068761,0.260356426823,0.226368128183,0.72102081376,0.683357947937,0.0529876583236,0.101701569215,0.0115724366918,-0.334559256742,-0.050028607936,-0.0471449756575,-0.0227026946558,-0.101578077727,0.596693098545,0.201790452003,0.64743244648,-0.570578038692,0.508806228638,-0.302285611629
2017/07/09/09:43:02.128780,296679,1499564584,929575446,,0.842416610207,0.259139429933,0.22557778062,0.720537994948,0.683891302015,0.0532518395851,0.101399834538,0.0191022638432,-0.35041547371,-0.0393942806342,-0.0651186153642,-0.0485309419866,-0.13562322024,-0.232041716576,0.345698386431,0.647854268551,-0.667221665382,0.190460056067,-0.311809569597
2017/07/09/09:43:02.138417,296680,1499564584,939573947,,0.842646565711,0.254907214378,0.225405303863,0.721534623766,0.682768826642,0.0532531996491,0.101875476931,0.0165302538988,-0.351376136998,-0.0581986851056,-0.0568926412674,-0.0360328475867,-0.142437191069,0.145811393857,0.497217535973,0.733837604523,-0.749752104282,0.329560309649,-0.345732063055
2017/07/09/09:43:02.148667,296681,1499564584,949573199,,0.842751572989,0.251999389199,0.224399074868,0.721821086287,0.682430424967,0.053166762244,0.102158356792,0.0125954239513,-0.322854356037,-0.0694602781413,-0.0239982790787,-0.0300531900027,-0.111451367933,-1.9537781477,-2.37019395828,0.406376153231,-0.134457081556,-0.518974661827,-0.117883615196
2017/07/09/09:43:02.158537,296682,1499564584,959572758,,0.842759746528,0.248969306368,0.22378473487,0.722099188411,0.682128285652,0.0528746631275,0.102362268477,0.00686273253564,-0.330598239227,-0.0692629370594,-0.0391290430674,-0.021543925279,-0.110787844125,-1.96766161919,-1.83290553093,0.3755646348,-0.289448648691,-0.566112697124,-0.193149119616
2017/07/09/09:43:02.168628,296683,1499564584,969576050,,0.842684033487,0.245783685159,0.223035800578,0.722476575733,0.681735602953,0.05282397606,0.102341549413,0.00614448821447,-0.302526363854,-0.0632765579465,-0.0367028903144,-0.031613495274,-0.0774501171531,-3.0893330574,-1.83878278732,0.405044555664,-0.00643149018288,-0.91635620594,0.0223181843758
2017/07/09/09:43:02.178587,296684,1499564584,979574834,,0.843469075597,0.242783501517,0.223004715692,0.722700138557,0.681318435808,0.0534956136058,0.103188749791,0.022569045716,-0.296858868948,-0.0557067889251,0.00383045522062,-0.0771507811195,-0.0746810960019,-3.03568029404,-1.37935972214,1.26219594479,0.193664640188,-0.889511108398,0.144984140992
2017/07/09/09:43:02.188473,296685,1499564584,989575183,,0.843901366904,0.240145835875,0.222592192949,0.72289065447,0.680989069348,0.0542319303024,0.103643074267,0.0325293560247,-0.332041138421,-0.0548421414786,-0.0116840162176,-0.105311545985,-0.129979024516,-3.64056158066,-1.45092189312,0.949399650097,0.406707048416,-1.09323656559,0.225555971265
2017/07/09/09:43:02.198689,296686,1499564584,999574455,,0.844163367798,0.237375486963,0.221008128428,0.723174577286,0.680705449608,0.0542013634725,0.103541459518,0.0520969915001,-0.287244960806,-0.0444578454689,-0.003176176865,-0.159486211519,-0.054656167892,-5.19070577621,-1.95167219639,0.482991993427,0.448221474886,-1.72087013721,0.223743677139
2017/07/09/09:43:02.208745,296687,1499564585,9573149,,0.844147740238,0.234351815006,0.220555895595,0.723454678193,0.680338955047,0.0544090929736,0.103883999958,0.0430702370311,-0.27337058607,-0.0594793804246,0.0206551251377,-0.141066056455,-0.0485678809487,-5.18914031982,-0.621523439884,0.362082093954,-0.328840613365,-1.63899040222,-0.045601144433
2017/07/09/09:43:02.218762,296688,1499564585,19574669,,0.844873594719,0.232729633968,0.220631692557,0.723631044159,0.680023243694,0.0556670120408,0.104056156641,0.0308246069805,-0.245414892019,-0.0615843082757,0.0604539283272,-0.109268255607,-0.052359306049,-3.33245277405,1.94063091278,1.49023497105,-1.68361473083,-0.952894389629,-0.549717545509
2017/07/09/09:43:02.228683,296689,1499564585,29571980,,0.844955804162,0.229357957373,0.21975268916,0.724443044799,0.679127153227,0.055592199052,0.104298092007,0.0347358458332,-0.242604410585,-0.0696758062226,0.0521531213585,-0.107725802323,-0.0679207807609,-3.72327756882,2.98094844818,1.00197672844,-2.31266498566,-1.14927923679,-0.681750178337
2017/07/09/09:43:02.238613,296690,1499564585,39587325,,0.844817347501,0.227797499257,0.218560740351,0.724105362638,0.679493988901,0.0555280035757,0.10428798428,0.0231352733884,-0.262772419701,-0.0734970003303,0.0315068239527,-0.0835250107625,-0.106447671219,-4.21874094009,3.28698420525,0.716000437737,-2.29599428177,-1.42204463482,-0.658282279968
2017/07/09/09:43:02.248455,296691,1499564585,49576875,,0.845361359661,0.22489782804,0.218299842324,0.724347729698,0.679069053497,0.05581292341,0.105216465655,0.0238464076841,-0.294661931961,-0.060813493658,-0.025289714298,-0.0986717500941,-0.145405889281,-5.30887985229,1.68567049503,1.08862090111,-1.19118285179,-1.84092211723,-0.270106256008
2017/07/09/09:43:02.258521,296692,1499564585,59573073,,0.845483419266,0.221118033618,0.217966224187,0.725275896077,0.677940459125,0.055583934603,0.106216922683,0.0271905190577,-0.303526082793,-0.0468908828556,-0.0763643117249,-0.122046881847,-0.134480858185,-7.10494852066,-0.534394860268,1.20274317265,-0.212853893638,-2.49482631683,0.116423413157
2017/07/09/09:43:02.268432,296693,1499564585,69576862,,0.846534527965,0.218444940928,0.218259212894,0.725530643865,0.677378301848,0.0566232895787,0.107506855944,0.0342456664177,-0.305829694933,-0.0412901104877,-0.089322575249,-0.148476425289,-0.145896803035,-6.6476187706,-0.937022268772,1.3109152317,0.115206077695,-2.28387737274,0.229988709092
2017/07/09/09:43:02.279058,296694,1499564585,79613488,,0.84630237864,0.216897454773,0.21679748668,0.725857232737,0.677069094441,0.0565460248037,0.107290568619,0.0390622132998,-0.27421001134,-0.0453071129017,-0.0680472121916,-0.155717499167,-0.14201194929,-6.32000398636,0.0416273809969,0.920829772949,-0.149952411652,-2.03650307655,0.140010863543
2017/07/09/09:43:02.288818,296695,1499564585,89572521,,0.847075919981,0.213979716652,0.217116365134,0.726300338549,0.676322855626,0.0572334722785,0.108625700612,0.0317555427219,-0.254193336315,-0.048227529435,-0.0472978037819,-0.147941791831,-0.144864778852,-6.44671010971,-0.0136123225093,1.17989516258,-0.277711391449,-2.06780338287,0.0767797827721
2017/07/09/09:43:02.298855,296696,1499564585,99593209,,0.847031550196,0.212672059512,0.216646984381,0.726799823937,0.675777047785,0.0576679068448,0.108451879341,0.0363691982975,-0.244946138799,-0.0449119684261,-0.0115963777714,-0.149946311221,-0.172942958106,-6.03795528412,0.493718624115,1.2437595129,-0.484998583794,-1.91901528835,-0.0348997302353
2017/07/09/09:43:02.308489,296697,1499564585,109576480,,0.847004358835,0.209061935839,0.215610460295,0.727861091896,0.674602666325,0.0574515338697,0.10876026272,0.0110670969356,-0.2417922997,-0.0521332604486,0.0377049830126,-0.0952730863055,-0.236396601351,-7.04642438889,-0.419183522463,1.05376732349,-0.298931658268,-2.30600214005,0.0816999673843
2017/07/09/09:43:02.318836,296698,1499564585,119576918,,0.847115730749,0.206706893959,0.214989593552,0.72888130891,0.673450856614,0.0576762767772,0.108946906083,0.00728174596279,-0.226776279874,-0.057570731886,0.0511057787668,-0.0766385064182,-0.222789421237,-7.25159597397,-0.437913894653,0.717369496822,-0.212782114744,-2.45047807693,0.127408742905
2017/07/09/09:43:02.328488,296699,1499564585,129573788,,0.847138733642,0.204587163095,0.214512102754,0.729551486522,0.672677757979,0.0580158174286,0.109056991348,0.000451420375535,-0.259493205483,-0.0753607350918,0.0109837182676,-0.0522333523011,-0.26647036793,-7.98709583282,-0.00601325929165,1.35476851463,-0.286095499992,-2.72731184959,0.123452022672
2017/07/09/09:43:02.338748,296700,1499564585,139577382,,0.847212405694,0.201716024863,0.213655810003,0.730518944077,0.671554884679,0.0576055905857,0.109716476166,0.00218714535901,-0.256007462439,-0.0653796291419,-0.00600807190114,-0.0690558363173,-0.252535546124,-7.90500068665,-0.366861760616,1.78837513924,-0.208023145795,-2.63932204247,0.109590828419
2017/07/09/09:43:02.348996,296701,1499564585,149579964,,0.847162730404,0.199287101576,0.213446258833,0.731112416106,0.670831190331,0.0576723178675,0.110154676916,0.0113691478253,-0.252754461023,-0.0552435221382,-0.016742208342,-0.096242749025,-0.267296227098,-7.78698682785,-0.213748008013,1.62055981159,-0.280598580837,-2.59773540497,0.100680075586
2017/07/09/09:43:02.358757,296702,1499564585,159578721,,0.847709284828,0.197631858312,0.212748642465,0.731711308479,0.670065158162,0.0580272055935,0.110653008417,0.00267852892532,-0.262408071989,-0.0635409119874,-0.0411282000056,-0.0647520639703,-0.26766409956,-7.63781404495,0.474612027407,1.12358117104,-0.484413087368,-2.60437345505,0.0405190065503
2017/07/09/09:43:02.368645,296703,1499564585,169584792,,0.847615955295,0.195751505895,0.212222110924,0.732245821353,0.669414609685,0.058189964498,0.110968759045,0.0127047932497,-0.243192549294,-0.0593648633192,-0.0654724353506,-0.0852225985174,-0.214062349887,-6.98204994202,1.04242491722,0.968883037567,-0.546963095665,-2.34547686577,0.0260940268636
2017/07/09/09:43:02.378500,296704,1499564585,179580032,,0.84764668784,0.193309622041,0.211811762132,0.73269892642,0.668850252118,0.0579513188522,0.111504565413,0.0136360888745,-0.240570994284,-0.0478168511904,-0.0535018742319,-0.0865312720592,-0.193680076606,-7.2329621315,0.560323953629,0.564520895481,-0.422212898731,-2.41865634918,0.0704592168331
2017/07/09/09:43:02.388655,296705,1499564585,189577713,,0.848075997679,0.189599607737,0.211953260314,0.733428381889,0.667850020727,0.0578799589307,0.112734505848,0.00607573380923,-0.27535573666,-0.0513143767209,-0.104413248802,-0.0596003751317,-0.194895128438,-7.06230926514,-0.384855270386,1.1618540287,-0.160493731499,-2.39245820045,0.144682392478
2017/07/09/09:43:02.398668,296706,1499564585,199571660,,0.847576501937,0.187988677339,0.21014305201,0.733784753721,0.667586994414,0.0570011368287,0.112420685355,0.013799147673,-0.265933930013,-0.0479698034728,-0.124740437832,-0.0755485666833,-0.164473539891,-7.24404859543,0.492503225803,0.675379991531,-0.402255833149,-2.40540909767,0.0663731619716
2017/07/09/09:43:02.408629,296707,1499564585,209585329,,0.848177164724,0.18576046561,0.210628830641,0.73428241961,0.666828059691,0.0576340743936,0.113348932629,0.00863504231479,-0.26163320122,-0.0607731095694,-0.116220590866,-0.0522944681935,-0.165720157877,-6.71293354034,0.685859620571,1.59192335606,-0.44640865922,-2.16004228592,0.0304354727268
2017/07/09/09:43:02.418823,296708,1499564585,219599559,,0.847858249201,0.181178748692,0.20957590693,0.735503585459,0.665436606759,0.0563070929861,0.114272085136,0.00635848887417,-0.239609707462,-0.0598091374014,-0.0658363684345,-0.0404288878921,-0.187547730018,-7.17212343216,-1.00197088718,1.43218541145,-0.117895178497,-2.36475038528,0.142050862312
2017/07/09/09:43:02.428758,296709,1499564585,229583716,,0.848122822302,0.179538169355,0.209500298354,0.735641462335,0.665183345877,0.056334436869,0.1148441835,-0.000804517320905,-0.287108552363,-0.0630991299063,-0.104788679139,-0.0146503651685,-0.246224229823,-6.33675146103,0.0100953951478,1.70421910286,-0.361721426249,-2.03127741814,0.029940225184
2017/07/09/09:43:02.438657,296710,1499564585,239572671,,0.847811239014,0.176284451774,0.208332968179,0.7367555294,0.664009573016,0.0552614625111,0.115016292769,0.000438090417014,-0.277474059224,-0.0555298641312,-0.134836937721,-0.0172675305328,-0.20484128673,-6.54927349091,-0.376210302114,0.988577246666,-0.273136734962,-2.19486641884,0.0841680914164
2017/07/09/09:43:02.448864,296711,1499564585,249581559,,0.848344243709,0.174326150102,0.208466005365,0.737132780255,0.663422795353,0.055573086684,0.115832167018,0.00232052141744,-0.266786319269,-0.0639094706444,-0.102071164801,0.00011935613662,-0.243729785526,-6.62957763672,0.0700573474169,1.49952912331,-0.182477533817,-2.23778223991,0.0825351327658
2017/07/09/09:43:02.458755,296712,1499564585,259581301,,0.848181206781,0.172771132178,0.207242476079,0.737704975734,0.66286023809,0.0550029767593,0.115682090594,0.00108311947339,-0.277141893978,-0.0475020016688,-0.116105259146,-0.00383541047239,-0.263544491702,-7.84989261627,0.438695371151,0.353195667267,-0.174605920911,-2.71685242653,0.122171394527
2017/07/09/09:43:02.468783,296713,1499564585,269574762,,0.848678282603,0.170307128853,0.207618925685,0.738411967885,0.661914373937,0.0552770409504,0.116454179847,-0.00548320016111,-0.25264264986,-0.0545679196534,-0.0949403196915,0.00969717803684,-0.244241479941,-8.78771686554,0.365351825953,0.759539663792,0.0186290070415,-3.09111666679,0.256264179945
2017/07/09/09:43:02.478640,296714,1499564585,279581718,,0.847789051655,0.168375473837,0.206007286647,0.739327373496,0.661133650908,0.0541360620956,0.115614087451,0.00494725949676,-0.258264435542,-0.0622905326086,-0.0522164296344,-0.00818290410399,-0.281783646896,-10.0268144608,1.27443897724,0.224608585238,-0.184255033731,-3.43527984619,0.236823618412
2017/07/09/09:43:02.488439,296715,1499564585,289573676,,0.848258308819,0.165590775301,0.205454548348,0.740389198333,0.659841576603,0.0544103478004,0.116070852629,0.00346663482347,-0.217689463873,-0.0634987713933,0.00852560980591,0.000141351280034,-0.259198016664,-10.2370185852,1.04952633381,-0.121296487749,-0.257980048656,-3.46047067642,0.227925211191
2017/07/09/09:43:02.498671,296716,1499564585,299580939,,0.847947856022,0.163409437651,0.20469083637,0.741381428236,0.658787123351,0.0539914965165,0.115922483918,-0.00772048940304,-0.222004144771,-0.0709654398826,0.0237583595915,0.0219246119892,-0.285713084846,-10.6146087646,0.85373032093,0.232391402125,-0.285935997963,-3.5392434597,0.209586516023
2017/07/09/09:43:02.508884,296717,1499564585,309599498,,0.847897622017,0.160864568644,0.204648044682,0.74222365932,0.657791826665,0.0538537517478,0.116248551565,-0.0141529086108,-0.240983298165,-0.0725133546249,0.0033729641206,0.0285186670051,-0.289549249789,-10.7949256897,1.02130615711,0.670390248299,-0.58085745573,-3.57258439064,0.0621819496155
2017/07/09/09:43:02.518649,296718,1499564585,319593776,,0.847857671877,0.158511698523,0.203614401688,0.743396482285,0.656483922094,0.053708330358,0.116215082539,-0.0112105670878,-0.21873071423,-0.0787855063727,0.0414274691055,0.0230074085384,-0.281858369235,-11.3823270798,1.10813784599,-0.0799256563187,-0.580648541451,-3.82603263855,0.12339502573
2017/07/09/09:43:02.528723,296719,1499564585,329572676,,0.847461007065,0.156394124952,0.202166736342,0.744445392511,0.655425426672,0.0534334297318,0.11560032971,-0.0267135939577,-0.236307197197,-0.0993459821738,0.0448991919131,0.0638303408009,-0.306691041096,-11.4563083649,1.03373837471,-0.173487097025,-0.66513967514,-3.92512917519,0.087901763618
2017/07/09/09:43:02.538645,296720,1499564585,339579391,,0.846966556716,0.15394832525,0.200972825633,0.745462507042,0.654397957161,0.052661890645,0.115220178491,-0.0235121813113,-0.234496814038,-0.104757701821,0.0331145150977,0.0607607978741,-0.310086610282,-12.240696907,0.742049336433,-0.410455167294,-0.443978309631,-4.28680753708,0.256411135197
2017/07/09/09:43:02.548658,296721,1499564585,349573627,,0.847113498598,0.152727866374,0.200512231172,0.745687908325,0.654097956471,0.0529304172717,0.115342002954,-0.0115874266768,-0.216294454785,-0.0949628070425,0.0307298903403,0.0230088465457,-0.272895779731,-12.2993774414,1.41001439095,-0.148064017296,-0.473665416241,-4.31615447998,0.228629037738
2017/07/09/09:43:02.558805,296722,1499564585,359573429,,0.846813026383,0.149917503898,0.198938516446,0.747213421793,0.652463299009,0.0527387294331,0.114814511962,-0.0188016340937,-0.239009569918,-0.10980713253,0.0145291441789,0.0412364259104,-0.284615226885,-12.6617546082,0.938897371292,-0.255127519369,-0.435846567154,-4.51894426346,0.261530965567
2017/07/09/09:43:02.568710,296723,1499564585,369573382,,0.846586808947,0.147210484779,0.197945423215,0.748254692401,0.651296232913,0.0523604698777,0.114832545421,-0.0271294964763,-0.242889625693,-0.13726380656,0.0446998957357,0.0712257586127,-0.299499748107,-11.9663991928,0.666908502579,-0.11696600914,-0.276979744434,-4.27627563477,0.304527759552
2017/07/09/09:43:02.578870,296724,1499564585,379582946,,0.846739527947,0.145422543349,0.197050803451,0.74894155201,0.650524455543,0.0524836040837,0.114673256324,-0.0292885625824,-0.257358953077,-0.117125938255,0.0193888306805,0.0573240260901,-0.306559529,-12.1396150589,1.21758663654,0.0723844841123,-0.380091518164,-4.41622495651,0.261122465134
2017/07/09/09:43:02.588464,296725,1499564585,389573541,,0.846537178079,0.143164320583,0.195549019928,0.749816902632,0.649600534379,0.0522521797657,0.114295529098,-0.0127100353444,-0.221891575795,-0.117611754861,0.0202842345643,0.0345331522161,-0.261572083397,-11.9435462952,0.958264231682,-0.386255353689,-0.557946801186,-4.31955528259,0.167896166444
2017/07/09/09:43:02.598750,296726,1499564585,399579821,,0.846305453671,0.14097249687,0.194375695245,0.750830606381,0.64846817885,0.0519627486224,0.114202864659,-0.0129901242654,-0.211149274538,-0.128512462616,0.0350499135129,0.0489039140965,-0.269303640721,-11.6052656174,1.06750607491,-0.146646916866,-0.521210253239,-4.13909101486,0.174049913883
2017/07/09/09:43:02.608876,296727,1499564585,409576983,,0.846126036265,0.139318108197,0.193025312753,0.751374851516,0.647893785307,0.0516391736888,0.114030132907,-0.018516096925,-0.230613374833,-0.138858276509,0.0489942693326,0.0567831166859,-0.294117347555,-11.892121315,1.85088193417,-0.314686715603,-0.64797770977,-4.23982095718,0.171654358506
2017/07/09/09:43:02.618953,296728,1499564585,419586289,,0.846162061272,0.13701011254,0.191591647728,0.752406445755,0.646749748862,0.0515946819469,0.113742215241,-0.00560126381041,-0.20981557368,-0.129309175352,0.0655868073133,0.0235313062624,-0.270939562968,-11.8560171127,1.21779513359,-0.926082313061,-0.567093074322,-4.26241970062,0.188925862312
2017/07/09/09:43:02.628823,296729,1499564585,429580561,,0.846172332432,0.134105061704,0.190901199853,0.753590712332,0.645340996176,0.0514919223314,0.113950071861,-0.0187953456486,-0.201793130132,-0.137321284603,0.0690290081109,0.060873729989,-0.270122902996,-11.6329441071,1.15440189838,-0.758138656616,-0.621479809284,-4.15758466721,0.156364649534
2017/07/09/09:43:02.638529,296730,1499564585,439589722,,0.84562284671,0.133923349661,0.188558888053,0.753767201958,0.645405377125,0.0511585503369,0.112559793699,-0.0344990280477,-0.216825209198,-0.164662456799,0.059374028935,0.110873270294,-0.276487289255,-11.5177898407,2.07258105278,-1.58934366703,-0.825323343277,-4.15044260025,0.0932597219944
2017/07/09/09:43:02.648426,296731,1499564585,449583371,,0.845350446564,0.130817183768,0.187127965504,0.755620678271,0.643304492559,0.0510379280258,0.112213414197,-0.01754753764,-0.187048218099,-0.14938504975,0.0690004128238,0.0622772555288,-0.241440647202,-11.2031707764,1.71654653549,-1.13108658791,-0.778580784798,-4.01212263107,0.0852487534285
2017/07/09/09:43:02.658483,296732,1499564585,459606916,,0.845353445998,0.128986833799,0.185805767653,0.756083369175,0.642797188481,0.0508469169877,0.112090607863,-0.0188648228244,-0.21555098208,-0.15153804607,0.057344913105,0.0608429044625,-0.272975944696,-11.3682794571,1.08967733383,-0.464417040348,-0.564157426357,-4.09071397781,0.151405200362
2017/07/09/09:43:02.668623,296733,1499564585,469593271,,0.845253928006,0.127035720875,0.184600420256,0.756721268715,0.642065619316,0.0505496821853,0.112113298042,-0.0129678371163,-0.228121919134,-0.14337348026,0.0378063168085,0.0382021546692,-0.288469800952,-10.9381122589,1.80715203285,-0.207819104195,-0.592319905758,-3.86161327362,0.104684323072
2017/07/09/09:43:02.678919,296734,1499564585,479574422,,0.844723172649,0.125620078539,0.182285075626,0.7576849229,0.641193832417,0.0500356777754,0.110817227136,-0.0145469236611,-0.194620795568,-0.147763122811,0.0575359106289,0.0575455307712,-0.240979567391,-10.9766206741,1.72527003288,-0.409114122391,-0.582004547119,-3.92480921745,0.121773034334
2017/07/09/09:43:02.688838,296735,1499564585,489576754,,0.845118412481,0.122535257772,0.182108330195,0.758449365209,0.640116601638,0.0499485409691,0.111850078129,-0.017863012663,-0.21621122947,-0.144765183865,0.0253117189296,0.0750144183167,-0.250983585645,-10.6620321274,1.30104959011,-0.36356189847,-0.468721181154,-3.86656165123,0.140552341938
2017/07/09/09:43:02.698740,296736,1499564585,499577669,,0.84439227881,0.120092790471,0.179719463119,0.759715359928,0.638834771408,0.0492086430806,0.110910847869,-0.015442725962,-0.239494303534,-0.157011032281,0.00168567288071,0.0718602179095,-0.274024108647,-9.73496246338,0.620200157166,-0.936370074749,-0.365119874477,-3.48892879486,0.0782273113728
2017/07/09/09:43:02.708710,296737,1499564585,509604572,,0.844182909768,0.118169772635,0.17823608279,0.760118971063,0.638409553608,0.0487697262134,0.1107876595,-0.0137108972888,-0.216802895863,-0.154252632333,0.0327678109655,0.0676876697557,-0.242327470783,-9.61705303192,1.310333848,-0.316668391228,-0.491874098778,-3.37128829956,0.0563514381647
2017/07/09/09:43:02.718637,296738,1499564585,519585369,,0.844737001453,0.116850463405,0.177536439976,0.760933801977,0.637420447795,0.0494794260721,0.110574446131,0.00596703454779,-0.198644763327,-0.132443257206,0.066112031724,0.020942980989,-0.250493398789,-9.02580738068,1.43454098701,-0.303052663803,-0.507814049721,-3.22397756577,0.0627519935369
2017/07/09/09:43:02.728871,296739,1499564585,529580857,,0.844387033715,0.115069579913,0.175774422927,0.761762476562,0.63662141641,0.0490380408277,0.109664816701,-0.00194391222384,-0.220948240163,-0.135372279686,0.0437259202952,0.0381134817611,-0.292139704255,-8.93254852295,1.94948136806,-1.07963573933,-0.722220420837,-3.25492358208,-0.000169813632965
2017/07/09/09:43:02.738717,296740,1499564585,539586505,,0.844038635315,0.112454485804,0.173960812889,0.763030974504,0.635197716398,0.0483766796439,0.10939510911,-0.0168554444136,-0.229614947413,-0.159370106154,0.0661589747187,0.09037728806,-0.311524493651,-8.75104427338,1.46404588223,-0.77089369297,-0.578934371471,-3.20113277435,0.0170184224844
2017/07/09/09:43:02.748827,296741,1499564585,549578244,,0.84465879167,0.110798818283,0.173204276503,0.763814754314,0.634214336727,0.0489680636537,0.109367842277,-0.0163832307542,-0.211668238797,-0.151016667225,0.0695134310054,0.088577662836,-0.285711728595,-8.42876625061,1.39077568054,-0.0318778678775,-0.455342024565,-3.07018828392,0.0878070145845
2017/07/09/09:43:02.758394,296742,1499564585,559573679,,0.844545091505,0.10879539083,0.172389733381,0.764422746455,0.633547960682,0.0485805997747,0.109154805411,-0.00641089370577,-0.217621677997,-0.136224388762,0.0513578695893,0.0666577786736,-0.298986240857,-7.87239313126,1.63478446007,0.394648909569,-0.582301437855,-2.8261692524,-0.0221219360828
2017/07/09/09:43:02.768606,296743,1499564585,569594338,,0.84356573191,0.106312529022,0.1698500836,0.765734565617,0.632253413739,0.0472586154187,0.108040821466,-0.00826720292495,-0.221534884611,-0.134505030027,0.0419198337085,0.0832094093917,-0.282492982373,-7.51574039459,0.95792555809,-0.580588638783,-0.407274484634,-2.64623379707,0.0243208706379
2017/07/09/09:43:02.778782,296744,1499564585,579577986,,0.844434914336,0.104755484641,0.169111322002,0.766320836995,0.631483074829,0.047994627797,0.10806487262,-0.0118309439568,-0.204088567571,-0.140010536894,0.0577343240979,0.102653555894,-0.253770655356,-7.13916063309,0.981639444828,-0.497325360775,-0.332166969776,-2.62095594406,0.0449004620314
2017/07/09/09:43:02.788907,296745,1499564585,589578245,,0.843706835888,0.102537835173,0.167403513961,0.767500895021,0.630283954726,0.047063443906,0.107095960734,-0.0140134394223,-0.203916750725,-0.1426639759,0.0625703126935,0.109814934156,-0.269330032826,-6.69783592224,0.616241037846,-0.662261962891,-0.194649621844,-2.43818426132,0.0479608476162
2017/07/09/09:43:02.798620,296746,1499564585,599573288,,0.843446330447,0.0996978981704,0.16631609735,0.768545343324,0.629075086246,0.0465861438199,0.106922038535,-0.00511108017506,-0.232023645417,-0.122529441416,0.0519259362986,0.0767135082445,-0.323105048444,-6.8214931488,0.699613213539,-0.493557095528,-0.313850581646,-2.46651530266,0.00962351262569
2017/07/09/09:43:02.808539,296747,1499564585,609577412,,0.843849729404,0.0981104992615,0.165389498618,0.769431366895,0.628037943459,0.0467117938146,0.106591376445,-0.0169791712776,-0.229615770289,-0.133088771666,0.0607300654211,0.106660983149,-0.322624107667,-6.86955356598,0.843854784966,-0.278900533915,-0.343573659658,-2.58972144127,0.0274339467287
2017/07/09/09:43:02.818716,296748,1499564585,619580087,,0.843535649346,0.0963339197905,0.163974647107,0.770314298631,0.62710028102,0.0461949092143,0.10595824287,0.00616309093216,-0.203993031426,-0.104972040487,0.0851570386382,0.0523364166403,-0.305804494508,-6.43562030792,1.46397233009,-0.653332829475,-0.614369869232,-2.43197154999,-0.0916262716055
2017/07/09/09:43:02.828673,296749,1499564585,629581550,,0.844043191522,0.0946984675059,0.163543900031,0.771221306546,0.625985279217,0.0466282784236,0.105763557922,0.00453300382267,-0.20583917252,-0.115561005536,0.074321312305,0.0617707726586,-0.277815852329,-6.29027271271,1.43303573132,-0.352640062571,-0.483729809523,-2.42252063751,-0.0504162758589
2017/07/09/09:43:02.838670,296750,1499564585,639578406,,0.84426388171,0.0917443625951,0.162543613721,0.772414685539,0.624514315478,0.0463845999555,0.105857886876,0.0178994583882,-0.215995234524,-0.101635193041,0.0782206661984,0.0253587041191,-0.304304288059,-5.10636663437,1.15626478195,-0.0328738391399,-0.538684844971,-1.97464358807,-0.139369830489
2017/07/09/09:43:02.848477,296751,1499564585,649575480,,0.844577206051,0.0894979252371,0.161438413293,0.773453877401,0.623248959546,0.0465147510065,0.105670298083,0.036726860422,-0.214436232592,-0.101129208209,0.0851631871617,-0.0222892039043,-0.31112697719,-5.2853770256,0.930881500244,-0.274362236261,-0.414689123631,-1.97102558613,-0.0841702818871
2017/07/09/09:43:02.858313,296752,1499564585,658994883,,0.845344037225,0.0874600438668,0.160806069075,0.774226195786,0.622211373877,0.0470122818922,0.105908683913,0.0413980152904,-0.233872264871,-0.103639270711,0.0823943311951,-0.037951376277,-0.32779632107,-5.148832798,0.528836905956,-0.270022839308,-0.345301061869,-1.91400003433,-0.0684802234173
2017/07/09/09:43:02.868272,296753,1499564585,669007142,,0.844978964058,0.0850067239886,0.159523845325,0.775677597953,0.620541109071,0.0468303808515,0.105166113441,0.0384953372804,-0.227040368938,-0.103385821632,0.0715925325009,-0.0285652656315,-0.315871933901,-4.93799829483,0.510432481766,-0.143901199102,-0.223932847381,-1.7259966135,-0.0162768810987
2017/07/09/09:43:02.878155,296754,1499564585,679004456,,0.845958017362,0.0838772393684,0.159060630628,0.776361641485,0.619624719194,0.0477147482555,0.105124268338,0.0373460800278,-0.215980039039,-0.0963580632311,0.077458482008,-0.029306967943,-0.317433005413,-4.58194684982,1.27258014679,-0.296553909779,-0.424116820097,-1.64386737347,-0.125706419349
2017/07/09/09:43:02.887917,296755,1499564585,688994407,,0.846293355724,0.0819218961215,0.157828089239,0.776998672874,0.618855908937,0.0475006705102,0.105043384499,0.0355074328688,-0.223154021116,-0.0972184277329,0.0723710253833,-0.017999751512,-0.319871660281,-4.1388092041,1.28632235527,-0.243845015764,-0.545722007751,-1.52063417435,-0.174852222204
2017/07/09/09:43:02.898219,296756,1499564585,699024412,,0.846525847874,0.0795938579178,0.156705487178,0.778347602609,0.61721406794,0.0475398102984,0.104698473175,0.036862055804,-0.212978810277,-0.0924497860223,0.0773448128553,-0.0138547806528,-0.314551500897,-3.96656179428,1.55306851864,-0.397407233715,-0.487556070089,-1.51881790161,-0.157041400671
2017/07/09/09:43:02.908279,296757,1499564585,709007055,,0.84703264918,0.0780294348301,0.155841306208,0.779004633159,0.616389530031,0.0474692881157,0.10470145878,0.0204054100573,-0.212865436058,-0.103990842461,0.0649140910015,0.0284139827555,-0.311428426434,-2.72454953194,1.14280414581,-0.535178780556,-0.497969508171,-1.11049056053,-0.206776753068
2017/07/09/09:43:02.918202,296758,1499564585,719006810,,0.846962403634,0.0751340220267,0.155045754324,0.779935820594,0.615258365446,0.047194706836,0.104546253637,0.0373866975357,-0.2127002872,-0.0830736475605,0.0755452823491,-0.0132255168604,-0.314540494333,-2.31217908859,1.06406068802,-0.598584592342,-0.554404973984,-0.927334189415,-0.263953149319
2017/07/09/09:43:02.928156,296759,1499564585,729006101,,0.847814909154,0.0732852687495,0.154847140307,0.781035521789,0.613798452457,0.0480281833991,0.104538352123,0.0457457169749,-0.202359394536,-0.0774516159397,0.100338348241,-0.039553878413,-0.301516729796,-2.20508766174,0.693027496338,-0.00574846565723,-0.271082878113,-0.973149597645,-0.139865875244
2017/07/09/09:43:02.937837,296760,1499564585,738994030,,0.847481184653,0.0711974670717,0.153042906595,0.782157994831,0.612519810354,0.0475812762698,0.103847846367,0.0461584598266,-0.21564107834,-0.0785166674762,0.0760349609875,-0.0428195900955,-0.31141818574,-2.44318246841,0.361982822418,-1.00304687023,-0.278139948845,-1.00127637386,-0.155954346061
2017/07/09/09:43:02.947970,296761,1499564585,748998640,,0.848139845652,0.0699116439789,0.152232374608,0.78275671394,0.611779038608,0.0478491026077,0.103579911577,0.0309018573822,-0.233637429368,-0.0899138916307,0.0743308219239,-0.0136099583008,-0.345593498339,-2.28201341629,0.839319348335,-1.27257442474,-0.368911743164,-0.985609650612,-0.196850374341
2017/07/09/09:43:02.958193,296762,1499564585,758999951,,0.84855209532,0.0671443843701,0.152101571706,0.783921165314,0.610201816434,0.0483363220692,0.103850612722,0.0269121374108,-0.220729333417,-0.0982125763829,0.0573759620313,0.000164253541417,-0.300595537512,-1.55406570435,0.286237329245,-0.833769202232,-0.294652551413,-0.645231366158,-0.208815708756
2017/07/09/09:43:02.968294,296763,1499564585,769019593,,0.849119840761,0.065236816794,0.151089442916,0.784858312472,0.608992132822,0.0485337801951,0.103780940851,0.0258382970059,-0.205710399641,-0.08941158762,0.0769911587426,-0.00240590997499,-0.315902344323,-1.53847765923,0.382951438427,-0.771172106266,-0.382452607155,-0.729338228703,-0.23101978004
2017/07/09/09:43:02.978296,296764,1499564585,779006588,,0.848762613337,0.0628375397075,0.149885197051,0.785875661154,0.607796295227,0.0478632055894,0.103403202387,0.0226654099631,-0.193435778181,-0.0931686081027,0.0971060297103,0.00672772074609,-0.302661248008,-1.34784293175,1.27805316448,-0.870762050152,-0.564687132835,-0.727474093437,-0.277231752872
2017/07/09/09:43:02.988199,296765,1499564585,789006153,,0.84882393656,0.061217015896,0.149282619847,0.786696329472,0.606815919977,0.0479993285927,0.102856156415,0.0154375809629,-0.215054077309,-0.0798589992437,0.0699211016674,0.0126242382299,-0.330638038334,-1.8579416275,0.828438460827,-0.894598186016,-0.500472068787,-1.01002466679,-0.224136978388
2017/07/09/09:43:02.998275,296766,1499564585,799006554,,0.848845253197,0.0586086804625,0.148265581461,0.78768189824,0.605563854121,0.0477145742144,0.102824924871,0.00848550719892,-0.21509424787,-0.0948131108791,0.0734802136568,0.0350609043367,-0.31831859777,-1.72414255142,-0.115180671215,-0.82925516367,-0.32753944397,-0.969887375832,-0.182868808508
2017/07/09/09:43:03.007962,296767,1499564585,809000450,,0.849102742001,0.0567869831169,0.147075860998,0.788584944987,0.604416808876,0.047876511248,0.102576534151,0.0126168232788,-0.183478917137,-0.0953875231995,0.0987960780978,0.0290492995488,-0.273798683261,-1.28089642525,0.0346698760986,-1.26158392429,-0.341084748507,-0.818122029305,-0.178547650576
2017/07/09/09:43:03.018141,296768,1499564585,818993736,,0.849421886536,0.0554563428911,0.146605341433,0.789568954391,0.603185139121,0.0480988788579,0.102152102561,0.00420761822995,-0.227311397381,-0.0931055617403,0.0753009884141,0.0245101145592,-0.335180315273,-1.24044024944,0.716838121414,-0.172250449657,-0.464526057243,-0.771622061729,-0.253245413303
2017/07/09/09:43:03.027977,296769,1499564585,828995596,,0.849527336732,0.0537024173832,0.145423589078,0.79049819872,0.602045018247,0.0484416950632,0.101527316541,0.0320792592404,-0.199311450389,-0.0703737606046,0.0925734512018,-0.0448864977762,-0.314463703101,-1.19896554947,0.873563468456,0.0918554589152,-0.498153656721,-0.675311505795,-0.247087135911
2017/07/09/09:43:03.037867,296770,1499564585,839001268,,0.850157906733,0.052071021629,0.14536254502,0.791261675936,0.600976341364,0.0490959360409,0.101597177027,0.0447285542444,-0.183321555624,-0.0730807141523,0.112838934988,-0.0618192133092,-0.289800475492,-0.339371681213,1.26982486248,0.065668284893,-0.708018898964,-0.284881234169,-0.402168422937
2017/07/09/09:43:03.048399,296771,1499564585,849001185,,0.850196416781,0.0490693090804,0.144716283342,0.792054208301,0.599872410925,0.0486364265047,0.102165159131,0.0156701254602,-0.196968424596,-0.091332985794,0.0788456799061,0.00310595721992,-0.274654991162,-1.61141753197,0.0697819292545,-0.1097330302,-0.386422455311,-0.624830245972,-0.271744221449
2017/07/09/09:43:03.058362,296772,1499564585,859001166,,0.849572320287,0.0479784989204,0.142826165187,0.792997127852,0.598894222263,0.0481719790372,0.100800427548,0.0159858744653,-0.222311133322,-0.0798484511936,0.0464928439605,-0.0184260090945,-0.297815799563,-1.11656665802,0.792886137962,-0.859834313393,-0.410527050495,-0.319838225842,-0.313013702631
2017/07/09/09:43:03.068205,296773,1499564585,868993429,,0.849565850315,0.045088983615,0.141684845753,0.79392325397,0.597660868799,0.0479993131794,0.100912926066,-0.00456043431237,-0.222060695896,-0.0894189790235,0.0440826950331,0.0248638761052,-0.30027472122,-0.185183122754,0.429640263319,-0.707777738571,-0.384629517794,0.0337850451469,-0.378557026386
2017/07/09/09:43:03.078240,296774,1499564585,878997708,,0.849773924876,0.0442467325939,0.14148037915,0.794462726988,0.597023242127,0.0482454455128,0.100322483895,-0.00307075914385,-0.206832182364,-0.0839416520009,0.0499399222261,0.0347287892147,-0.271552074635,-0.348643302917,1.35679292679,-0.0957055091858,-0.600764870644,-0.0437295511365,-0.406198740005
2017/07/09/09:43:03.088499,296775,1499564585,888999588,,0.849954669472,0.0429991169546,0.140431441011,0.794893041023,0.596490210766,0.0482384872782,0.100087612313,-0.00906485501966,-0.180655699121,-0.0885853709092,0.0723220522338,0.0672044120733,-0.226156179044,-0.515715122223,1.4386408329,0.316821694374,-0.70712697506,-0.188954085112,-0.487117409706
2017/07/09/09:43:03.098144,296776,1499564585,899000633,,0.849591210979,0.0408804505262,0.139322197852,0.795592996265,0.595662311347,0.0478814584273,0.0996271101368,-0.0116146233684,-0.1950900054,-0.0966803890808,0.0595579046323,0.0639769359725,-0.22320590815,-0.798246741295,1.10585570335,0.0771132260561,-0.705328941345,-0.358943343163,-0.437387108803
2017/07/09/09:43:03.108212,296777,1499564585,908993252,,0.849836586491,0.0389889219085,0.138827939235,0.796170940595,0.594894095167,0.0483498212803,0.0993737574493,-0.00990846660906,-0.201042821747,-0.10308358283,0.0525280008363,0.0582865245652,-0.196265791376,-1.07426261902,0.991616487503,-0.102272331715,-0.600553393364,-0.530737519264,-0.407589793205
2017/07/09/09:43:03.118206,296778,1499564585,919002982,,0.84997735931,0.0379513258601,0.138034360642,0.7962738748,0.594817501886,0.0485945597765,0.0988869279569,-0.0196945289012,-0.198369064786,-0.0897894994748,0.0553009765573,0.0574566226554,-0.164283518529,-0.637921273708,1.24057865143,-0.149501532316,-0.620733380318,-0.331248342991,-0.441969394684
2017/07/09/09:43:03.128070,296779,1499564585,929007066,,0.849588041916,0.0352263447051,0.136974870869,0.796778134356,0.594183002508,0.0480630056281,0.0988995026907,-0.00361978260704,-0.195538029549,-0.0761832926073,0.0194228863468,0.0178194805831,-0.0630120888251,-0.284115374088,0.915016889572,-0.724734902382,-0.570320725441,-0.126171976328,-0.473294258118
2017/07/09/09:43:03.138290,296780,1499564585,939006695,,0.849197911646,0.0332315754903,0.136065058902,0.796635823923,0.59443854887,0.047458989167,0.0988019230936,-0.0133912943501,-0.175758701665,-0.103385054996,0.00474614858195,0.0699195979396,0.0330234098186,0.841490983963,0.629862129688,-0.182145744562,-0.500434160233,0.414732158184,-0.539498448372
2017/07/09/09:43:03.148080,296781,1499564585,948995265,,0.84879783244,0.0323506130301,0.134611009437,0.795910324938,0.595556336705,0.047007900989,0.0981308397585,0.00148231990079,-0.176691800846,-0.0820642939674,0.0103818021498,0.0165358122264,0.0553017466373,0.499427258968,1.21195113659,-0.64039760828,-0.57386392355,0.402673363686,-0.557157099247
2017/07/09/09:43:03.158098,296782,1499564585,959006966,,0.84897381991,0.0298599752705,0.133869226139,0.795559163509,0.595961832471,0.0469951577981,0.0985219099356,-0.0161189548747,-0.205275112083,-0.0922959246217,-0.0198737806076,0.053629386236,0.0891150160679,0.0827830582857,1.1440423727,-0.386748999357,-0.687642812729,0.231423795223,-0.578411579132
2017/07/09/09:43:03.168112,296783,1499564585,968993852,,0.848715029524,0.0267872105023,0.133576593683,0.795192259942,0.596414686242,0.0465734867573,0.0989429234211,-0.0114660879194,-0.192490891052,-0.0925240899993,-0.0600444773311,0.0610841531223,0.187111308249,-0.0481631606817,0.0905683934689,-0.0559267327189,-0.417190372944,0.186367303133,-0.475018560886
2017/07/09/09:43:03.178083,296784,1499564585,978993854,,0.848611186412,0.0259818848047,0.13271521967,0.794386247251,0.597589147168,0.0466630791355,0.0982866135883,-0.0209333013139,-0.16613480719,-0.106445262262,-0.0453298738233,0.0922102293796,0.264681824471,-0.00400237739086,0.618644833565,0.291796475649,-0.502222180367,0.233837902546,-0.485293507576
2017/07/09/09:43:03.188023,296785,1499564585,988994055,,0.848043712963,0.0236944854187,0.131508124241,0.793523123342,0.598786423006,0.0457160565249,0.0984170438525,-0.0207407705604,-0.194909075337,-0.0916887351614,-0.0554849247863,0.0700789605423,0.259797411788,-0.0479938387871,0.147378772497,0.318272173405,-0.357514441013,0.272780776024,-0.457478433847
2017/07/09/09:43:03.198055,296786,1499564585,999006561,,0.84813839627,0.0224450460425,0.130333069604,0.792249861395,0.600510019039,0.0455615409075,0.098244695244,-0.0270556019929,-0.179778994722,-0.102934953752,-0.0576480172407,0.0979475318872,0.331890732734,0.254336714745,1.19838786125,-0.0347103253007,-0.472943544388,0.262461423874,-0.452310949564
2017/07/09/09:43:03.208221,296787,1499564586,9005779,,0.847263694264,0.0213416260262,0.129393633699,0.790817770424,0.602581664473,0.0447356429541,0.0974746832369,-0.0443616568053,-0.179290382481,-0.107087402357,-0.0653296916457,0.1447552031,0.39764079247,0.133686423302,1.60135054588,-0.0908116996288,-0.603282690048,0.180212050676,-0.479194492102
2017/07/09/09:43:03.218271,296788,1499564586,19006168,,0.84703079831,0.0191110930978,0.128828249365,0.78948293434,0.604317518041,0.0441535137993,0.0978136033153,-0.0573450390548,-0.190596838115,-0.100470841202,-0.0965986821499,0.170486720519,0.443649115826,-0.481624484062,0.986238479614,-0.0400670617819,-0.581928372383,-0.0569842755795,-0.421757936478
2017/07/09/09:43:03.227971,296789,1499564586,28994566,,0.846897715447,0.0184000653116,0.1277980117,0.787777496111,0.606635077707,0.0440332284266,0.0972706220323,-0.0470567727067,-0.186464695192,-0.0944468096542,-0.0862875862462,0.14357895243,0.482054036995,0.0154818147421,1.96782636642,-0.265073746443,-0.850489199162,0.0521244630218,-0.516698360443
2017/07/09/09:43:03.238154,296790,1499564586,39006635,,0.846352698576,0.0165993027245,0.126475699949,0.786536593662,0.608349645375,0.0434280154498,0.0968757104577,-0.0519771483618,-0.160557275456,-0.108139317404,-0.0498034435755,0.163891215438,0.523860051977,0.50409913063,1.06727027893,-0.811179459095,-0.492425471544,0.172049611807,-0.368555009365
2017/07/09/09:43:03.248051,296791,1499564586,48996381,,0.845713387185,0.0142439642052,0.125676809872,0.7845707597,0.610919012501,0.0427089176939,0.0969671673224,-0.0695135459095,-0.189222324253,-0.118695277102,-0.0745634400582,0.196621606165,0.550802444123,1.19576227665,0.591056585312,-0.929710388184,-0.320023477077,0.383447349072,-0.32627260685
2017/07/09/09:43:03.258223,296792,1499564586,59007389,,0.844609329451,0.012267631558,0.124129692981,0.782875920835,0.613286772579,0.0416293319675,0.0961853724614,-0.0573458310881,-0.201615852265,-0.0894659910655,-0.117739701765,0.156035176755,0.585913943997,1.35913181305,0.099528208375,-0.748099505901,-0.248565271497,0.561975300312,-0.290922671556
2017/07/09/09:43:03.268087,296793,1499564586,69005781,,0.844686037407,0.010504588354,0.12369677293,0.780739701042,0.615937908381,0.0412222459224,0.0967819129616,-0.041208967898,-0.166190779761,-0.0902793329827,-0.104284256361,0.133433899037,0.666731064201,1.16036128998,0.292524516582,-0.665960013866,-0.241823345423,0.463252991438,-0.282644540071
2017/07/09/09:43:03.279626,296794,1499564586,79006503,,0.844605375949,0.0090203049447,0.12300722208,0.778603542389,0.618636036579,0.0408522992326,0.0969384736438,-0.05894400605,-0.192652773639,-0.0968742712101,-0.121310390257,0.15765423789,0.650021303639,0.438041388988,0.932338237762,-0.264502257109,-0.482241779566,0.165388137102,-0.323379039764
2017/07/09/09:43:03.288492,296795,1499564586,88998102,,0.843814070608,0.00664255591768,0.122313007249,0.776773447644,0.620998080503,0.0400108618874,0.0968686016065,-0.0537372896653,-0.18772739022,-0.0984716359337,-0.144263670263,0.154019586442,0.689781666341,-0.0279565639794,0.575452566147,-0.187044009566,-0.432322859764,0.0511309057474,-0.272265315056
2017/07/09/09:43:03.298115,296796,1499564586,99000951,,0.843077530262,0.00451813625137,0.121187625648,0.7750146678,0.623266699304,0.0392684130583,0.0966895959745,-0.0475004887345,-0.155764927031,-0.102348033221,-0.119870556509,0.154253772281,0.717420106293,-0.188893198967,-0.190757825971,-0.255125701427,-0.214846029878,0.0608979165554,-0.159869432449
2017/07/09/09:43:03.308375,296797,1499564586,108997503,,0.842042968615,0.00368882737195,0.119521691365,0.772900161911,0.626099092199,0.0382902625586,0.0957033032832,-0.065310439814,-0.179034152946,-0.105374214506,-0.111585327924,0.172339063609,0.677446993447,0.222651958466,0.092558927834,-0.259518831968,-0.208462297916,0.29357495904,-0.173540070653
2017/07/09/09:43:03.318085,296798,1499564586,119001681,,0.842409575425,0.00208741544432,0.119595580772,0.771473022297,0.627763703399,0.0389163323949,0.0960605415099,-0.0565726206176,-0.212938599601,-0.082393772679,-0.119559851184,0.109511585817,0.557049003388,0.19009193778,0.877222537994,0.601462304592,-0.434845894575,0.294411212206,-0.248090267181
2017/07/09/09:43:03.328290,296799,1499564586,128997393,,0.841304830644,0.000286786642662,0.117892550689,0.770652858262,0.628926257671,0.0380531947902,0.0953828539651,-0.0583335999772,-0.143095145864,-0.0918114422121,-0.0334449309667,0.132365788599,0.477229302528,-0.0927042067051,0.218278393149,-0.00934954173863,-0.319686800241,0.320487588644,-0.224602341652
2017/07/09/09:43:03.338049,296800,1499564586,139008356,,0.840979113668,-0.0013923126239,0.11760082457,0.770361421864,0.629281114315,0.0381006904598,0.0953776507191,-0.0599383174862,-0.18397522151,-0.102925867642,-0.0417384735383,0.105321394793,0.30094496856,1.06873631477,1.37917864323,0.700055480003,-0.506554722786,0.756104648113,-0.287075489759
2017/07/09/09:43:03.348060,296801,1499564586,148994959,,0.840267989627,-0.00316972688514,0.116888157371,0.768028133559,0.632175174151,0.0375225265879,0.095285860689,-0.0514504180777,-0.197473533527,-0.0893089070614,-0.0656116851338,0.0740749641114,0.33142003751,-0.00760288722813,0.204570442438,1.05477786064,-0.306190669537,0.459855467081,-0.205099612474
2017/07/09/09:43:03.358207,296802,1499564586,158995378,,0.83986323932,-0.00416731686586,0.115711588945,0.765985106701,0.634724559414,0.0372713870987,0.0948809448369,-0.0461628673805,-0.163035839393,-0.0647431447832,-0.0852227057848,0.0992922900086,0.563584914955,-0.776723861694,0.577158749104,0.646874189377,-0.309184759855,0.0706107914448,-0.0810212641954
2017/07/09/09:43:03.368391,296803,1499564586,168992795,,0.838630990967,-0.00618201339038,0.114665827753,0.764051073446,0.637191292155,0.0360179104861,0.0944241732402,-0.066530476919,-0.160373073863,-0.0876070592884,-0.0841146927824,0.155840803439,0.670867876256,-0.16878028214,-0.106534205377,-0.157836556435,-0.158596262336,0.343764066696,-0.0547926202416
2017/07/09/09:43:03.378031,296804,1499564586,179009996,,0.83751493697,-0.00831678439365,0.113354889637,0.762203472949,0.639518835456,0.0349363230374,0.0940264763431,-0.0759116466141,-0.15138525162,-0.0990832596385,-0.0706841498288,0.181326209595,0.69707286273,0.0910579264164,-0.66882532835,0.0418276637793,-0.0327199809253,0.492643743753,-0.0775511488318
2017/07/09/09:43:03.388354,296805,1499564586,188992983,,0.837164004904,-0.00973158140987,0.11283674881,0.760669630085,0.641372292982,0.0349982007972,0.0937999019347,-0.0749452282677,-0.185793517221,-0.086822997869,-0.113998528198,0.165075726842,0.632925748021,0.508967518806,-0.550349414349,0.307781010866,-0.0494853891432,0.688598692417,-0.0958519652486
2017/07/09/09:43:03.397940,296806,1499564586,198993610,,0.837145305059,-0.0108734198058,0.112408972006,0.758618367563,0.643765762043,0.0347828059703,0.0940955494513,-0.0729001174721,-0.183887990139,-0.0817363021325,-0.0859916053777,0.138020690475,0.55603501628,0.847663223743,0.423455566168,0.627388358116,-0.343724548817,0.762047111988,-0.119607262313
2017/07/09/09:43:03.407946,296807,1499564586,209006736,,0.836559206916,-0.0119294712241,0.111182033889,0.756708849044,0.646100318115,0.0342020558677,0.0936819944547,-0.0480442368925,-0.158351299517,-0.0714010866023,-0.0624614927598,0.0843883486235,0.527562680903,0.302307158709,0.971282601357,0.815371394157,-0.491212129593,0.584525883198,-0.144759058952
2017/07/09/09:43:03.418073,296808,1499564586,219007316,,0.835831560346,-0.0144575566841,0.110352870757,0.756040514538,0.646923135749,0.0337055436348,0.0935795551246,-0.0566732225677,-0.171479887693,-0.0856637583279,-0.0302497342065,0.0922367490821,0.445990694573,0.234221369028,0.480687320232,-0.0840504392982,-0.461284309626,0.514906823635,-0.11933504045
2017/07/09/09:43:03.428082,296809,1499564586,228996805,,0.835653194087,-0.0154267533573,0.109597335756,0.755210646656,0.647916798509,0.0345770183497,0.0930866864256,-0.0456387685159,-0.174196083139,-0.0740941576078,-0.0331228627253,0.0569467195844,0.367712144609,0.69590985775,0.0792644098401,-0.111923888326,-0.329911649227,0.741621613503,-0.0984994992614
2017/07/09/09:43:03.438198,296810,1499564586,238999373,,0.835175712028,-0.0164322697383,0.108677213266,0.754116880774,0.649258491029,0.0344570536918,0.0926490874712,-0.0337260161003,-0.141337948184,-0.0735141564189,0.0214900666907,0.0245956424105,0.32453063457,0.627087056637,0.0690269693732,-0.246350809932,-0.258271574974,0.661056697369,-0.067020714283
2017/07/09/09:43:03.448241,296811,1499564586,248999255,,0.834767637063,-0.0183290419576,0.108182348521,0.753709684185,0.649737097572,0.034885362708,0.0924468900093,-0.0319011686665,-0.13098545745,-0.0757120030639,0.0675111357152,0.00431407052007,0.266554024321,0.651624977589,-0.233177632093,0.422754496336,-0.163180589676,0.593048870564,-0.0052911862731
2017/07/09/09:43:03.458034,296812,1499564586,259006021,,0.834735861703,-0.0190700514471,0.107670612573,0.753515114816,0.649982181232,0.0357302939492,0.0919863137622,-0.00215496171781,-0.0878684005117,-0.0573377553527,0.127996444605,-0.0602743556524,0.200171030237,-0.0848157927394,0.104712933302,0.540028989315,-0.226690486073,0.276027202606,-0.0134659931064
2017/07/09/09:43:03.468119,296813,1499564586,268998609,,0.834452139778,-0.0196871677817,0.106746040535,0.753629181781,0.649907634645,0.0369335202034,0.0910990553392,-0.0106081967111,-0.0935599077548,-0.0717391858395,0.180169617043,-0.0678805190103,0.105668526385,-1.23809659481,-0.089876525104,0.573886871338,-0.209337055683,-0.15320789814,0.042588122189
2017/07/09/09:43:03.478554,296814,1499564586,279001631,,0.834880338771,-0.0197348195735,0.105837534243,0.753651254192,0.649889237623,0.0383335862918,0.0904671323628,0.0061691861735,-0.0633435203286,-0.0521639184126,0.264169622079,-0.12285446175,0.044348672621,-0.831873893738,0.34492880106,0.115485467017,-0.375312834978,-0.0370303206146,0.0275983661413
2017/07/09/09:43:03.487896,296815,1499564586,289033761,,0.834832145552,-0.0207587856494,0.105843864606,0.753893158246,0.649580807035,0.039514650053,0.0901580474078,0.00381923402817,-0.0439810217048,-0.079977008532,0.2965099374,-0.114093832475,-0.00465467402667,0.485186904669,-0.087210893631,0.392564177513,-0.584707379341,0.566721081734,-0.0516389906406
2017/07/09/09:43:03.498045,296816,1499564586,299000334,,0.835092073689,-0.0214383049142,0.105140670152,0.754262685717,0.649091285809,0.0404719566178,0.0901683112258,0.0277576130649,-0.0617769367882,-0.0534620403083,0.224322364502,-0.165563438344,-0.0447896883437,0.344041019678,0.105433791876,0.321900755167,-0.754278540611,0.552355647087,-0.102529227734
2017/07/09/09:43:03.508151,296817,1499564586,308994378,,0.834793746083,-0.0228976076946,0.104450789745,0.7547130092,0.648573322872,0.0408811228273,0.0899424949655,0.00630977892249,-0.0878983818322,-0.0535164869732,0.153449267781,-0.122261672835,-0.0844439794552,0.0125416228548,-0.478585064411,0.0250249318779,-0.687228322029,0.563843011856,-0.17588673532
2017/07/09/09:43:03.518043,296818,1499564586,318999555,,0.835345114123,-0.0231618958077,0.104399574424,0.75500845945,0.648121850558,0.0420370189411,0.0901841561856,-0.0112284718134,-0.107271980281,-0.0530084584235,0.140677616275,-0.0963888638615,-0.13113812914,-0.742290198803,0.735111057758,0.345881462097,-0.925489187241,0.142967715859,-0.199785321951
2017/07/09/09:43:03.528305,296819,1499564586,329002176,,0.835105035756,-0.0233000052646,0.103469290033,0.75572010886,0.647354479431,0.0431450531436,0.0892064987228,0.000388101855253,-0.0768359615985,-0.0555250971483,0.162825289849,-0.112824957445,-0.165678577961,-0.124678626657,0.669422149658,0.281767815351,-0.796304523945,0.363296359777,-0.205287799239
2017/07/09/09:43:03.538089,296820,1499564586,339002507,,0.835535540307,-0.0240783736219,0.102878563937,0.756212512211,0.646669821376,0.044227695113,0.0894689302582,0.00626235177499,-0.0735374093229,-0.0541210392213,0.164285092091,-0.123532672785,-0.17990569894,0.519796133041,0.513723611832,0.113154016435,-0.643652379513,0.5476526618,-0.185172706842
2017/07/09/09:43:03.548470,296821,1499564586,348995643,,0.834811343692,-0.025000291878,0.10195724382,0.756993648675,0.645842445534,0.0443933879002,0.0887545971964,0.0118722442346,-0.0560152187202,-0.0633908485584,0.195269807061,-0.130671420944,-0.179345214372,-0.136343181133,-0.441370636225,-0.291843086481,-0.390136867762,0.379329741001,-0.106895461679
2017/07/09/09:43:03.558124,296822,1499564586,359000924,,0.836090931102,-0.0248531751265,0.102434146294,0.757177196262,0.645428121052,0.0461454264988,0.0893075228056,0.0006334506153,-0.0812740821335,-0.0649527427183,0.148636992326,-0.105908201598,-0.173430605255,0.323196530342,0.752093851566,-0.0349537208676,-0.667411148548,0.415446996689,-0.242633417249
2017/07/09/09:43:03.568143,296823,1499564586,369000862,,0.835262457056,-0.0262976006643,0.101432714458,0.757878348709,0.644677301518,0.0462321254836,0.0887365541256,0.00712951947232,-0.05258064639,-0.0471010285647,0.158607292416,-0.109002062545,-0.143798786542,-0.0420242361724,-0.0895334333181,0.0890580862761,-0.552431881428,0.285649001598,-0.163766443729
2017/07/09/09:43:03.578154,296824,1499564586,378994210,,0.835853024448,-0.0261325097461,0.10113927145,0.758160549596,0.644257386421,0.0476122799401,0.0886457662737,0.0113456562305,-0.0512830527989,-0.0422774707062,0.172891898598,-0.122365115897,-0.164108711998,0.381528019905,-0.0729010626674,0.263115912676,-0.511156022549,0.493650197983,-0.182445079088
2017/07/09/09:43:03.588355,296825,1499564586,389002391,,0.835949219332,-0.0257988936338,0.100115488494,0.758315282406,0.644108698703,0.0481004236011,0.0881377670143,0.0336136230174,-0.0399002661002,-0.0403925035454,0.167950820693,-0.164946522678,-0.136021658086,0.662457346916,0.775914311409,-0.345221430063,-0.641819357872,0.604194581509,-0.208369523287
2017/07/09/09:43:03.598201,296826,1499564586,399015909,,0.836468801575,-0.0269276625912,0.100493203534,0.759095042847,0.643014833192,0.0494044229628,0.0886895890844,0.0264240875139,-0.0382037779317,-0.0436232538171,0.145838440112,-0.146269424053,-0.13217639214,1.17138326168,-0.0674467161298,0.366933226585,-0.435568213463,0.798421502113,-0.177495062351
2017/07/09/09:43:03.607958,296827,1499564586,409018320,,0.837055060596,-0.027621170713,0.100614316568,0.759393205291,0.642533459352,0.0502613310358,0.0891432104758,0.0376511703523,-0.0526134082399,-0.018972805854,0.121167747896,-0.177445760747,-0.128990134322,0.72622770071,0.394965797663,0.554765164852,-0.445843607187,0.571084141731,-0.171257615089
2017/07/09/09:43:03.618269,296828,1499564586,419000365,,0.836730660773,-0.0278566730316,0.100032360257,0.75968124331,0.642215826686,0.0508743946359,0.0886286437167,0.0213366398838,-0.0379030037126,-0.0350975008021,0.0997818983638,-0.112665911893,-0.0837394233231,-0.780726730824,0.203183621168,-0.0158061143011,-0.427345663309,0.103889219463,-0.126632928848
2017/07/09/09:43:03.628014,296829,1499564586,428993604,,0.837147589721,-0.0286184001276,0.0998315694657,0.760236179722,0.641463846814,0.0516827108749,0.0888480819647,0.00263738523585,-0.0623347936902,-0.0399623630082,0.094523407376,-0.0807674575629,-0.123907840666,-0.232239425182,0.356296658516,-0.130100816488,-0.55169570446,0.194820761681,-0.202756285667
2017/07/09/09:43:03.638111,296830,1499564586,439000909,,0.837140573216,-0.0286170236657,0.0990545877332,0.760339298602,0.641349391646,0.0519796359983,0.0886184308022,-0.0041076620716,-0.0475041523377,-0.0477478527719,0.091361099817,-0.0566688458066,-0.0937974464879,0.613992154598,0.685302615166,0.20334687829,-0.532602012157,0.428018212318,-0.18922932446
2017/07/09/09:43:03.648202,296831,1499564586,449001056,,0.837509459612,-0.0286788516388,0.0990662398287,0.760357773032,0.641261134774,0.0526196880419,0.088720811808,0.0481725650728,0.0137122395628,-0.0241784529545,0.105582315172,-0.126431922846,-0.0169007193953,0.658992230892,0.330396920443,-0.0361641906202,-0.449155330658,0.567260444164,-0.168125972152
2017/07/09/09:43:03.657936,296832,1499564586,459000733,,0.838200888749,-0.0283610692619,0.0991476853962,0.760120774933,0.641437821504,0.0533872113154,0.0890153600653,0.0286148242926,-0.00186085290614,-0.0327136488232,0.0982390141524,-0.0962213018095,-0.0371508111695,1.01304972172,0.444188594818,0.44331407547,-0.484103649855,0.680575847626,-0.196941718459
2017/07/09/09:43:03.668264,296833,1499564586,468999792,,0.837914220951,-0.0294446646083,0.0984594321113,0.760759916,0.640671357441,0.05386212161,0.0887887032114,0.00860482091005,-0.0512356992912,-0.0239404477294,0.0621798701955,-0.082820064977,-0.0729860133301,-0.303422778845,-0.0703198164701,0.15960560739,-0.376111268997,0.232806175947,-0.151884496212
2017/07/09/09:43:03.678205,296834,1499564586,479006159,,0.838282130038,-0.0292067419984,0.0984243121817,0.760748068944,0.640618514765,0.054264746775,0.0890260152789,0.0130793660628,-0.0479954026657,-0.0337552320208,0.070850639113,-0.0947420840851,-0.0794922520273,0.503101706505,0.44186425209,0.558227419853,-0.365213155746,0.550759136677,-0.162450492382
2017/07/09/09:43:03.688006,296835,1499564586,488996936,,0.838284265851,-0.0301119061596,0.0975703960904,0.761013199104,0.64027098612,0.0544728852454,0.08913293384,0.0164433919884,-0.0186941574274,-0.0340851138189,0.0467354376629,-0.0656412759848,-0.0467048684711,0.913045883179,-0.164904356003,0.156855583191,-0.286225229502,0.724797606468,-0.155379965901
2017/07/09/09:43:03.698128,296836,1499564586,499001228,,0.838552103773,-0.0294709277529,0.0973920488242,0.761116517297,0.640150741705,0.0552825777763,0.0886143983018,0.00739227339486,-0.0218605341347,-0.0424510045856,0.0666405534753,-0.0484718852384,-0.0386509330396,0.363101780415,0.219217285514,0.260051310062,-0.327900201082,0.49594733119,-0.123318120837
2017/07/09/09:43:03.708171,296837,1499564586,508994948,,0.837862806093,-0.0299961585169,0.0965073401984,0.761388374215,0.639947421654,0.0547943725945,0.0880489515027,0.0171796452158,-0.00364584856681,-0.0396411520866,0.0639220770209,-0.048480206278,-0.0144299318809,0.20955337584,0.335486292839,0.134444788098,-0.382655709982,0.41900280118,-0.133078932762
2017/07/09/09:43:03.718085,296838,1499564586,519008620,,0.838189105939,-0.0305010296329,0.0967728166153,0.761542141613,0.639667430077,0.0552248293142,0.0884836915703,0.0167133783307,0.0170192335786,-0.0388670294478,0.0792593355898,-0.0361602290053,0.00253622723692,-0.541536509991,0.406545341015,0.585030794144,-0.392048358917,0.047116547823,-0.117069363594
2017/07/09/09:43:03.728031,296839,1499564586,528999490,,0.838420789618,-0.0303852890504,0.0964939397823,0.761309788369,0.639900021351,0.0555118359917,0.0886216952772,0.0175297965554,0.00154299154939,-0.030431689666,0.0367798642133,-0.0344252462666,0.0169842703036,-0.901763498783,-0.0450363457203,0.762569725513,-0.289005339146,-0.115143433213,-0.078967705369
2017/07/09/09:43:03.738037,296840,1499564586,539001021,,0.838176532018,-0.0306090130062,0.0958010723664,0.761499785127,0.639734844907,0.055392881908,0.088255504633,0.0120759086573,-0.0233512011348,-0.0262509465357,0.0353501199746,-0.0497652156755,-0.0211803617099,-0.848039984703,-0.00715495646,0.117516726255,-0.35751798749,0.00878762174398,-0.135626137257
2017/07/09/09:43:03.747925,296841,1499564586,549014484,,0.838880277391,-0.0306712465257,0.0960115690047,0.761683153084,0.639385972362,0.0564030134431,0.0885610113323,-0.00207514025528,-0.0423106843021,-0.0356019464381,0.0363805453093,-0.034399318183,-0.0736363977236,-0.217768266797,0.0194762274623,0.262724280357,-0.220725461841,0.188057541847,-0.0920017808676
2017/07/09/09:43:03.757922,296842,1499564586,559014901,,0.838743346413,-0.0305009248067,0.0954586090067,0.761765349492,0.639316990265,0.0563882102469,0.0883612359417,0.0237268122075,-0.00466094954808,-0.0105204775575,0.0258761787728,-0.0666096206479,-0.00742405991961,-0.168016761541,0.314197152853,0.253388375044,-0.203161805868,0.264596819878,-0.0700048059225
2017/07/09/09:43:03.768305,296843,1499564586,569003838,,0.839188720205,-0.0304030738145,0.095477115196,0.761742186402,0.639271749207,0.056916713614,0.0885491944177,0.0183976030466,0.0115008448107,-0.0231174075469,0.03168745706,-0.0399993330203,0.00961581335791,0.325504750013,0.0823876857758,0.687859117985,-0.253998607397,0.552124738693,-0.128959685564
2017/07/09/09:43:03.778247,296844,1499564586,578999947,,0.838819578162,-0.0312636609232,0.09532912523,0.762070357848,0.638908843732,0.0565253606012,0.0885953875729,0.00403264644493,-0.00113735142779,-0.0330748642419,0.0281604653034,-0.0136454164446,-0.0171129081071,0.317950457335,0.0271301046014,0.587706625462,-0.257584869862,0.570721805096,-0.133504867554
2017/07/09/09:43:03.788266,296845,1499564586,589002428,,0.838846549416,-0.0309230556221,0.09473302627,0.762161640193,0.638818591291,0.0568176148442,0.0882734404209,-0.00834355429377,-0.0234119138598,-0.0320866601748,0.0202910972263,0.0106246033383,-0.0415132929774,-0.341496706009,0.15765440464,0.390540808439,-0.389380425215,0.327582806349,-0.180648863316
2017/07/09/09:43:03.798133,296846,1499564586,598995826,,0.839027881361,-0.0312367653512,0.0951831046605,0.762077571148,0.638859030391,0.0570729779359,0.0885414593877,-0.0263807853606,-0.0379836317925,-0.0285066633657,0.0189954903134,0.0279753199119,-0.0624777175234,-0.122751913965,0.506487131119,0.69617831707,-0.51367777586,0.397011727095,-0.197067469358
2017/07/09/09:43:03.808181,296847,1499564586,609000847,,0.838797374597,-0.0312577139378,0.0946120562363,0.761948121287,0.639073242476,0.0567790931659,0.0882982774284,0.00516134345294,-0.00580775156119,-0.0129079190524,0.037232708192,-0.0253878447682,-0.0198846321665,-0.567961931229,0.394546806812,0.734668016434,-0.38879057765,0.217334493995,-0.154382884502
2017/07/09/09:43:03.818159,296848,1499564586,619014022,,0.839123459027,-0.0306190551853,0.094841718996,0.761799215559,0.63921012428,0.0573024000831,0.0882542188095,0.00737600035102,0.0308774722106,-0.017369846815,0.0522562566677,-0.00858923734242,0.0162756351341,0.124319568276,0.224817812443,0.933713376522,-0.323438763618,0.415993779898,-0.130645647645
2017/07/09/09:43:03.828222,296849,1499564586,628999836,,0.838926910326,-0.0309279673554,0.0942626136991,0.761848646317,0.639185008243,0.0569892251166,0.088212207558,0.000605507854395,-0.00331945236538,-0.00534792082012,-0.000247978942836,-0.00871935826149,0.00891224974353,0.154769599438,0.256794214249,0.672728478909,-0.289211899042,0.377703487873,-0.128899902105
2017/07/09/09:43:03.838154,296850,1499564586,639004752,,0.839204607711,-0.0308427769646,0.0945385001508,0.761807722201,0.639178553608,0.0571809061434,0.0884879368897,0.00908641560684,0.00755823951005,-0.0121522171288,-0.0121008906339,-0.00742019957322,0.0164818410951,0.630676388741,-0.468627214432,0.478544890881,-0.136624380946,0.586575388908,-0.120410382748
2017/07/09/09:43:03.848109,296851,1499564586,649000667,,0.839208270752,-0.0310000113953,0.0943246917853,0.761939088265,0.639014477762,0.0572280917866,0.0885114031893,0.00564517260305,3.35200118187e-06,-0.0210075604393,-0.0145447129451,-0.00364759187318,0.0288286064114,1.54988205433,-0.348567992449,0.607334971428,0.0161057002842,0.869342267513,-0.0703745037317
2017/07/09/09:43:03.857840,296852,1499564586,658994477,,0.839090789693,-0.0311791403618,0.0942130699956,0.761748273864,0.639266668901,0.0570965104371,0.0884176554405,0.00160160693326,-0.013393019967,-0.0189950136318,0.00168743431772,-0.012351101456,-0.00195967870989,0.797993779182,0.0795583128929,0.595223665237,-0.114605121315,0.532244086266,-0.0970889180899
2017/07/09/09:43:03.868182,296853,1499564586,668997814,,0.839278272898,-0.0311505720365,0.0939488589008,0.761806758991,0.639170211818,0.0571392282904,0.0885833554918,0.0127167359453,0.00868244078564,-0.00741501037822,-0.000336566179141,-0.0146914684723,0.0160343532237,0.564046025276,-0.648068010807,0.388111740351,0.0165698491037,0.541141271591,-0.0594920665026
2017/07/09/09:43:03.878169,296854,1499564586,679002392,,0.838903716011,-0.0310368745941,0.0934886296598,0.761706912064,0.639348028082,0.0568222365719,0.0883623932018,0.00626220018298,-0.0120259034955,-0.00450202357711,-0.0135870170067,-0.0174169596121,-0.0121871705173,0.498904258013,-0.317848473787,0.256284475327,0.00374654307961,0.52361613512,-0.0717334151268
2017/07/09/09:43:03.888108,296855,1499564586,689000586,,0.839975371578,-0.0307922255181,0.0939987770599,0.761523053561,0.639403122929,0.0577788852191,0.088926293675,0.00892635205602,0.000816017255938,-0.00728430616832,-0.0114798757945,-0.0110181300008,0.0105527883914,0.333304315805,-0.2619561553,0.406727254391,0.0362911596894,0.416639059782,-0.0540632307529
2017/07/09/09:43:03.898057,296856,1499564586,698994175,,0.839659932711,-0.0308526910658,0.0939376306364,0.761634192082,0.639332522628,0.0574276523189,0.0887093439841,-0.00451038219988,-0.00950316631505,-0.0115256660195,-0.00208831772091,0.00683013021733,-0.0134258945924,-0.0263183694333,-0.217777401209,0.579234242439,0.0181647203863,0.290914773941,-0.0359889157116
2017/07/09/09:43:03.908063,296857,1499564586,708995774,,0.839399314378,-0.0311285509155,0.0938467928558,0.762006332978,0.638899982288,0.0573012844412,0.0887114645109,0.0117888626986,-0.00865494339621,0.00297711711462,-0.0226391385722,-0.0242652495017,-0.00180641615599,-0.143683075905,-0.174691975117,0.365510851145,-0.0882217437029,0.235763967037,-0.0740280821919
2017/07/09/09:43:03.918332,296858,1499564586,719000748,,0.839091475304,-0.0317217891499,0.0935257998994,0.761597718639,0.639418617161,0.0565984210627,0.0889346148873,0.00590894164452,-0.00619470812284,0.00325054483042,0.00501777450619,-0.0241040754665,-0.0203755045622,-0.448974937201,-0.194131329656,0.186749517918,-0.00437603145838,0.0819419324398,-0.0216770544648
2017/07/09/09:43:03.928187,296859,1499564586,728997387,,0.839654808668,-0.0306040666152,0.0936700031201,0.761619075134,0.63935012725,0.0576081939985,0.0885951192842,-0.00244385253334,0.0074650888835,-0.0113432086524,-0.00772554373751,0.0140451201771,0.0173327203044,0.359703987837,0.227392911911,0.226094305515,-0.128742128611,0.299298107624,-0.102077305317
2017/07/09/09:43:03.938312,296860,1499564586,739000620,,0.83869416705,-0.0308568654856,0.0932102835518,0.761712629606,0.639398934044,0.0569066874025,0.0878891459204,0.00119387148955,-0.0002077727316,-0.00673215429384,0.0126731806241,-0.0138869941152,-0.00719744811392,-0.563759982586,-0.295248866081,-0.110880061984,0.0112727619708,0.0336325988173,-0.0258769914508
2017/07/09/09:43:03.947939,296861,1499564586,749005363,,0.839116090958,-0.0320991310192,0.0935978216675,0.76175450851,0.639195023636,0.0568237429203,0.0890553354058,0.00893098127602,0.0106805922138,0.00306289047946,0.00485528861954,-0.0211498446643,0.024550920658,-0.321113228798,-1.18506252766,0.212335839868,0.1021181494,0.164102807641,-0.0181807354093
2017/07/09/09:43:03.958035,296862,1499564586,759006731,,0.839788915705,-0.031363223055,0.0935753065997,0.761681766476,0.639213717885,0.0572894734305,0.0892447517798,0.00187888518311,-0.0156000150514,-0.00425500013907,-0.0119743446823,-0.0104658994173,-0.0177513366877,0.0293236933649,-0.0210043489933,0.277615129948,-0.103415563703,0.20263813436,-0.067687176168
2017/07/09/09:43:03.967939,296863,1499564586,768994070,,0.839372297768,-0.0313853451695,0.0933373249076,0.761888296684,0.639039118592,0.0573422888595,0.0886966188365,0.0123077514563,-0.000900252496747,0.00422416668876,0.00800140112041,-0.0339606811622,-0.00859010880812,0.0128812901676,-0.312197715044,0.405600726604,0.0589104369283,0.248040303588,-0.0182047449052
2017/07/09/09:43:03.978204,296864,1499564586,778993487,,0.83979989488,-0.030595295613,0.0936609825573,0.761675235432,0.639257178308,0.0576051938489,0.0887847810831,0.00629813430017,-0.0052963652378,0.00148854639585,-0.00872070990458,-0.0156211301373,-0.00203778628186,0.33803036809,0.556515812874,0.525955796242,-0.108671732247,0.309210807085,-0.0798127949238
2017/07/09/09:43:03.988272,296865,1499564586,789006707,,0.839691314268,-0.0310425022285,0.0940717514275,0.76170383921,0.639190787816,0.0574787725233,0.0890987587627,0.00168214465667,0.00147328694081,0.00257438622581,-0.00507842065825,-0.00471686019158,0.00292960344302,-0.384611129761,0.0181157290936,0.319306671619,-0.00748785957694,0.110990799963,-0.0124702751637
2017/07/09/09:43:03.998111,296866,1499564586,798997387,,0.840276299237,-0.0306162979087,0.0941436540952,0.761364845229,0.639532404623,0.0577285990263,0.0893827989078,0.0126581097851,0.000671657840431,0.0100456949376,0.00428767688843,-0.030259517325,0.00618749202072,0.755053162575,0.124414801598,0.512915492058,0.0441110208631,0.490204632282,-0.0172684639692
2017/07/09/09:43:04.008286,296867,1499564586,809001228,,0.839850915523,-0.0311489863479,0.0939793420014,0.762051896125,0.638746759349,0.0579115131928,0.0890266346312,0.0038633546556,-0.000165088529537,-0.00795831773323,-0.0101690801524,-0.00383678119979,0.0159636050825,-0.28825455904,-0.213649600744,0.404667675495,0.0866556018591,0.165621012449,0.00402397662401
2017/07/09/09:43:04.018176,296868,1499564586,819007455,,0.839981249115,-0.0315200036797,0.0941885776658,0.761572685005,0.639276486448,0.0575334947941,0.0895685006295,0.000335541307125,-0.018878510257,0.00642292585163,-0.0182377309111,-0.0132842205432,-0.0142784502438,-0.0469205528498,-0.181752830744,0.543961346149,0.0813372656703,0.272862613201,-0.0132860280573
2017/07/09/09:43:04.027997,296869,1499564586,829005708,,0.839836321339,-0.0313393711125,0.094113826901,0.761669935852,0.639201737263,0.0576968401027,0.0891690671792,0.00530996187278,-0.00208077234824,0.0116547473751,-0.0126058609218,-0.0118076331182,-0.00469312209099,0.319226980209,-0.165635958314,0.0866275206208,-0.0101372897625,0.392335295677,-0.0633528158069
2017/07/09/09:43:04.038168,296870,1499564586,838998745,,0.839671191205,-0.0317105273672,0.0939829795556,0.762086784315,0.63870241024,0.0576022866313,0.0892465175864,0.00577507299092,0.0154873996574,0.000617933934392,0.0208901336906,-0.00403658748259,-0.0101180864784,-0.442728996277,-0.596524596214,0.304269641638,0.16208307445,0.0886945053935,0.0312504395843
2017/07/09/09:43:04.047933,296871,1499564586,849003728,,0.839840861779,-0.0312945902373,0.0940736921648,0.761987212754,0.638828925259,0.0576172034634,0.0891815548022,-0.00122428787011,0.00681526225075,-0.00365411965339,0.021532371839,0.00117802471107,0.00944382738341,-0.171563029289,-0.143761336803,0.30477398634,0.146013483405,0.153282418847,0.0280027315021
2017/07/09/09:43:04.058085,296872,1499564586,858998313,,0.839524063425,-0.0308428355213,0.0935378355965,0.76195731413,0.638946040333,0.05764274799,0.0885794704799,-0.014538151046,-0.00206077054858,-0.00649883220272,0.00910462095725,0.0273672057891,-0.0101556623982,-0.275830805302,-0.111752957106,0.0274500250816,0.0121656097472,0.121558509767,-0.0237416177988
2017/07/09/09:43:04.068275,296873,1499564586,869009310,,0.839912151475,-0.0304732907203,0.0935563302223,0.761883675997,0.63897987938,0.0581554662771,0.0886336264565,-0.00369174773457,-0.00168318492594,-0.00220874775851,0.0219919325524,-0.00211137394635,-0.0164952793388,0.0856667086482,-0.106158420444,0.210291564465,0.00488867983222,0.269812971354,-0.0496942959726
2017/07/09/09:43:04.078082,296874,1499564586,879000916,,0.839331931932,-0.0315679021756,0.0937453843018,0.762004536579,0.638870902007,0.0575084791575,0.0888022050801,-0.00104895253137,-0.00695672131494,0.000874473525714,-0.0209881609817,0.00622331497818,0.00182644091145,-0.144517153502,-0.887962400913,0.374811321497,0.17291046679,0.268067419529,0.00331255793571
2017/07/09/09:43:04.088363,296875,1499564586,889007002,,0.839532906884,-0.0309429200648,0.0935409409533,0.761580752851,0.639390932546,0.0572035407119,0.088891772363,-0.00280696360306,-0.00864396764604,0.00675418107386,-0.0141368457006,0.00545185075102,0.000356996291884,0.314206272364,-0.0947171673179,-0.0232750140131,0.0507198572159,0.34548330307,-0.0241009965539
2017/07/09/09:43:04.098080,296876,1499564586,898999809,,0.839985282315,-0.0310671466521,0.0938978993465,0.761722612937,0.639132790964,0.0579073821389,0.0890767733365,0.0024932377527,0.0115980479193,-0.00244317572848,-0.000126533774276,0.00715001811371,0.0135397785455,0.480436682701,-0.497985243797,0.273148387671,0.173199981451,0.388456135988,-0.00510557740927
2017/07/09/09:43:04.108219,296877,1499564586,908995294,,0.839577659875,-0.0311892231731,0.0936629126405,0.76179772084,0.639111012849,0.0575550113632,0.0888187280119,0.0174873412147,0.00616086492919,0.00300962133956,0.00446567820498,-0.037082751195,0.00235091891025,-0.628546416759,-0.0299705564976,0.0452076494694,0.0291056446731,0.0473488941789,0.00315322726965
2017/07/09/09:43:04.118111,296878,1499564586,919013638,,0.840198459985,-0.0309831185879,0.093969909714,0.761713004274,0.63910585508,0.058036798304,0.0892677722609,0.0138953581897,0.00585809888929,0.0136352229287,0.0046756739897,-0.0308019140367,0.0142768325268,-0.630577325821,-0.198110342026,0.0141404895112,0.0867146626115,0.0466637760401,-0.00736104696989
2017/07/09/09:43:04.128041,296879,1499564586,928994126,,0.840175198888,-0.0303472926531,0.0940570547948,0.761417246283,0.639492375898,0.0581720702457,0.0889341805753,0.00137962812818,0.00512828828932,-0.0116957165446,0.00917755445702,-0.00209108874375,0.000334079495185,-0.153708100319,0.125262930989,0.415485262871,-0.0127950645983,0.145876824856,-0.00456918403506
2017/07/09/09:43:04.138291,296880,1499564586,939000399,,0.839821090748,-0.031425883883,0.0940240352456,0.761559418662,0.63932312861,0.0574397112142,0.0894084372219,-0.0049866983587,-0.0120633746569,0.00577175336153,-0.0229575308252,0.0104336244402,0.00690641407797,-0.0379031896591,-0.357096165419,0.473530054092,0.0375734344125,0.29233622551,-0.0560376867652
2017/07/09/09:43:04.148128,296881,1499564586,949028496,,0.840149714565,-0.0315369789855,0.0940157925169,0.761942578032,0.63881745778,0.0577215522827,0.0895767035546,-0.00462242233067,-0.0109517368265,0.000491569974831,-0.0171379225423,0.00876118432052,-0.0172191297006,0.613227844238,-0.497332036495,0.484025508165,0.21458119154,0.45708116889,0.00218992680311
2017/07/09/09:43:04.158171,296882,1499564586,959009382,,0.840158022677,-0.0312287121022,0.0937683032791,0.761889027656,0.638906963827,0.0578039918256,0.0893403584073,0.00300217352274,-0.00772498821995,-0.00528020578007,-0.0102915981362,-0.000863867566893,-0.0133783816599,0.190167292953,-0.506962895393,-0.037996686995,0.138446122408,0.318716555834,0.00312183797359
2017/07/09/09:43:04.168025,296883,1499564586,968999928,,0.839872395568,-0.0304753257141,0.0937015541892,0.761559216061,0.639388729593,0.0576065122125,0.0888318785815,0.00804171633863,0.00783398157354,0.00710557141979,0.0147447827786,-0.0212042446994,0.00529058253332,0.513857424259,-0.279466867447,0.330981910229,0.196599781513,0.38563528657,0.0179379582405
2017/07/09/09:43:04.177940,296884,1499564586,979001094,,0.840378774524,-0.0311228598465,0.0945246339861,0.761298131139,0.639568168559,0.0577573205485,0.0896761128309,-0.00473789240789,-0.00162888717977,0.00442788466199,0.00758083693269,0.00426556218516,-0.00630239916301,0.326685577631,-0.356256127357,0.803456544876,0.12805351615,0.347523033619,-0.0074854567647
2017/07/09/09:43:04.188366,296885,1499564586,988994770,,0.8402857236,-0.0316178489096,0.0940873948817,0.761976665376,0.638739551013,0.0579634631626,0.0896860319767,-0.00872927239967,-0.00204053779532,-0.002577467807,0.0148131762567,0.0137558056227,-0.00821087368939,0.606081724167,-0.136982113123,0.336118727922,0.065505117178,0.462820470333,-0.0304490290582
2017/07/09/09:43:04.198012,296886,1499564586,998997977,,0.83984913546,-0.0309863695559,0.0938263552745,0.761688446912,0.639210621374,0.0576654388361,0.0889673452845,0.00894974321658,0.0214316142705,-0.00236630023994,0.0155114128267,-0.00630919407701,0.021856967219,0.378703802824,-0.460265219212,0.0518727563322,0.159549355507,0.41450586915,-0.0139826238155
2017/07/09/09:43:04.208177,296887,1499564587,9000318,,0.839712221558,-0.032824874743,0.0940231701275,0.761933366444,0.638823747607,0.0571978185943,0.0899453953291,-0.0050012167245,-0.00737337875548,-0.00665243100635,0.00387862328081,0.00345523316041,0.0026124703448,-0.370080649853,-1.16302752495,0.564364135265,0.240783765912,0.158905446529,0.0268367081881
2017/07/09/09:43:04.218098,296888,1499564587,18993173,,0.839874936537,-0.030931255941,0.0941623666522,0.761743053157,0.639134177297,0.0577688954359,0.0889819032016,-0.00695600489013,-0.00652991156371,-0.00439799546535,-0.00312801987863,0.0168920543583,-0.0187604847241,0.307835042477,-0.0577256679535,0.303057312965,0.0662018209696,0.376641243696,-0.040192425251
2017/07/09/09:43:04.228094,296889,1499564587,28998129,,0.839784410022,-0.0314079822975,0.0936154425947,0.76173219415,0.639148242126,0.0574204954102,0.0891990789696,-0.00799599452318,0.0169397326736,-0.00704617013331,0.0107669573475,0.0324784861791,0.0226770887529,0.222165316343,0.0422869250178,0.0200247913599,-0.031442604959,0.328755527735,-0.0473418757319
2017/07/09/09:43:04.237975,296890,1499564587,39000987,,0.840176967917,-0.0311827100972,0.0936771689523,0.76145460009,0.639415732055,0.0576420475018,0.0895087032802,0.0160046496689,0.00812215747554,-0.00252515284094,-0.000373712367885,-0.0287854162733,-0.00318014842808,0.451318740845,-0.593393206596,0.537263512611,0.140591546893,0.455767154694,-0.0322620868683
2017/07/09/09:43:04.248093,296891,1499564587,48998921,,0.839877948062,-0.0307947759873,0.0936409411986,0.761441322433,0.639491126476,0.0578149927357,0.0889698727973,0.0187358289324,0.00384743314021,0.00197457586248,-0.00782797125012,-0.0365492381257,0.0134377991477,0.235407203436,-0.164302527905,0.471396535635,0.115848958492,0.403499156237,0.00644883140922
2017/07/09/09:43:04.257884,296892,1499564587,58997327,,0.84044838441,-0.0309796114525,0.09384077844,0.761467889258,0.639369116233,0.0577697612224,0.0896462019576,0.0102957345705,0.0108262708709,-0.00797803875666,0.0115675277398,-0.0172833731778,0.0251612108612,0.678638994694,0.0428318679333,0.616811871529,0.0554883517325,0.487206995487,-0.0451475381851
2017/07/09/09:43:04.267926,296893,1499564587,68994726,,0.840392736978,-0.0309450133826,0.0941332187307,0.761892483837,0.63886222424,0.0582940462785,0.0893124049619,-0.000326349792614,0.0047953316492,-0.00297788254838,-0.00422851843569,0.00778837575587,0.00507165077541,0.8970682621,-0.312629133463,0.507286727428,0.0514888390899,0.684543907642,-0.0496216118336
2017/07/09/09:43:04.277972,296894,1499564587,79000252,,0.840375711906,-0.0302586641548,0.0938132875855,0.761437081022,0.639467753903,0.0581169944813,0.0889774033981,0.00202116284275,-0.00417075640334,0.0104165947234,-0.0039515345563,-0.00735843198533,-0.000126419833429,0.242204964161,-0.0211712568998,0.659323096275,0.0308960005641,0.381275326014,-0.0401499345899
2017/07/09/09:43:04.288358,296895,1499564587,88999480,,0.840460474067,-0.0315216489584,0.094117567738,0.762004180446,0.638676187241,0.0582207140979,0.0897368669223,0.00412344535057,-0.00594472615073,0.00142272755763,-0.0105155018683,-0.00914860071796,0.0153091573551,0.111598752439,-0.670038402081,0.773888111115,0.133775323629,0.384452372789,-0.00952138006687
2017/07/09/09:43:04.298109,296896,1499564587,99005452,,0.840888949989,-0.030317215283,0.0938248386412,0.761759606783,0.638983791955,0.0587902201012,0.0892509109948,0.0127216047122,-0.000810022279251,0.00371290974228,-0.00331455297006,-0.0291749546775,-0.00728046444862,0.138255342841,0.0470921844244,0.568572998047,0.090373262763,0.325801610947,-0.00399644672871
2017/07/09/09:43:04.308070,296897,1499564587,108992951,,0.839950407771,-0.0312119364512,0.0936424328764,0.76189124053,0.638932098776,0.0580829132948,0.088960024397,-0.0139078876904,0.00228408639739,-0.00827721799651,0.0243793276727,0.0289050492084,-0.0215495317476,-0.367424637079,-0.873310208321,0.50495326519,0.193154156208,0.233750373125,0.00838356465101
2017/07/09/09:43:04.318093,296898,1499564587,119005294,,0.840167085869,-0.0309079517977,0.0937779791862,0.761500413522,0.639393792753,0.0575476584954,0.0893362468245,-0.0177783929024,-0.0123416078569,-0.0103739246887,-0.00426269985698,0.0348786497743,0.00104266240762,0.795018553734,-0.52462798357,0.590107321739,0.184458628297,0.559874415398,0.00665570795536
2017/07/09/09:43:04.328018,296899,1499564587,128995276,,0.840084821976,-0.0304035225693,0.0935166830701,0.761516982485,0.639402419777,0.0580236570841,0.0888239054993,-0.00818755079231,0.00699321311584,-0.00349019506667,0.00331327459619,0.0244625998972,0.0164058640808,-0.274869263172,0.0924799889326,0.327695161104,0.0384847223759,0.177398875356,-0.0258568450809
2017/07/09/09:43:04.339359,296900,1499564587,139000552,,0.839628611406,-0.0312691031522,0.0934109064104,0.761668457483,0.639260302926,0.057195656921,0.0890846945754,0.00336647561067,0.013853694788,0.00416841815043,0.0130782620431,-0.0072651772714,0.00256545664091,0.0721139386296,-0.702775537968,0.421346187592,0.153472661972,0.374767065048,-0.00739262998104
2017/07/09/09:43:04.348256,296901,1499564587,148993737,,0.840145465489,-0.0311613031262,0.0940624283884,0.761858344984,0.638940145062,0.0580183128713,0.0892257170225,-0.000179401712913,-0.00909416185164,0.000460514235734,-0.0171975919249,-0.00781134219086,-0.00168297047445,0.687116801739,-0.348817259073,1.11348497868,0.106230169535,0.562082231045,-0.0267848819494
2017/07/09/09:43:04.358202,296902,1499564587,158994866,,0.840467933061,-0.0310378433826,0.0939739398768,0.761619994314,0.639188767572,0.0577697490087,0.0896401682823,0.0127996283918,0.0202832692419,0.00244013763979,0.00534577749623,-0.0133475277729,0.0311550503741,1.08601462841,-0.398783862591,0.644101679325,0.132037132978,0.710332393646,-0.0576986595988
2017/07/09/09:43:04.367895,296903,1499564587,168993180,,0.840332764311,-0.0311324299484,0.0937983804914,0.761794097788,0.638989722945,0.0580441127123,0.0894022791941,0.0124956085678,-0.00343922250685,0.00377196916401,-0.020771259934,-0.0204979693512,0.0211047581836,0.5580727458,-0.470094501972,0.810083389282,0.169542253017,0.56347244978,-0.0189490765333
2017/07/09/09:43:04.378099,296904,1499564587,179001324,,0.840400833824,-0.0310572481451,0.0938793057608,0.761851079371,0.638909549695,0.0581936713684,0.0893924872803,0.00843212899999,-0.00977162778301,-0.000568831348037,-0.0209671997197,-0.0220599805227,0.00341596638516,-0.0565833076835,-0.270998299122,0.757900595665,0.00363149493933,0.387203395367,-0.0960606187582
2017/07/09/09:43:04.388115,296905,1499564587,189001069,,0.840061707401,-0.031628889893,0.0939426493562,0.761846287782,0.638953204304,0.0578669111439,0.0893334041501,0.012160425512,-0.00459493480506,0.00784983085389,0.0042274682973,-0.0342230079929,-0.00320038617813,0.0305143333972,-0.561963498592,0.734373986721,0.117508202791,0.436566829681,-0.0199016183615
2017/07/09/09:43:04.397933,296906,1499564587,198992618,,0.840531516465,-0.0308182153695,0.094011482264,0.761635482559,0.639167502472,0.0581760687808,0.0893970945366,-0.000333292241766,-0.000711921329765,-0.000802786772926,0.00442519455632,-0.00452257078093,-0.0082596945247,0.280714452267,0.0464412719011,0.810385167599,0.0538459680974,0.459636449814,-0.0416974797845
2017/07/09/09:43:04.408089,296907,1499564587,209000924,,0.840195694893,-0.0301063856524,0.0935157175089,0.761271757304,0.639694463026,0.0580232072609,0.0888234930911,-0.0106732293742,-0.00141052485868,-0.015971832097,0.0196945538833,0.0195144988155,-0.0149943546082,-0.140807911754,0.596154987812,0.595696747303,-0.0470862425864,0.313532471657,-0.0273877102882
2017/07/09/09:43:04.418085,296908,1499564587,219001954,,0.839866551581,-0.0316794026532,0.0935225722856,0.762246571676,0.638506881658,0.0579828424209,0.0890343530822,0.00266749071404,0.011099089889,0.00521322887061,0.00774618625476,-0.00418596630416,0.0287788400789,-0.275185286999,-0.770873725414,0.816020786762,0.214816763997,0.281356960535,0.00520804524422
2017/07/09/09:43:04.428261,296909,1499564587,228994532,,0.83997381577,-0.0318351947955,0.0938122478517,0.761606636197,0.639235283949,0.0575742349697,0.0895477019383,-0.000616082415039,-0.0114272548317,-0.0034965812531,-0.0220845083756,0.00291508736667,0.00843982369666,0.443567156792,-0.390232026577,0.391902804375,0.127620607615,0.52977669239,-0.021561589092
2017/07/09/09:43:04.438049,296910,1499564587,239006522,,0.840594817111,-0.031439744576,0.0940361306924,0.762042493193,0.638623812761,0.0582680228985,0.0897535617673,0.0081680574606,0.00761741928351,0.00176238944589,-0.00921638130558,-0.00733443083693,0.0191474388712,0.385036736727,-0.374333709478,0.608948171139,0.0937955603004,0.50553560257,-0.0234382860363
2017/07/09/09:43:04.448247,296911,1499564587,248994863,,0.840306821389,-0.0309563264486,0.0935523375973,0.761574152576,0.639276101013,0.0579632628846,0.0892812239906,0.00843491718555,0.00527532203422,-0.00173868864607,0.0137412058898,-0.0217642870497,-0.0143676887515,0.607815504074,-0.0691565126181,0.577715814114,0.0221845135093,0.585591375828,-0.0687293708324
2017/07/09/09:43:04.457925,296912,1499564587,259006372,,0.840287164085,-0.0308980782494,0.093419216251,0.761544717697,0.639310310922,0.0579804369461,0.089276190715,0.00145698314981,0.00879491159428,-0.000816688470456,0.011094504991,0.00213295024898,-0.00514827008085,0.351481199265,-0.440549701452,0.665230929852,0.13663713634,0.502457261086,-0.0416647195816
2017/07/09/09:43:04.467969,296913,1499564587,268995612,,0.840754434357,-0.0314294520176,0.0939766344352,0.761591909093,0.639120228378,0.0582170181566,0.0900770585621,-0.00550724575338,-0.013804607272,-0.0055771467135,-0.0150705578486,0.00481048715231,-0.0161989179364,0.658028423786,-0.73535579443,1.0995118618,0.223020672798,0.5740198493,-0.0331993177533
2017/07/09/09:43:04.478121,296914,1499564587,279006944,,0.84033235589,-0.031742188286,0.0938756465166,0.761530160271,0.639261527355,0.0576837527298,0.0899394202374,0.011364962168,-0.00756030738499,0.00954106064141,-0.011944135577,-0.0290858026603,0.00198520258721,-0.277296721935,-0.337796002626,0.95196801424,0.0373841971159,0.295241445303,-0.0199711918831
2017/07/09/09:43:04.488348,296915,1499564587,289006410,,0.840632962243,-0.0307376269764,0.0937767095042,0.761437774785,0.639369495675,0.0583042383897,0.0895532183459,-0.00309241212444,0.00243268285575,-0.0113203452734,-0.0234904332811,0.0171721794913,0.0441491353082,0.539911150932,0.0679759383202,0.575086236,-0.00863865017891,0.544700741768,-0.0687113702297
2017/07/09/09:43:04.498194,296916,1499564587,299006551,,0.840854881927,-0.0308699851152,0.093819311906,0.761482750116,0.639284989455,0.0584267499757,0.0896941381671,0.00939077676572,0.00642114518426,0.00371625635864,-0.00690473448391,-0.00809263246386,0.030502776186,-0.14206635952,0.097726687789,0.799596369267,-0.0563921146095,0.309198886156,-0.0461687706411
2017/07/09/09:43:04.507982,296917,1499564587,308994868,,0.840533963482,-0.0314086309417,0.0935344699049,0.761746423461,0.639001661104,0.05832821282,0.0895381652695,-0.00577891326753,0.00483991778275,-0.0038183681434,0.0163910399641,0.0123381720985,-0.0308311477123,-0.276496112347,-0.215827524662,1.11904120445,0.0549272932112,0.189330041409,-0.0128074362874
