time,.header.seq,.header.stamp.secs,.header.stamp.nsecs,.header.frame_id,.pose.position.x,.pose.position.y,.pose.position.z,.pose.orientation.x,.pose.orientation.y,.pose.orientation.z,.pose.orientation.w,.twist.linear.x,.twist.linear.y,.twist.linear.z,.twist.angular.x,.twist.angular.y,.twist.angular.z,.wrench.force.x,.wrench.force.y,.wrench.force.z,.wrench.torque.x,.wrench.torque.y,.wrench.torque.z
2017/07/09/09:30:41.650593,222631,1499563844,449487985,,0.792490349793,0.551621244731,0.249905392168,0.606850612219,0.786251798244,0.0774661399565,0.086829956623,0.104155618568,-0.256125029439,-0.0116220766962,0.00365518189458,0.014514487708,-0.363600390962,3.89211153984,2.36738371849,1.45016300678,-1.1320605278,1.51657104492,-0.403063237667
2017/07/09/09:30:41.660586,222632,1499563844,459492851,,0.792880473361,0.548878151074,0.249095396321,0.607726313777,0.785702599275,0.0764337518058,0.0865911925158,0.101832475179,-0.257430846164,-0.0223975376024,-0.0102871975709,0.0299485242696,-0.351002105454,3.66993880272,2.04903936386,1.3994679451,-0.938488960266,1.47084832191,-0.306297600269
2017/07/09/09:30:41.670796,222633,1499563844,469487029,,0.794408851256,0.545384443192,0.248993880118,0.609881342305,0.784002280197,0.0760337651236,0.0872011440027,0.0950989796606,-0.263874774311,-0.0310095833186,-0.0203308612486,0.0436473487454,-0.366035031319,3.66449832916,2.3659286499,1.3516343832,-1.06078672409,1.43194079399,-0.374622702599
2017/07/09/09:30:41.680663,222634,1499563844,479503319,,0.794556776642,0.544104590116,0.248103571296,0.610257220223,0.783843688058,0.075687814245,0.0862934101269,0.0935228034234,-0.282941600297,-0.0427000269376,-0.0279732388127,0.0628172953551,-0.396053621554,3.75633883476,2.03839254379,1.50175559521,-0.898705422878,1.49927830696,-0.302524387836
2017/07/09/09:30:41.691035,222635,1499563844,489499033,,0.795769945643,0.54038293277,0.248355730304,0.612219271293,0.782306397531,0.0752370859536,0.0867389482123,0.0948389746826,-0.271557839929,-0.0346544334931,-0.00703575354035,0.0575837152461,-0.357832644133,3.84736633301,2.22483515739,1.59839487076,-0.98961597681,1.5375585556,-0.34491071105
2017/07/09/09:30:41.700601,222636,1499563844,499499910,,0.796694464397,0.538248725151,0.248530544051,0.614004762144,0.780919743769,0.0752375410601,0.0866130375343,0.0962904030083,-0.298626604946,-0.0398624803961,-0.0328135471823,0.0675824514409,-0.371149486491,4.6842417717,2.46368503571,1.70173692703,-1.11309564114,1.81887030602,-0.3615026474
2017/07/09/09:30:41.710480,222637,1499563844,509492862,,0.797701973511,0.535227883695,0.247693956844,0.615257013528,0.779984456368,0.0746764474819,0.0866399637641,0.0855389933629,-0.281064177225,-0.0275885198642,-0.0171137142002,0.0658361365739,-0.397859161372,4.16082000732,2.19389057159,1.66540646553,-0.991979539394,1.62511873245,-0.344956576824
2017/07/09/09:30:41.720750,222638,1499563844,519490103,,0.798589955084,0.532466999375,0.247466082134,0.616283425495,0.779192036793,0.0740413898978,0.0870194336951,0.0952611813021,-0.27415473433,-0.0217556053628,-0.00979486900462,0.0348251702067,-0.393402129136,4.07351779938,2.10147500038,1.47968626022,-0.90510982275,1.55302023888,-0.307144761086
2017/07/09/09:30:41.730732,222639,1499563844,529488937,,0.799650996353,0.52949257079,0.246698748427,0.61859892033,0.777426514555,0.0737966152515,0.0865878155986,0.098921286391,-0.283003959557,-0.0289300726215,-0.00688911757074,0.0349131551251,-0.381769094432,4.01345348358,2.12786483765,1.43330979347,-0.965839803219,1.50958287716,-0.321492940187
2017/07/09/09:30:41.740490,222640,1499563844,539497114,,0.800330243746,0.527002995039,0.246390756506,0.619700660763,0.776612106594,0.0733692243964,0.0863810387377,0.101075435109,-0.315784559951,-0.0443593557374,-0.0234008600985,0.0690603391276,-0.427091703183,4.60485219955,2.15126347542,1.38832199574,-0.896465361118,1.74435412884,-0.295580625534
2017/07/09/09:30:41.750751,222641,1499563844,549490818,,0.801347339119,0.524651568395,0.245821932533,0.620632386224,0.775890142271,0.0730919292926,0.0864146872328,0.0911368418795,-0.310565010256,-0.048843697335,-0.0228772257769,0.0833622275952,-0.404437571736,4.64848327637,2.25058293343,1.44022226334,-0.920104861259,1.78594839573,-0.292183220387
2017/07/09/09:30:41.760472,222642,1499563844,559485028,,0.80238111828,0.520973816896,0.245599881467,0.623033007511,0.773981952156,0.0727017504509,0.0865809723357,0.0903464941148,-0.283892818264,-0.0391596302599,-0.0235369080266,0.0483307421427,-0.369929040319,4.64776706696,2.18985080719,1.50941669941,-0.911212623119,1.78477191925,-0.334548056126
2017/07/09/09:30:41.770644,222643,1499563844,569486826,,0.803035019228,0.519477645019,0.24528875945,0.624014820879,0.773252354517,0.0727561246742,0.0859816601312,0.0989948497512,-0.317150296426,-0.0342634950505,-0.032140515797,0.0452385930105,-0.408901546886,3.99476861954,2.13022232056,1.63361489773,-0.917573988438,1.54705154896,-0.344448298216
2017/07/09/09:30:41.780559,222644,1499563844,579490172,,0.804479173391,0.515212895709,0.24538120676,0.625565121814,0.771949741707,0.072048909973,0.0870105121251,0.11251064442,-0.319578523325,-0.0203532094907,-0.0101827502124,0.0248009788156,-0.434521890502,3.6157772541,1.98745203018,1.55068719387,-0.845820426941,1.39297819138,-0.34170204401
2017/07/09/09:30:41.790611,222645,1499563844,589492448,,0.805684743641,0.511812334955,0.244900971263,0.627524956459,0.770389256636,0.0718141578228,0.0869226611231,0.0991737467946,-0.328678663541,-0.0432845821216,-0.0424109342325,0.0538510196468,-0.412485312731,3.84196853638,1.89285516739,1.55394697189,-0.801602900028,1.46201837063,-0.328269213438
2017/07/09/09:30:41.801181,222646,1499563844,599489822,,0.806300630989,0.508803444589,0.244550898714,0.629403384907,0.768955721278,0.0713118391108,0.0864470900871,0.100459734776,-0.324736578111,-0.015952838844,-0.0181017019942,0.035894468719,-0.433383277749,3.2318520546,1.75216519833,1.51345813274,-0.758866667747,1.20977759361,-0.325142979622
2017/07/09/09:30:41.810527,222647,1499563844,609493424,,0.807475737582,0.505412139676,0.244590446595,0.630965522653,0.767649129992,0.0709759255189,0.0869467678647,0.0957333739407,-0.323043681995,-0.0254324297804,0.00857136247996,0.0530998437583,-0.454333931527,3.0515203476,1.6047680378,1.39880633354,-0.653514802456,1.13797128201,-0.290026962757
2017/07/09/09:30:41.820583,222648,1499563844,619489862,,0.807784358287,0.502905866122,0.243719162364,0.632601286055,0.766459502404,0.0702804815651,0.086116769376,0.095982254263,-0.305551766595,-0.0252751342306,0.00296817242202,0.0371755669862,-0.436488822323,3.40397930145,1.67970955372,1.35295510292,-0.730834245682,1.23554897308,-0.312813401222
2017/07/09/09:30:41.830489,222649,1499563844,629492303,,0.809157061203,0.499635983216,0.244308024722,0.633934213868,0.765249825169,0.0703286620797,0.0870287128258,0.0976462569781,-0.305915595439,-0.0229938496822,0.00777039319563,0.0287277666449,-0.422664639155,3.38088703156,1.48942613602,1.31638610363,-0.656658709049,1.25515854359,-0.276458859444
2017/07/09/09:30:41.840956,222650,1499563844,639493248,,0.809671440803,0.497326836501,0.243332903768,0.635158235298,0.764339537658,0.0698921265221,0.0864533281998,0.105942850052,-0.313274599823,-0.0228934032462,-0.00449577531571,0.00739193813142,-0.406681292034,3.58752989769,1.59335184097,1.51326048374,-0.683919489384,1.36574041843,-0.264290720224
2017/07/09/09:30:41.850822,222651,1499563844,649489577,,0.810854417875,0.493925487868,0.243243314766,0.637090381069,0.762731239172,0.069734506942,0.0865679021453,0.100762133026,-0.309340439956,-0.0119547565395,-0.00185705963786,0.0102299219145,-0.413767749402,3.46271753311,1.55991435051,1.50215220451,-0.687422156334,1.34156513214,-0.31354534626
2017/07/09/09:30:41.860820,222652,1499563844,659485236,,0.812673933196,0.489856191536,0.243644579235,0.639007293891,0.760998131686,0.0700122840688,0.0874631465468,0.0991070679037,-0.340170920923,-0.037541196169,-0.0189467968903,0.0354732550908,-0.440170489975,3.90663146973,1.86243283749,1.50420165062,-0.818931937218,1.55743265152,-0.366464316845
2017/07/09/09:30:41.870549,222653,1499563844,669485231,,0.81327095918,0.488069654543,0.243321864783,0.639849332715,0.760325903076,0.0699056846939,0.0872384535803,0.102387826977,-0.323405824606,-0.0252053123093,-0.0106553049606,0.0138916328106,-0.417302866725,3.61919426918,1.45695161819,1.51818275452,-0.610082864761,1.50899660587,-0.274402618408
2017/07/09/09:30:41.880719,222654,1499563844,679493682,,0.814486341821,0.483978917691,0.24327733359,0.641843643326,0.758647893936,0.0695903563745,0.0874488013031,0.104504715455,-0.325955235429,-0.0201464977697,-0.0028974121157,0.0070252725395,-0.413548043323,3.18633413315,1.50322389603,1.36872339249,-0.692974507809,1.28669846058,-0.334353536367
2017/07/09/09:30:41.890460,222655,1499563844,689489238,,0.814769937625,0.480963995333,0.242984837551,0.643119620498,0.757659357145,0.0685903387021,0.0874346481525,0.0969222804931,-0.337484674648,-0.0244530948729,-0.0150360175577,0.0306955106185,-0.464256716326,2.56690263748,1.35779380798,1.18238806725,-0.622781634331,1.03998720646,-0.320087313652
2017/07/09/09:30:41.900622,222656,1499563844,699491698,,0.816036629372,0.47794118598,0.242190805814,0.644754587413,0.756280679072,0.0685820103755,0.0873359280312,0.0833903162555,-0.330344381544,-0.0232487641499,-0.0156624207515,0.0525660728855,-0.443430984649,2.36598134041,1.16416561604,1.19014251232,-0.519307851791,0.975985109806,-0.288463205099
2017/07/09/09:30:41.910722,222657,1499563844,709489687,,0.816628374994,0.47441299442,0.242149754643,0.646703564422,0.754679413157,0.0679027810704,0.0873080491367,0.0973427702357,-0.337816133006,-0.0283683737667,-0.00694734821804,0.0283011456753,-0.433587119299,2.41242909431,1.45985209942,0.97478979826,-0.703785955906,0.946374416351,-0.358923077583
2017/07/09/09:30:41.920796,222658,1499563844,719491060,,0.817640752968,0.470882935075,0.241612657898,0.648721276402,0.752983617547,0.0676051742597,0.0872119123903,0.101805832101,-0.366147751047,-0.0300429194331,0.00489772840803,0.0311593271137,-0.49141511153,2.60547471046,1.41405916214,1.10180461407,-0.673288762569,1.06424164772,-0.32422208786
2017/07/09/09:30:41.930749,222659,1499563844,729490946,,0.818644759148,0.46731212525,0.241497247159,0.650240789408,0.751658400474,0.0673162566128,0.0875504790588,0.10892564834,-0.381335210657,-0.0238476260273,-0.00896725303287,0.0108190435478,-0.513350770331,2.49819040298,1.31949281693,1.18631649017,-0.68036031723,1.05601704121,-0.395863294601
2017/07/09/09:30:41.940734,222660,1499563844,739486816,,0.819517319148,0.46531104438,0.241865607145,0.651465106993,0.750550090205,0.0676163131256,0.0877257696643,0.0902410995742,-0.358920499634,-0.0330808564692,0.010484914086,0.0396726337259,-0.478814287533,2.24386930466,1.07695543766,1.43621754646,-0.52967530489,1.05673122406,-0.266366779804
2017/07/09/09:30:41.950795,222661,1499563844,749490426,,0.820974429379,0.4600894785,0.24134082097,0.653808549159,0.748519353356,0.0669671399201,0.0881394399146,0.0861027669793,-0.331618056959,-0.0273136335796,0.0130532236761,0.0328869260071,-0.440142717345,1.15740430355,0.667289674282,1.43524599075,-0.392828851938,0.636380553246,-0.274182647467
2017/07/09/09:30:41.960540,222662,1499563844,759511888,,0.821892553074,0.456967983857,0.24121028512,0.655385900886,0.747137263003,0.0670993246295,0.0880506205906,0.0983759742365,-0.350592952135,-0.00836193421457,0.00246853253616,-0.00297520286951,-0.455342709375,1.18230700493,0.726161062717,1.63392782211,-0.41830098629,0.665182888508,-0.249302044511
2017/07/09/09:30:41.970673,222663,1499563844,769485741,,0.822634557805,0.454286358851,0.240890178472,0.656785877668,0.745942586653,0.0669671531997,0.0878485555109,0.0841796366468,-0.339167950583,-0.0245279640314,-0.00522110009301,0.0293831331234,-0.431904719996,1.77921330929,0.648356318474,1.73978722095,-0.366907596588,0.883433461189,-0.255522012711
2017/07/09/09:30:41.980604,222664,1499563844,779488994,,0.822716441324,0.449665435987,0.240014661627,0.65858483152,0.744528268543,0.0651603953414,0.087737106809,0.0875518671543,-0.349800395694,-0.0162944947481,0.00460728500572,0.0185764593931,-0.453789123272,1.84178602695,0.704058766365,1.48058581352,-0.369021624327,0.882620692253,-0.250637412071
2017/07/09/09:30:41.990505,222665,1499563844,789491890,,0.824259511048,0.446109813543,0.240030312105,0.660865454287,0.742430484884,0.0654767665145,0.0881284261253,0.072031983031,-0.376827271333,-0.0414208038116,-0.0292073778407,0.0758283454721,-0.491291732974,2.78727388382,1.09904837608,1.46135568619,-0.541315615177,1.23128569126,-0.336570054293
2017/07/09/09:30:42.000460,222666,1499563844,799504693,,0.824448678192,0.443147083095,0.239548569702,0.662242481858,0.741319775657,0.0648023521935,0.0876386934666,0.0825442780472,-0.367266359383,-0.0338177677611,-0.0146705292913,0.050683533091,-0.467227427808,2.60223793983,1.08635079861,1.29483509064,-0.485836237669,1.1526491642,-0.315166413784
2017/07/09/09:30:42.010414,222667,1499563844,809488220,,0.825786566585,0.440094355243,0.239836345314,0.663798889084,0.739828474039,0.0653674005251,0.0880452542796,0.0832207670139,-0.376989950394,-0.0268365836947,0.00304262219546,0.0387436380802,-0.498319511352,2.82010626793,1.22840070724,1.41986012459,-0.606601297855,1.24837768078,-0.368645638227
2017/07/09/09:30:42.020361,222668,1499563844,819490326,,0.826667240252,0.436342467048,0.239826589134,0.665038264517,0.738710215613,0.0650149103495,0.0883424332339,0.094665030487,-0.362361858242,-0.0134401034971,0.0221665496065,0.00218470990435,-0.495656640039,2.40173530579,1.11621534824,1.33917117119,-0.576215028763,1.09814929962,-0.347810328007
2017/07/09/09:30:42.030488,222669,1499563844,829491014,,0.82739031099,0.432077523624,0.239142763718,0.667276828301,0.736755612164,0.0642848772927,0.088319063112,0.0859583473164,-0.378045009318,-0.0319045399874,0.00693329177582,0.0288532643224,-0.482553254136,2.22882962227,1.03774654865,1.52183282375,-0.609450757504,1.05545902252,-0.375775307417
2017/07/09/09:30:42.040733,222670,1499563844,839493435,,0.828293675062,0.429070307987,0.239065891258,0.668584598362,0.735557975605,0.0643483188618,0.0883651131166,0.0827695098778,-0.370542768842,-0.0256476186461,0.00932240795411,0.0206282442055,-0.474334399772,2.09683609009,0.823330402374,1.68742966652,-0.520536541939,1.05887365341,-0.34646064043
2017/07/09/09:30:42.050646,222671,1499563844,849490974,,0.829369899079,0.425538228318,0.239200208712,0.670623977106,0.733656916293,0.0647359017269,0.088432310461,0.0894887800517,-0.3772589805,-0.016952019183,0.00815744710716,-0.00197005020259,-0.466413945321,2.14918422699,0.884739518166,1.65233230591,-0.574020028114,1.09028446674,-0.377942740917
2017/07/09/09:30:42.060667,222672,1499563844,859486787,,0.829808068269,0.422140746903,0.238293079917,0.672171533889,0.732309793736,0.0638887049342,0.0884648427869,0.0769830686561,-0.368219935826,-0.0314424850379,0.00649640816976,0.0293039950299,-0.49229510325,2.18302226067,1.06726682186,1.76650774479,-0.628859400749,1.1279052496,-0.455625832081
2017/07/09/09:30:42.070685,222673,1499563844,869494074,,0.830294999268,0.418488516271,0.238388012345,0.673930248816,0.730741102762,0.063343052933,0.0884483923552,0.081038991069,-0.359959978964,-0.0289051394398,-0.000566025265133,0.00969685676707,-0.461548668346,1.94869148731,1.10114479065,1.79420030117,-0.693103730679,1.02364575863,-0.506106317043
2017/07/09/09:30:42.080598,222674,1499563844,879491129,,0.831701200745,0.415382646056,0.238275060374,0.675440916855,0.729256834867,0.0638664687772,0.088798146393,0.0656723284601,-0.358563571687,-0.0236919218212,-0.0170203137564,0.0339774381486,-0.445257502398,1.31769514084,0.879592776299,1.85369563103,-0.576943218708,0.840842783451,-0.474123507738
2017/07/09/09:30:42.090614,222675,1499563844,889485174,,0.831749214463,0.412432528298,0.238245232562,0.676694444639,0.72817953284,0.0634639780887,0.0883828039444,0.0688489673271,-0.341264988728,-0.020248088812,0.0100770428681,0.0206445327637,-0.440675725922,1.61244916916,1.02947759628,1.96447324753,-0.623367071152,0.974995195866,-0.472744613886
2017/07/09/09:30:42.100725,222676,1499563844,899492545,,0.832660527202,0.408639900197,0.237834519388,0.67817085916,0.726811489519,0.0631074763692,0.0885821139694,0.0742554038092,-0.346563148666,-0.0079124846686,0.016712199064,-0.00213110932039,-0.441172493411,1.25188291073,0.777143120766,2.06537795067,-0.568433701992,0.86563873291,-0.448462486267
2017/07/09/09:30:42.110732,222677,1499563844,909493723,,0.833486379769,0.404235642968,0.237605650848,0.68021175655,0.724903444785,0.0625731159886,0.0889469906484,0.0702126785791,-0.365016202638,-0.032242818664,0.0152761175974,0.029817714907,-0.450853319274,1.76264047623,0.995431184769,1.88832950592,-0.624567329884,0.994020283222,-0.43929117918
2017/07/09/09:30:42.120598,222678,1499563844,919494049,,0.833679384956,0.402122248802,0.237607384617,0.681534446646,0.723731881301,0.0627596526037,0.088228045586,0.0676012003907,-0.374918469415,-0.042545071582,0.0276443931559,0.0487138166856,-0.484062864171,2.33877420425,0.927571475506,1.84062862396,-0.644760131836,1.17796671391,-0.462296426296
2017/07/09/09:30:42.130483,222679,1499563844,929489525,,0.834373556488,0.398384099696,0.236841307956,0.682981223689,0.722396090921,0.0620444615891,0.0884930545104,0.0429238905123,-0.34657158433,-0.0407172629823,0.0126921284369,0.0795723376223,-0.455845010505,2.35353684425,1.14138936996,1.68478274345,-0.763371527195,1.12427592278,-0.506556749344
2017/07/09/09:30:42.140601,222680,1499563844,939492478,,0.834450952535,0.394784449036,0.236165197139,0.684384353169,0.721191473326,0.061260991317,0.0880227634354,0.0469921907607,-0.348163718248,-0.0321475476592,0.00319655694886,0.0594471149323,-0.429829568831,2.5894806385,1.16400146484,1.71949565411,-0.773734927177,1.20109593868,-0.505770802498
2017/07/09/09:30:42.150533,222681,1499563844,949488486,,0.835160917311,0.390808574966,0.236191667937,0.686426560136,0.719234307433,0.0609887510162,0.0883230479597,0.0607297359715,-0.363263058449,-0.0299229036076,-0.00329945280997,0.0379213175188,-0.398679913166,2.80512142181,1.13387942314,1.71381151676,-0.717378139496,1.30516850948,-0.47917163372
2017/07/09/09:30:42.160640,222682,1499563844,959498462,,0.835612487775,0.387880595083,0.235298618182,0.687404988073,0.7183598363,0.060610231685,0.0880904522616,0.0485705235607,-0.374402310896,-0.0376402075045,-0.0194944118454,0.067756139368,-0.408659131873,2.99533104897,1.17050480843,1.7602635622,-0.786884129047,1.39571332932,-0.557203054428
2017/07/09/09:30:42.170400,222683,1499563844,969486045,,0.836265357532,0.384116596283,0.235087633678,0.688507428999,0.717348136635,0.0603396453117,0.087910740427,0.0501541284101,-0.335083838893,-0.0449741102728,-0.0120686016567,0.0524736385122,-0.332959511487,2.63634514809,1.06114673615,1.76890528202,-0.731792330742,1.31048750877,-0.481395900249
2017/07/09/09:30:42.180757,222684,1499563844,979510713,,0.836606546309,0.381524549984,0.234662397844,0.689547109366,0.716372610243,0.0599720414561,0.087968298281,0.0561743265538,-0.313939334157,-0.035546326228,0.00767734426111,0.0303272513661,-0.308345698944,2.41725325584,0.88464140892,1.70523130894,-0.698244929314,1.21535146236,-0.449096769094
2017/07/09/09:30:42.190517,222685,1499563844,989486577,,0.837603971156,0.378297524506,0.23457021794,0.690595332328,0.715321874799,0.0602523839222,0.088104214617,0.0552016803324,-0.35699788461,-0.0405653789361,-0.0222565897283,0.0435709322439,-0.305196548092,2.25841426849,0.844968736172,1.78613829613,-0.653276443481,1.21781051159,-0.387444615364
2017/07/09/09:30:42.200725,222686,1499563844,999494316,,0.837648500157,0.375868209446,0.234331338127,0.690859129262,0.715142066628,0.0596968962895,0.0878735946006,0.0558628991661,-0.342780283802,-0.0354779009816,-0.0138044391332,0.0321630946293,-0.283024273958,2.48339438438,0.761062085629,1.70983338356,-0.59605795145,1.282959342,-0.363806992769
2017/07/09/09:30:42.210474,222687,1499563845,9489158,,0.837893753103,0.372930785224,0.233388357363,0.691816788094,0.714298052541,0.0590846524595,0.0876175079024,0.04783831119,-0.324890052742,-0.0212617968459,-0.0181163594223,0.0328899200186,-0.253810801418,1.95539700985,0.644627630711,1.66150069237,-0.498759508133,1.07949066162,-0.328382521868
2017/07/09/09:30:42.220702,222688,1499563845,19493044,,0.838188461286,0.368768987732,0.233182587939,0.692741752042,0.713446945169,0.0583373908928,0.0877443458628,0.0323244927091,-0.337623149986,-0.050728931847,-0.0523014498708,0.0878644057993,-0.197719623291,2.67486524582,0.711648404598,1.66327822208,-0.493131995201,1.35410070419,-0.31051248312
2017/07/09/09:30:42.230717,222689,1499563845,29489131,,0.8386245506,0.365576027584,0.23249029398,0.693516943456,0.712747379791,0.0579843054403,0.0875399455233,0.0265100240179,-0.364230399471,-0.0548587501677,-0.0756031181141,0.109422701233,-0.217907337881,2.74312925339,0.783058583736,1.68409252167,-0.516837596893,1.35750937462,-0.317290008068
2017/07/09/09:30:42.240671,222690,1499563845,39487910,,0.838920330515,0.362107465225,0.231763673744,0.693890625948,0.712455590542,0.0569995876401,0.0876006720015,0.026389230031,-0.325969324654,-0.061359790345,-0.0473104905329,0.100786517703,-0.183548497956,3.12192201614,0.86930334568,1.68317973614,-0.612015247345,1.49122202396,-0.323512524366
2017/07/09/09:30:42.250744,222691,1499563845,49484961,,0.839384309258,0.358836719475,0.231596524181,0.695737081096,0.71070334424,0.0570443421021,0.0871585538402,0.02942143496,-0.315734941356,-0.042598660689,-0.0131080144674,0.0740471015209,-0.232582900505,2.7412853241,0.74005818367,1.57524728775,-0.505749166012,1.35749042034,-0.280834078789
2017/07/09/09:30:42.260716,222692,1499563845,59493403,,0.840052876437,0.356384407899,0.231426302052,0.696980749501,0.709450580165,0.0574330182124,0.0871731469477,0.0385916280186,-0.329321956116,-0.0363656591703,0.0169779544272,0.0509434912884,-0.342886466019,2.51204848289,0.710066795349,1.614179492,-0.534389555454,1.30281198025,-0.282970815897
2017/07/09/09:30:42.270494,222693,1499563845,69499166,,0.840254916789,0.35348936797,0.231082149963,0.698046849044,0.708423154293,0.0568760529099,0.0873632966764,0.0325931507053,-0.310329180729,-0.051194301044,0.0306249181515,0.0661778897564,-0.38636370831,1.67931902409,0.447729766369,1.35128879547,-0.463809341192,0.927252411842,-0.290951013565
2017/07/09/09:30:42.280514,222694,1499563845,79498382,,0.840694388221,0.349450294575,0.230266075748,0.699890914491,0.706651532595,0.0562608446898,0.0873558048973,0.0342881616073,-0.332371202505,-0.0592513153198,0.0262052628368,0.0650895453816,-0.452540355612,1.3011136055,0.347717612982,1.39001011848,-0.401398122311,0.821930766106,-0.256440639496
2017/07/09/09:30:42.290923,222695,1499563845,89487364,,0.841065085092,0.347063559662,0.230367241339,0.700630017822,0.705942054082,0.0564091656197,0.087071237722,0.0392344629821,-0.345150225536,-0.0478047976606,0.0174564291511,0.0461280434476,-0.449821940937,0.974544227123,0.165226578712,1.29040110111,-0.361223578453,0.686699450016,-0.147395476699
2017/07/09/09:30:42.300586,222696,1499563845,99490455,,0.840582044288,0.343946737082,0.229172945926,0.701437379702,0.705347749609,0.055369155778,0.0860488876522,0.0256903857924,-0.331631069761,-0.0469416787131,-0.0189818123554,0.0770719036076,-0.303480450941,0.678812682629,0.0882378742099,0.87316429615,-0.253352552652,0.51133954525,-0.123327836394
2017/07/09/09:30:42.310959,222697,1499563845,109486437,,0.841107233977,0.339578889553,0.228677016117,0.702699801752,0.704091390277,0.0547040474256,0.0864625349531,0.0125261874961,-0.34467997255,-0.0661453770695,-0.0150944267859,0.122527296267,-0.226262262466,1.9504840374,0.512268424034,0.656172215939,-0.421322077513,0.937193632126,-0.194313019514
2017/07/09/09:30:42.320741,222698,1499563845,119492044,,0.841143885752,0.338037359777,0.228361875495,0.702656704383,0.704212392455,0.0546507667481,0.0858589296007,0.014507783468,-0.311117522056,-0.0629914122361,-0.00946888591265,0.113420586836,-0.179955895885,2.13599395752,0.622849464417,0.660456836224,-0.402492672205,1.05756831169,-0.20233155787
2017/07/09/09:30:42.330642,222699,1499563845,129489345,,0.841555519078,0.333249641586,0.227933239647,0.704152108226,0.702724826813,0.0539485564111,0.0862390834979,0.0158698682865,-0.305613061438,-0.0675651180876,-0.0233911099426,0.103017196263,-0.168312491269,2.14542245865,0.5466786623,0.733667850494,-0.369509011507,1.0971558094,-0.19080978632
2017/07/09/09:30:42.340645,222700,1499563845,139490719,,0.841936334419,0.330143021368,0.227211097172,0.7051443909,0.701775407105,0.0534284781306,0.0861862151942,0.0279765541462,-0.374054294821,-0.0541330144692,-0.036210510817,0.0732384486362,-0.285122385405,1.74935805798,0.581663012505,1.04302370548,-0.433102667332,1.02019798756,-0.220800250769
2017/07/09/09:30:42.350913,222701,1499563845,149489163,,0.842172080726,0.326897512873,0.226320984881,0.70610087355,0.700871667542,0.0530477243255,0.085944173468,0.0274736148978,-0.332932152651,-0.0741573257572,-0.0200748495799,0.0748418312028,-0.274281130159,1.80144739151,0.379488676786,1.09861576557,-0.362724989653,1.06644868851,-0.167672127485
2017/07/09/09:30:42.360616,222702,1499563845,159490985,,0.842168176829,0.324089004563,0.226054377921,0.707198146615,0.699844970144,0.0529076626328,0.0853731715652,0.0189946352273,-0.333345201989,-0.0712176820516,0.00704851395356,0.0852377912776,-0.31483211744,1.68445956707,0.191130712628,1.14203166962,-0.218572363257,1.04579555988,-0.0611361525953
2017/07/09/09:30:42.370703,222703,1499563845,169485547,,0.842321036395,0.321224706551,0.225070575682,0.708339135799,0.698766491025,0.052455171615,0.0850265528356,0.0197364879302,-0.334596249734,-0.0631213831527,0.0116832329594,0.0784605188126,-0.324953935598,1.23139691353,0.182864964008,0.945523917675,-0.157962292433,0.799537181854,-0.0518345050514
2017/07/09/09:30:42.380795,222704,1499563845,179498530,,0.842302092429,0.316991081253,0.223956846966,0.709729252991,0.697443109233,0.0514722885443,0.0849005320575,0.0214396406633,-0.355436640007,-0.0612089546565,-0.00966300761892,0.0774271850494,-0.344129131547,1.17166221142,0.209067434072,0.708531439304,-0.218333005905,0.690123260021,-0.128170415759
2017/07/09/09:30:42.390824,222705,1499563845,189492236,,0.84300059615,0.314040373498,0.223836514135,0.710986298525,0.696119990126,0.0517528683627,0.0850710483781,0.00651620205118,-0.375130997333,-0.0805694165808,-0.0144782323281,0.115008878421,-0.380476844608,1.32498133183,0.237226113677,0.699163556099,-0.215941667557,0.690392136574,-0.142981335521
2017/07/09/09:30:42.400654,222706,1499563845,199487566,,0.843068268162,0.310909953643,0.22329433075,0.712637458684,0.694494082031,0.0514418470368,0.0847322776632,0.0171965123737,-0.320695576012,-0.0697779872637,0.0128184611651,0.0634004448194,-0.381997475008,0.760363638401,0.41568556428,0.812015295029,-0.29450660944,0.488231658936,-0.187344193459
2017/07/09/09:30:42.410530,222707,1499563845,209490367,,0.843411781496,0.306752317134,0.222154750913,0.713819628795,0.693297720443,0.0506205824451,0.0850727042496,0.0337295700002,-0.365595747212,-0.0647337808179,0.0149925735283,0.0248933484519,-0.464022680897,1.44527089596,0.461898058653,1.09581053257,-0.316861540079,0.805901169777,-0.179825901985
2017/07/09/09:30:42.420716,222708,1499563845,219490004,,0.843647294891,0.303555517772,0.221254618002,0.715421159926,0.691699415405,0.0501870308987,0.0848866573024,0.0413204062086,-0.364636652925,-0.0711436837157,0.0244580852149,0.00361574022731,-0.466956679994,1.46141195297,0.499030143023,1.1624982357,-0.298904001713,0.846034824848,-0.199125468731
2017/07/09/09:30:42.430831,222709,1499563845,229511419,,0.843981534704,0.29980932203,0.220498347373,0.717192135604,0.689866802127,0.0500831091671,0.0849171250524,0.0386815550036,-0.353113078894,-0.0765369334224,0.0289324072767,0.0142398129725,-0.445060532205,2.00390672684,0.477879941463,1.37289631367,-0.325334429741,1.10480439663,-0.2297719419
2017/07/09/09:30:42.440772,222710,1499563845,239504172,,0.844550548312,0.297958161248,0.22001137154,0.718353417344,0.688673948301,0.0510998872547,0.0841745938119,0.0392126340688,-0.391316884755,-0.0652442233738,0.0245383567129,0.00887246252359,-0.513764162436,1.42830860615,0.40847414732,1.15206670761,-0.28210118413,0.856965363026,-0.182178601623
2017/07/09/09:30:42.450636,222711,1499563845,249487457,,0.845178171997,0.292401730218,0.219824736675,0.72050296177,0.686374322777,0.0506391803592,0.0848613252614,0.0353276245928,-0.382429814608,-0.0619175402863,0.0390383220843,0.0117616198901,-0.512896008871,0.92112159729,0.517798781395,0.952936947346,-0.342737972736,0.605081915855,-0.200682163239
2017/07/09/09:30:42.460700,222712,1499563845,259512681,,0.845096520324,0.288707607854,0.218873642779,0.722109713745,0.684775334071,0.0501545577976,0.0844086695459,0.0245226603738,-0.400717961681,-0.0695394534423,0.0396301895935,0.0414201313099,-0.530442338634,1.02345740795,0.281150996685,0.532510876656,-0.217259287834,0.537484884262,-0.157035201788
2017/07/09/09:30:42.470659,222713,1499563845,269489231,,0.845087426649,0.285360109713,0.218192291832,0.723738615656,0.683091804028,0.0495843535952,0.0844357469152,0.0256671784516,-0.362304948752,-0.07438177828,0.0453029882145,0.0348031794715,-0.464904324397,1.25756621361,0.514836251736,0.364192277193,-0.386491447687,0.573326230049,-0.22433154285
2017/07/09/09:30:42.480706,222714,1499563845,279517105,,0.845234091948,0.282884330788,0.216894613877,0.72471381236,0.682155797378,0.0494825717835,0.083694882571,0.0256194269505,-0.376111306878,-0.0550599728506,0.031980202318,0.0221303391545,-0.464807106035,1.32049179077,0.486908793449,0.418234586716,-0.350181400776,0.622590184212,-0.219989687204
2017/07/09/09:30:42.490437,222715,1499563845,289490990,,0.845874986578,0.278149026397,0.217197341598,0.726341833439,0.680299688845,0.0494446371297,0.0847059750723,0.025691609857,-0.359813675651,-0.0731544512168,0.0180136539454,0.0200221211314,-0.414129492925,2.21869802475,0.487384647131,0.668388485909,-0.403344869614,1.06477975845,-0.288229465485
2017/07/09/09:30:42.500616,222716,1499563845,299489733,,0.845855514337,0.275556402232,0.216058979201,0.72694777979,0.679777608254,0.0493503629499,0.0837488534361,0.0264439853162,-0.382670493356,-0.0577247405647,0.00843343540612,0.00798893900362,-0.368434591649,1.69376993179,0.432640075684,0.712593078613,-0.406315475702,0.908381521702,-0.233259946108
2017/07/09/09:30:42.510702,222717,1499563845,309485372,,0.846180255539,0.271656241151,0.215326170257,0.726994476577,0.679719291013,0.0488687937749,0.0840984984775,0.0220345461111,-0.389009165156,-0.0787776282622,-0.00847043440575,0.0421711791914,-0.253513935927,1.67688775063,0.273643881083,0.914889276028,-0.304176360369,0.944071829319,-0.235082536936
2017/07/09/09:30:42.520645,222718,1499563845,319499453,,0.845986609119,0.267110608218,0.214843858655,0.72786037274,0.678847882781,0.0481379932757,0.0840688018347,2.63794972385e-05,-0.360844243833,-0.0847454936281,-0.0474161872258,0.100666802378,-0.0388060769102,1.07905077934,0.227304473519,0.560705065727,-0.324540019035,0.637596130371,-0.308186411858
2017/07/09/09:30:42.530484,222719,1499563845,329487664,,0.846306161316,0.264986581471,0.214531769527,0.728446439536,0.678227994654,0.0484040027791,0.083842856043,-0.00684900621935,-0.392734598238,-0.0657489706593,-0.0389039880051,0.0922841356715,-0.175762118902,1.01948988438,0.315683573484,0.390314012766,-0.311030447483,0.539293766022,-0.338846921921
2017/07/09/09:30:42.540586,222720,1499563845,339499015,,0.845781732126,0.259992168376,0.213063988233,0.730712106876,0.675894447785,0.0471613570628,0.0836798584979,-0.00975795379469,-0.379481950981,-0.0755035560434,-0.023535140296,0.0924846293947,-0.348010324956,1.45454204082,0.442440807819,0.395629048347,-0.34673333168,0.715564191341,-0.350524753332
2017/07/09/09:30:42.550878,222721,1499563845,349495319,,0.845978551492,0.257029274276,0.212349597643,0.731937804477,0.67459990385,0.0469576399909,0.0835284391627,-0.00673898438326,-0.409023327304,-0.0756668572404,-0.00419891637311,0.0683314098171,-0.493146369522,2.08170795441,0.581850767136,0.474223673344,-0.414279997349,0.976795852184,-0.365547597408
2017/07/09/09:30:42.560565,222722,1499563845,359501080,,0.846161822464,0.253402591444,0.212283102739,0.733721266749,0.672662227735,0.0472430307075,0.0833470224315,-0.00454819799532,-0.375796382621,-0.0768290158492,0.0216898120873,0.0621403609282,-0.447278042533,2.25891089439,0.75241959095,0.386534690857,-0.487814903259,1.04641008377,-0.441604435444
2017/07/09/09:30:42.570694,222723,1499563845,369490514,,0.846157721859,0.249074826226,0.210842745277,0.734860775478,0.671497586414,0.0464786079867,0.0831286418977,0.00820026261171,-0.410746646796,-0.0533892535025,0.0164987717472,0.0222052347133,-0.469720835627,1.97895479202,0.666057348251,0.325089871883,-0.496625244617,0.956664860249,-0.440233290195
2017/07/09/09:30:42.580731,222724,1499563845,379498886,,0.846151342795,0.24614978605,0.210422850889,0.735585644003,0.670728680552,0.0463432644578,0.0830005979576,-0.0122894491763,-0.386471926519,-0.0908055200282,0.0153197700026,0.0875992456551,-0.38497271642,1.67732393742,0.74968367815,0.266017735004,-0.534136712551,0.893415927887,-0.458990037441
2017/07/09/09:30:42.590752,222725,1499563845,389488366,,0.845852502776,0.241389270285,0.209627542392,0.737289646429,0.668933780736,0.0456897242543,0.0827286126813,0.00634549914876,-0.40387095855,-0.0656554457092,0.0038677303824,0.0264222549364,-0.372278498208,1.15361475945,0.557619571686,0.2662358284,-0.440114915371,0.736222684383,-0.434305906296
2017/07/09/09:30:42.600655,222726,1499563845,399493318,,0.846376122472,0.238062846983,0.209235749843,0.737708373615,0.668391207002,0.0458375160225,0.0832974911058,0.0132973238782,-0.378629075914,-0.060933778009,0.0109668661209,0.00423597359433,-0.309614353249,0.920935809612,0.647602796555,0.346671700478,-0.505932867527,0.729588389397,-0.437625110149
2017/07/09/09:30:42.610509,222727,1499563845,409487212,,0.846495080197,0.234171415985,0.208563176765,0.738657813877,0.667353038068,0.0458267894248,0.0832133520004,0.0213808484335,-0.359168197288,-0.0487388306357,0.0267033111216,-0.0293911425286,-0.257535182922,0.794422090054,0.626736819744,0.27483934164,-0.472980558872,0.645496189594,-0.434857815504
2017/07/09/09:30:42.620370,222728,1499563845,419500252,,0.846306323378,0.231434372055,0.208097504869,0.739220265307,0.66676390552,0.0457745208578,0.0829697950792,0.00838208613538,-0.37992396128,-0.0713397846836,0.0156270710599,0.0137896962881,-0.248455417765,0.625571548939,0.504227459431,0.304273337126,-0.374530434608,0.556108355522,-0.381682604551
2017/07/09/09:30:42.633652,222729,1499563845,429487045,,0.846416078127,0.227049480645,0.207223400564,0.740405201236,0.665475116196,0.0456909313251,0.0827970198774,0.000483920376062,-0.349514910078,-0.069104374294,0.0331920873046,0.0207099911661,-0.212190705671,0.437341660261,0.743525862694,0.144563674927,-0.632708787918,0.38461175561,-0.480087399483
2017/07/09/09:30:42.640639,222730,1499563845,439492184,,0.846780519354,0.22263621507,0.206600999818,0.741093700037,0.664644897743,0.0456308323774,0.0833373554014,0.00273781154972,-0.385022581496,-0.0736987253679,0.0448328289513,0.0143027802003,-0.215843381996,0.558632016182,0.476468622684,0.165571272373,-0.458469569683,0.394881665707,-0.406748682261
2017/07/09/09:30:42.650815,222731,1499563845,449507103,,0.846700468475,0.220644292231,0.205755461924,0.740985889976,0.664838701406,0.0455059363839,0.0828167961427,0.00316549069935,-0.377812755946,-0.0754149194045,-0.00917165240563,0.0143286099962,-0.146917721694,0.722705245018,0.406050443649,0.123407177627,-0.409303367138,0.382964134216,-0.372248262167
2017/07/09/09:30:42.660538,222732,1499563845,459493993,,0.847030102738,0.21733046905,0.205535256248,0.741001545279,0.664755358507,0.0459387763605,0.0831062696617,0.0174662685833,-0.337199259089,-0.0606291844691,0.0153771623974,-0.0297279007329,-0.0699803295507,0.492469251156,0.34121415019,0.233545258641,-0.384338498116,0.301035046577,-0.347912758589
2017/07/09/09:30:42.670641,222733,1499563845,469491538,,0.847465477129,0.213350352202,0.206000079287,0.74140781786,0.664180687945,0.046573577197,0.0837219402797,0.0213157104234,-0.371322114013,-0.0487268576758,-0.0015058164379,-0.0470973596692,-0.0751555866783,0.648615241051,0.188268274069,0.185446083546,-0.201102346182,0.365196526051,-0.289078295231
2017/07/09/09:30:42.680682,222734,1499563845,479492307,,0.847624974441,0.210258191655,0.205387703966,0.74143247501,0.664167310029,0.0466488406758,0.0835676669142,0.0146645426713,-0.374415249877,-0.0458080514101,-0.0204155070533,-0.0383288443104,-0.0309631840437,0.834255456924,0.393000811338,0.210875540972,-0.363195478916,0.414034187794,-0.37452507019
2017/07/09/09:30:42.690389,222735,1499563845,489486726,,0.847594949141,0.206809394894,0.203894654384,0.741011913448,0.664672894687,0.04637557193,0.0834301715462,0.0153172541814,-0.343003238916,-0.066388442834,0.0316531822991,-0.0240440862516,0.0273571600583,0.755654573441,0.400512069464,0.0769802257419,-0.331497818232,0.40586283803,-0.325437098742
2017/07/09/09:30:42.700529,222736,1499563845,499494398,,0.847712501318,0.203780667445,0.204100451934,0.740487018971,0.665205940999,0.0466574277153,0.0836846176727,0.00887863575161,-0.333558899638,-0.069248835393,0.0101501923116,-0.00487702823487,0.0846499645598,1.21380209923,0.490099817514,0.0934252515435,-0.391173541546,0.604162633419,-0.334440380335
2017/07/09/09:30:42.710450,222737,1499563845,509496966,,0.847773988045,0.200983485984,0.203033368341,0.73989863442,0.665881260729,0.046731494339,0.0834764926732,0.00728339647688,-0.351163244986,-0.0547812032729,-0.0160024894425,-0.0161629571219,0.0967985620203,1.31010663509,0.447534263134,0.304809361696,-0.416237264872,0.729808628559,-0.309702694416
2017/07/09/09:30:42.720607,222738,1499563845,519493547,,0.848027571557,0.196790358943,0.202965659111,0.740212176313,0.665500468579,0.0469878594417,0.0835894815386,0.0149545166507,-0.379690449666,-0.035699610208,-0.00932752136659,-0.0516203597138,0.0625090995827,0.397434383631,0.332154750824,0.164961010218,-0.362569719553,0.377877801657,-0.299833148718
2017/07/09/09:30:42.730591,222739,1499563845,529485717,,0.847786993109,0.194122309107,0.201744991941,0.73924813869,0.66663337881,0.0467391175346,0.0832321007276,-0.00158783716073,-0.345918195455,-0.0508867456347,-0.0241263469975,-0.000649219376436,0.143561863054,0.269796013832,0.269173622131,0.01830393821,-0.336954712868,0.288172602654,-0.290617823601
2017/07/09/09:30:42.740586,222740,1499563845,539493592,,0.847832806074,0.189617790409,0.201938346223,0.739224324107,0.666604724007,0.0467618041965,0.0836592747267,-0.00305930058301,-0.380717933625,-0.0413598944148,-0.0344473579956,-0.00689033937997,0.144225858924,0.0214259028435,0.465165764093,-0.23743802309,-0.333900809288,0.1206144467,-0.282191157341
2017/07/09/09:30:42.750448,222741,1499563845,549487939,,0.847460493325,0.18627775895,0.200544381352,0.738221093085,0.667784799863,0.0464627371447,0.0832724015084,-0.00826340649618,-0.36280555447,-0.0365913021098,-0.0211572708026,-0.000918151305923,0.195021681398,-0.213186502457,0.439516633749,-0.300431996584,-0.277449518442,0.0150777027011,-0.272755801678
2017/07/09/09:30:42.760695,222742,1499563845,559494527,,0.847253481729,0.182264806059,0.200290620185,0.737585106471,0.668493827541,0.0463154129578,0.0833012351325,-0.0130741059778,-0.370190906086,-0.04634589588,-0.0493736009171,0.0116347249659,0.247685425568,-0.304947942495,0.435120612383,-0.332418620586,-0.22744114697,-0.015204615891,-0.21616563201
2017/07/09/09:30:42.770549,222743,1499563845,569488197,,0.8470874934,0.179724589567,0.200167258806,0.736699080336,0.669476155823,0.0463608601533,0.0832274742052,-0.0157110778434,-0.374792167329,-0.052883730097,-0.049040962111,0.0176557558964,0.25612575625,-1.36882066727,-1.80247795582,-0.538194894791,0.0620241463184,-0.324793636799,-0.167639791965
2017/07/09/09:30:42.780832,222744,1499563845,579498038,,0.846651090638,0.177205742144,0.199025271266,0.735261676972,0.671147502249,0.0459430419443,0.0827075177836,-0.028760085865,-0.347610632083,-0.0520168480523,-0.042576380862,0.0484050321688,0.305585233873,-2.3937728405,-1.89458882809,-0.541521787643,0.0349165201187,-0.715376138687,-0.13620147109
2017/07/09/09:30:42.790594,222745,1499563845,589492396,,0.846616871539,0.172995212396,0.199109998151,0.734340837345,0.672100341616,0.0459945610768,0.0831213917033,-0.0261072385826,-0.310555142568,-0.0561346455376,-0.0230008018798,0.0494365955842,0.349000013696,-2.65725135803,-1.02939808369,0.0465009883046,-0.159252762794,-0.868534743786,-0.0720302909613
2017/07/09/09:30:42.800639,222746,1499563845,599511928,,0.846001409531,0.169483323663,0.198184385705,0.733302555037,0.673308025851,0.0455866841901,0.0827376536067,-0.0384492972987,-0.328255193555,-0.0537355325865,0.0173796640797,0.0667779033962,0.351513147474,-3.12184286118,-1.68047463894,-0.212414979935,0.384744524956,-1.11923992634,0.21335157752
2017/07/09/09:30:42.810508,222747,1499563845,609486874,,0.845676925981,0.166737982421,0.198406674771,0.731957112628,0.674802332839,0.0456966129412,0.0824161175627,-0.048341208284,-0.356758674718,-0.0481273701084,-0.0110337976942,0.0812561217796,0.364795498616,-3.42000818253,-1.4889742136,-0.0674364119768,0.417242258787,-1.21775531769,0.22786693275
2017/07/09/09:30:42.820610,222748,1499563845,619488019,,0.844938983985,0.163165905983,0.197721072979,0.730542809019,0.676435021035,0.044949614522,0.081990235165,-0.0568442322,-0.363050264334,-0.0382428146816,-0.0557320895887,0.0973491697618,0.397946488773,-3.4071354866,-1.45712518692,-0.552002847195,0.227227836847,-1.26520431042,0.138543128967
2017/07/09/09:30:42.830728,222749,1499563845,629490835,,0.844414216009,0.161181768756,0.196635203564,0.728727628517,0.678488277692,0.0444203103941,0.08146494028,-0.0595185498043,-0.331111802166,-0.0411623510642,-0.0805649494216,0.119106046524,0.466854182769,-1.67395853996,2.50391149521,-0.977315425873,-1.58457136154,-0.634215295315,-0.426017105579
2017/07/09/09:30:42.840531,222750,1499563845,639487085,,0.843933368006,0.158042738858,0.196588358073,0.727514250251,0.679832231861,0.0443580469144,0.0811388678685,-0.0620340485515,-0.321067832525,-0.0554139043763,-0.0541103375134,0.139171308416,0.461992889064,-2.69584035873,3.94381999969,-0.863711118698,-2.2834250927,-1.10725176334,-0.55909383297
2017/07/09/09:30:42.850420,222751,1499563845,649487471,,0.843431201131,0.154181228173,0.196023413463,0.726758744741,0.680718112862,0.0442582205744,0.0805343881573,-0.0533495581004,-0.262064712448,-0.0533092071092,0.0167888493233,0.132163319394,0.472351627771,-2.8217356205,3.30926346779,-1.55752527714,-2.07570886612,-1.20007014275,-0.422469049692
2017/07/09/09:30:42.860518,222752,1499563845,659494444,,0.843434927587,0.150952392413,0.196264488502,0.725618468789,0.681877978192,0.0439748703595,0.0811570784756,-0.0422599718601,-0.296341846711,-0.0418542495971,0.0226927684421,0.0789993504123,0.391489031766,-3.72371649742,1.41712725163,-1.49704360962,-1.12265944481,-1.49476969242,-0.145557522774
2017/07/09/09:30:42.870915,222753,1499563845,669491859,,0.843127618653,0.147875138962,0.195654164793,0.724926206322,0.682627074444,0.0437489620684,0.08116834938,-0.0533809866906,-0.328479769706,-0.0463853529286,-0.0217552049955,0.0812569437814,0.273080291864,-4.77178430557,-0.565449893475,-1.99642121792,-0.222078472376,-1.93771255016,0.13257342577
2017/07/09/09:30:42.880658,222754,1499563845,679490033,,0.842280644215,0.145479965991,0.194662349833,0.724621753848,0.683060417022,0.0431036279215,0.0805844762263,-0.0425479071143,-0.357366654526,-0.0473898808744,-0.0454440421633,0.046298639903,0.104550259018,-5.84009027481,-0.0422487705946,-1.64882779121,-0.266694754362,-2.20214653015,0.0694394856691
2017/07/09/09:30:42.890856,222755,1499563845,689488938,,0.842006370006,0.142633047722,0.194716808898,0.72449461382,0.683170539716,0.0434596286097,0.0806029087052,-0.0344107726803,-0.324082203388,-0.0373144778472,-0.0522470432544,0.0158569359284,0.0581208225331,-6.59527540207,-0.692013800144,-0.749696433544,-0.22657430172,-2.37948155403,0.0603717193007
2017/07/09/09:30:42.900495,222756,1499563845,699485073,,0.841835848969,0.139892286476,0.194193648121,0.72275839731,0.685010253073,0.0433024962312,0.0806606851164,-0.0331767597321,-0.306236411861,-0.0286239644463,-0.0380812931473,0.0111109242203,0.180238093067,-7.19779157639,0.616164207458,-0.675983130932,-0.678506791592,-2.57435798645,-0.00199303030968
2017/07/09/09:30:42.910511,222757,1499563845,709487029,,0.841071750583,0.137263057915,0.193592250724,0.721280800921,0.686672680752,0.0428551449303,0.0799879508737,-0.0428232415003,-0.285935563197,-0.051085266863,-0.0152762299417,0.0658090260621,0.35929487684,-7.69020605087,1.11908221245,-1.30174052715,-0.831132531166,-2.71789765358,-0.0368043780327
2017/07/09/09:30:42.920596,222758,1499563845,719494606,,0.840499641373,0.134222539899,0.193487847723,0.720373421568,0.687663035652,0.0426707124235,0.079755207964,-0.0730131779899,-0.274026104472,-0.0734256018519,-0.0085856121902,0.150048635083,0.45596412299,-7.19119262695,0.880074620247,-1.09814488888,-0.814137816429,-2.64281773567,-0.022266715765
2017/07/09/09:30:42.930452,222759,1499563845,729485726,,0.839865593189,0.13111148939,0.192996889767,0.719349703063,0.688775970474,0.0420422686591,0.079725245981,-0.0637536601077,-0.280150497894,-0.0532248405295,-0.0193633020855,0.120288126866,0.437685403412,-8.62064838409,0.726368010044,-1.49126768112,-0.571608781815,-3.15708136559,0.119508653879
2017/07/09/09:30:42.940687,222760,1499563845,739510234,,0.839585829663,0.128828270343,0.19234920183,0.717984613019,0.690217695057,0.0418514401242,0.079662323955,-0.052017363939,-0.285662184356,-0.0493960506497,-0.0729360409765,0.0792320993793,0.378651914976,-7.93567371368,0.262982547283,-1.046205163,-0.379703998566,-2.87593960762,0.178053200245
2017/07/09/09:30:42.950939,222761,1499563845,749522006,,0.839124300149,0.126684663125,0.191445867116,0.716386180216,0.69193665589,0.0414149157779,0.0793681912514,-0.0536735287135,-0.290024909429,-0.0592133512125,-0.0910457513545,0.0859848099523,0.356158494711,-7.39653158188,0.201971545815,-0.954455018044,-0.394863337278,-2.65809512138,0.17673689127
2017/07/09/09:30:42.960605,222762,1499563845,759498543,,0.838070909357,0.12340907605,0.190478725671,0.715528961294,0.692922387827,0.0401093005462,0.079171421654,-0.0434919522536,-0.297459258204,-0.0497171389526,-0.104787567104,0.0674323683213,0.332390914056,-8.05598831177,0.547047376633,-1.09975230694,-0.598264753819,-2.87580966949,0.115310043097
2017/07/09/09:30:42.970461,222763,1499563845,769489436,,0.837805146529,0.120290609652,0.190716241035,0.714723173303,0.693731021366,0.0399545143428,0.0794461598942,-0.0629597773383,-0.290426552012,-0.0656380489076,-0.0893485320354,0.116189364308,0.342919543299,-7.97603464127,-0.135040909052,-0.907335698605,-0.438356518745,-2.84265017509,0.135632157326
2017/07/09/09:30:42.980644,222764,1499563845,779491139,,0.836969785977,0.117579601649,0.189532955381,0.71374364457,0.694841475357,0.0394584942483,0.0787931544703,-0.0465321100551,-0.258634120556,-0.0505470583999,-0.0438734182462,0.0808014184761,0.330595929336,-8.86197662354,0.67921435833,-1.65960466862,-0.698733627796,-3.21449947357,0.0850754752755
2017/07/09/09:30:42.990522,222765,1499563845,789489202,,0.837377143901,0.115077611426,0.189914802769,0.71256503884,0.695952598799,0.039734718252,0.079512249452,-0.064148832326,-0.253377661281,-0.0607717146963,-0.0280525281863,0.117334129831,0.305839136311,-8.24349021912,0.561810135841,-1.23868453503,-0.525767207146,-3.0574016571,0.17053565383
2017/07/09/09:30:43.000676,222766,1499563845,799487863,,0.836299905815,0.11310904638,0.188826316714,0.712120440645,0.696547955179,0.0390701109796,0.07860630114,-0.0400121486207,-0.25258074098,-0.0407611627278,-0.0430205347762,0.0578352518044,0.254413595502,-8.32260322571,0.600307822227,-1.13109695911,-0.634853541851,-2.96410608292,0.117213763297
2017/07/09/09:30:43.010790,222767,1499563845,809487808,,0.836294419876,0.110427057815,0.188364816747,0.711626073367,0.69703514431,0.0388052358583,0.0788954559575,-0.0507892273983,-0.280114377901,-0.0584922442455,-0.0537428590411,0.0847984473575,0.164663039981,-7.45299530029,0.471769720316,-1.19954156876,-0.508787989616,-2.74349427223,0.152837738395
2017/07/09/09:30:43.020437,222768,1499563845,819525995,,0.836152295607,0.108814352485,0.187831857789,0.711209407439,0.697499365739,0.0390784309927,0.0784135816947,-0.0410119503994,-0.267082427415,-0.0525555009056,-0.0695380314818,0.0706061815831,0.125960146179,-7.3702340126,1.06085157394,-1.20528316498,-0.750466823578,-2.69024777412,0.0720011740923
2017/07/09/09:30:43.030621,222769,1499563845,829486724,,0.836165930679,0.106346169639,0.187892405795,0.710606650508,0.698086712288,0.0390748729382,0.0786529381911,-0.0210891769006,-0.228219611262,-0.0552068965968,-0.0209309795741,0.0359327597495,0.137113871887,-7.22051334381,1.17311561108,-1.416410923,-0.728683710098,-2.66440272331,0.0990500003099
2017/07/09/09:30:43.040501,222770,1499563845,839487621,,0.836064582793,0.102940252024,0.187570228617,0.710968811672,0.697669195415,0.0388026795008,0.0792173886416,-0.0269827740392,-0.247766029352,-0.0593615816962,-0.00479274629874,0.0444532799837,0.0705434166169,-8.25589179993,0.342834889889,-1.1716350317,-0.503983438015,-3.00476980209,0.181318774819
2017/07/09/09:30:43.050533,222771,1499563845,849484822,,0.835912239287,0.101315130257,0.186746384854,0.710750410596,0.697911596447,0.0386498696691,0.0791166541086,-0.00922211855388,-0.256225669291,-0.0400702371331,-0.0277277972076,-0.00910249227607,0.0188138440429,-7.55575561523,1.00213325024,-1.5174216032,-0.602595150471,-2.74084854126,0.126165628433
2017/07/09/09:30:43.060629,222772,1499563845,859493585,,0.83588706486,0.0983065268845,0.186736556353,0.7110371407,0.697595718591,0.038386703346,0.0794535018444,-0.0199073056086,-0.257204000885,-0.0472221508817,-0.0444966476804,0.0191497518672,-0.01288505399,-7.38164901733,0.458547800779,-1.23031282425,-0.4246481359,-2.62504386902,0.189562410116
2017/07/09/09:30:43.070685,222773,1499563845,869484693,,0.835407190702,0.0955649065847,0.186093566146,0.711411486752,0.69723379703,0.0379211536055,0.0795029238755,-0.00595060632722,-0.230315907853,-0.0418400576061,-0.0552304784863,0.00306568909539,0.000874453603053,-6.24934101105,0.141273856163,-0.956619918346,-0.370718747377,-2.13933300972,0.0917741879821
2017/07/09/09:30:43.080628,222774,1499563845,879503029,,0.835367878787,0.0946662842663,0.186016597806,0.7113606371,0.697319220462,0.0379050016795,0.0792159050107,-0.00308629938712,-0.245451247054,-0.026768418556,-0.0541633419114,-0.0186615220574,-0.0573090470778,-7.1589717865,1.05022776127,-0.636849462986,-0.609859406948,-2.563113451,0.0552019551396
2017/07/09/09:30:43.090406,222775,1499563845,889492222,,0.835172205116,0.0922967034742,0.184911150503,0.711871245376,0.696843138322,0.0379628171498,0.0787895620864,-0.0190786570207,-0.216670246512,-0.0443158781082,-0.00587448238477,0.0363804696466,-0.0831996793416,-7.62642908096,1.12602615356,-1.08768773079,-0.698342084885,-2.82252192497,0.0281585082412
2017/07/09/09:30:43.100559,222776,1499563845,899486052,,0.835825388649,0.0903950058801,0.185608290826,0.711984154575,0.6965973793,0.0385453184041,0.0796549635302,-0.00677679757963,-0.190630628219,-0.0389010966289,0.0158141442867,0.0125248277507,-0.0638753998416,-7.25655889511,1.06609535217,-0.527227282524,-0.628910303116,-2.76002502441,0.0352045446634
2017/07/09/09:30:43.110463,222777,1499563845,909485182,,0.834926220741,0.0888269962851,0.184276056371,0.71215489149,0.696584090255,0.0377620990042,0.0786132279582,0.000700499929859,-0.201928429282,-0.0294504602681,0.0346203784661,-0.0231729068028,-0.097131476103,-7.92932033539,1.13232457638,-0.845403254032,-0.708993911743,-2.9502530098,0.0268611609936
2017/07/09/09:30:43.120680,222778,1499563845,919495558,,0.835480392158,0.086762143164,0.184741687718,0.712689721917,0.695924032083,0.0382800654114,0.0793582915349,-0.00287665870294,-0.189220596862,-0.035290753607,0.028776508769,0.000660242594369,-0.105982126211,-7.02539587021,0.932257533073,-0.882683157921,-0.578338265419,-2.65738868713,0.0489410087466
2017/07/09/09:30:43.130648,222779,1499563845,929492937,,0.835172852569,0.0852385732902,0.183834596825,0.713455473568,0.695227519417,0.0381999848725,0.0786177119836,-0.00106598010471,-0.198170035417,-0.0248269625482,0.0300076436941,-0.0146034303759,-0.151064983338,-6.99015378952,0.954363107681,-1.53164732456,-0.735380291939,-2.7108976841,0.00214970856905
2017/07/09/09:30:43.140578,222780,1499563845,939497609,,0.834957826162,0.0840309584496,0.183415639768,0.713862204412,0.694864463037,0.0383649346731,0.078052949384,-0.00242275172356,-0.19147083768,-0.0298276174941,0.0727241621057,-0.0092615271655,-0.209589983746,-6.52924633026,1.32776927948,-1.56793189049,-0.795272231102,-2.60062241554,-0.0368461161852
2017/07/09/09:30:43.150438,222781,1499563845,949487764,,0.835109594946,0.0816854816709,0.183438679709,0.714799461441,0.69386982424,0.0388534067315,0.0780820704032,-0.0053209794611,-0.177855512902,-0.0341236203838,0.0735690399691,0.00590473820931,-0.198431365496,-6.14684295654,1.0521556139,-1.64434170723,-0.888194382191,-2.54970860481,-0.0835040807724
2017/07/09/09:30:43.160488,222782,1499563845,959487645,,0.834843567037,0.0802658703126,0.183054158369,0.715386839605,0.693321447297,0.0386736578625,0.0776620153296,-0.00302281425758,-0.15175936849,-0.0429745801121,0.103416467602,0.0186482536663,-0.172036492934,-5.79300785065,1.03651177883,-1.64911520481,-0.765389561653,-2.49632954597,-0.0250391438603
2017/07/09/09:30:43.170594,222783,1499563845,969497352,,0.835093139331,0.07911664332,0.18246029638,0.715596008726,0.693119788865,0.0392802708368,0.0772293396421,-0.00990041676879,-0.132032124872,-0.0477285026636,0.118958125292,0.0428569314636,-0.0995197610783,-5.36896800995,0.700068950653,-1.99227678776,-0.58967256546,-2.48180294037,-0.0217046141624
2017/07/09/09:30:43.180645,222784,1499563845,979491046,,0.835152575582,0.0772968730193,0.182256590808,0.716216469285,0.692491853143,0.0392205458684,0.0771411124921,-0.00834236607728,-0.153917276784,-0.0391479063085,0.0804137153126,0.0325797781478,-0.102190108486,-4.95908927917,0.367646098137,-1.79063272476,-0.421166956425,-2.37555551529,0.047844953835
2017/07/09/09:30:43.190421,222785,1499563845,989488217,,0.835252967171,0.0765810054363,0.182259906869,0.716556942134,0.692155597673,0.0398817565774,0.0766565247121,0.00549828513082,-0.15197067553,-0.0330435977482,0.0636621636213,0.00718471181095,-0.111934518652,-5.27297353745,0.0787082612514,-1.32983124256,-0.377387732267,-2.50382852554,0.0417458191514
2017/07/09/09:30:43.200851,222786,1499563845,999491747,,0.83550334536,0.0744749477995,0.182132910783,0.717264816556,0.691365757004,0.03963555982,0.077289037842,0.0103525419811,-0.15385428217,-0.0263518720621,0.0738302916725,-0.0192734864682,-0.152157356382,-4.80176782608,0.625260531902,-1.62230479717,-0.506607294083,-2.3748857975,0.0155718401074
2017/07/09/09:30:43.210621,222787,1499563846,9486768,,0.835531286547,0.073831331303,0.18182800087,0.717975448389,0.690668555587,0.0401556821701,0.0766532649258,0.0164696379424,-0.13465443819,-0.0183768645888,0.0455237685224,-0.0324447277276,-0.173320461915,-4.27199459076,1.06438672543,-1.88636696339,-0.774128437042,-2.13749647141,-0.100622780621
2017/07/09/09:30:43.220680,222788,1499563846,19493799,,0.836152023095,0.0719969929161,0.181951991542,0.718534528743,0.689986198665,0.040512251701,0.0773688187638,0.0252202969094,-0.133731319102,-0.0176461692072,0.0672306787195,-0.0598926184747,-0.224190158379,-3.93098020554,0.603525876999,-1.85003173351,-0.640106916428,-2.00338888168,-0.0835259482265
2017/07/09/09:30:43.230521,222789,1499563846,29488301,,0.835874181789,0.0705291880089,0.181137168318,0.719336249226,0.689213672945,0.0404275345294,0.076847173189,0.0220390516492,-0.141392849523,-0.0363838213985,0.0671946186673,-0.043151714895,-0.214991408343,-3.05309915543,0.465406477451,-1.74064767361,-0.6176648736,-1.63032901287,-0.107264772058
2017/07/09/09:30:43.240445,222790,1499563846,39487834,,0.836152550978,0.0692794978756,0.180644864692,0.719956757895,0.68854895707,0.0409236933692,0.0767323386902,0.0280346438662,-0.150411481954,-0.024700880749,0.0749875068835,-0.0773062216386,-0.221390124954,-2.7179338932,1.07146704197,-1.73786020279,-0.749613940716,-1.44376826286,-0.128572165966
2017/07/09/09:30:43.250644,222791,1499563846,49486101,,0.835936096787,0.0679274874188,0.180072726003,0.720384853514,0.688159330193,0.0411424428571,0.0760900682842,0.0138505217693,-0.133572496274,-0.0411484190118,0.0627917095735,-0.0124689294071,-0.109412766127,-3.78970479965,1.08309721947,-1.30256843567,-0.892151117325,-1.81579625607,-0.155558213592
2017/07/09/09:30:43.260784,222792,1499563846,59505333,,0.835751291243,0.0668982134619,0.179131924519,0.719427287402,0.68923366191,0.0404359323766,0.0758041740528,0.00385405420094,-0.140519565359,-0.0281275396047,0.050653933196,0.00484595429531,0.0012462540249,-4.63551807404,1.35384249687,-1.50283181667,-0.992173373699,-2.15163683891,-0.148601830006
2017/07/09/09:30:43.270666,222793,1499563846,69497437,,0.836146749338,0.0653912525675,0.180010024701,0.719515974138,0.689059985124,0.0413828253156,0.0760300047978,0.00590543522183,-0.11142463046,-0.0353408020055,0.0207577575691,0.0268285239439,0.141311744683,-4.55365991592,1.23113465309,-0.880790472031,-1.14598667622,-2.12799239159,-0.278547465801
2017/07/09/09:30:43.280624,222794,1499563846,79499142,,0.836574847606,0.0649615898595,0.1798997327,0.72003981193,0.688495027953,0.0418918302154,0.0759100802379,-0.00457003570891,-0.118265955021,-0.0316018743965,0.0463957808931,0.0392013750946,0.0141968119847,-4.81686973572,1.44704699516,-1.22871685028,-0.947824716568,-2.28398299217,-0.196114271879
2017/07/09/09:30:43.290595,222795,1499563846,89486858,,0.836317843692,0.0635904818936,0.179094065497,0.720437224586,0.688153664341,0.0412908948619,0.0755632297249,0.00734705192258,-0.144947773984,-0.0265949085126,0.0384819702248,-0.00410177649752,-0.154119043032,-4.14487123489,1.19029998779,-0.88873976469,-0.850699782372,-1.94428765774,-0.194115996361
2017/07/09/09:30:43.300546,222796,1499563846,99486127,,0.836826361123,0.0623797181468,0.179031084998,0.721357281391,0.687127958003,0.0421445965555,0.0756483634717,0.0240896291926,-0.125520701644,-0.0184925224772,0.0600736352778,-0.0498332998089,-0.204804918632,-4.1663107872,0.72632598877,-1.16115856171,-0.781413912773,-1.81437420845,-0.151399388909
2017/07/09/09:30:43.310853,222797,1499563846,109485326,,0.836678657829,0.0617904138163,0.178338943864,0.721719781403,0.686812918106,0.04205327732,0.0751005627232,0.0277463701529,-0.116668187228,-0.0161274272494,0.0489115350613,-0.0527335371319,-0.17353292602,-3.49663567543,1.57986724377,-1.13329124451,-0.998177349567,-1.44547867775,-0.228467047215
2017/07/09/09:30:43.320494,222798,1499563846,119494129,,0.83717439059,0.0606145763774,0.178210886374,0.722448999677,0.686005215898,0.04230084892,0.0753320967932,0.0253239546196,-0.0996015293465,-0.0139353295576,0.0755188994812,-0.0428425826594,-0.177116021159,-4.59435367584,1.56604421139,-1.03888642788,-1.19392681122,-1.81937468052,-0.280618786812
2017/07/09/09:30:43.330678,222799,1499563846,129486132,,0.836853280755,0.0590516532097,0.178026144161,0.723144288477,0.68532456782,0.0423508922786,0.0748263102736,0.0217984152678,-0.0783782282807,-0.0104238854471,0.0910403490362,-0.0220166283542,-0.150523124977,-4.53641319275,1.40353703499,-1.22251427174,-1.21156454086,-1.77257847786,-0.343436121941
2017/07/09/09:30:43.340586,222800,1499563846,139491421,,0.837405392313,0.0592972865636,0.178200144071,0.723154748662,0.685289016813,0.0428094264096,0.0747898785484,0.00202634945997,-0.10161789685,-0.0240675968275,0.0554202394414,0.0195903659533,-0.134293078769,-3.97167229652,1.95373225212,-0.48957580328,-1.17922449112,-1.5646584034,-0.352938175201
2017/07/09/09:30:43.350823,222801,1499563846,149488134,,0.837287720564,0.0581469200939,0.178291796207,0.723676533672,0.684762627159,0.0428278708286,0.0745532865721,0.0140093737398,-0.0794235642569,-0.0133043246171,0.0729234401005,0.00496595442604,-0.12459105248,-3.75666189194,0.703471064568,-0.3143055439,-0.834414958954,-1.482006073,-0.289472252131
2017/07/09/09:30:43.360771,222802,1499563846,159487875,,0.837251645524,0.0567746882251,0.17794858901,0.724411439631,0.684014892478,0.0426982399944,0.0743542419885,0.0165131593855,-0.0782144356626,-0.00504263812068,0.0588307340494,0.00310713901676,-0.102518933426,-4.14691829681,0.716847896576,-0.989306271076,-0.804404675961,-1.72102677822,-0.281555205584
2017/07/09/09:30:43.370560,222803,1499563846,169493016,,0.837603274598,0.0574510332325,0.178103913462,0.724125933921,0.684340737737,0.0431684560616,0.0738638673399,-0.00456510303092,-0.0853780705047,-0.0114957206838,0.0591842939856,0.0492919729313,-0.116950901033,-3.80728912354,1.51441764832,-0.935586094856,-0.924789786339,-1.77243411541,-0.278560996056
2017/07/09/09:30:43.380625,222804,1499563846,179493361,,0.837470360744,0.0551210798036,0.178087163827,0.72451736562,0.683916150916,0.0425824026194,0.074296866819,0.0141562202395,-0.073762498655,-0.00123497905177,0.0590597181947,0.00347032636256,-0.090079402129,-3.40882754326,1.14739513397,-1.19499874115,-0.944433927536,-1.61973118782,-0.32770460844
2017/07/09/09:30:43.390698,222805,1499563846,189487789,,0.837848843428,0.0555195218791,0.177736562673,0.724943972472,0.683493818071,0.0434612193456,0.0735089099926,0.0135004145546,-0.0856431018604,-0.0145711982194,0.0614571972803,0.00398211546019,-0.110109055792,-2.62978959084,1.1132774353,-0.679755449295,-0.839542865753,-1.32804679871,-0.234096989036
2017/07/09/09:30:43.400992,222806,1499563846,199493086,,0.838074247243,0.053912087283,0.177969337045,0.725217592436,0.683158988703,0.0434027048873,0.073955696088,0.0310900413906,-0.0936577185276,0.00485883070782,0.0463918044296,-0.0542068260867,-0.10415086101,-2.72107338905,0.747466802597,-1.20029366016,-0.791220664978,-1.23550140858,-0.2171407938
2017/07/09/09:30:43.410710,222807,1499563846,209487278,,0.838515840548,0.0544132607752,0.177759001419,0.725258061184,0.68314202918,0.0441102632263,0.0732939106125,0.0281159990911,-0.0677609749313,-0.00104282781876,0.0664230525792,-0.0369406774991,-0.0515828338753,-2.55367279053,1.0487575531,-0.752792775631,-0.830145359039,-1.15268886089,-0.194817394018
2017/07/09/09:30:43.420667,222808,1499563846,219490262,,0.838853164635,0.0532958346166,0.177754253003,0.725087304485,0.683272185602,0.044057455164,0.0738001483926,0.0311342167008,-0.0753211437876,-0.00293924807826,0.0524726513335,-0.039269887028,-0.0203853215828,-2.84184122086,1.25486052036,-1.08400011063,-0.79204505682,-1.22799801826,-0.146758660674
2017/07/09/09:30:43.430775,222809,1499563846,229485262,,0.838455366033,0.052656483023,0.17751309358,0.725153464008,0.683300104813,0.0438920404107,0.0729856779678,0.0128545570158,-0.0824113867058,-0.00201346478031,0.00902521330385,0.00737744420166,-0.00681827763641,-4.03532743454,1.27149093151,-0.725785255432,-0.882361352444,-1.60854578018,-0.189423546195
2017/07/09/09:30:43.440685,222810,1499563846,239492300,,0.839002168027,0.0516212212272,0.178076309144,0.725027799419,0.683367213203,0.0441941350823,0.0734222065373,0.0017208794987,-0.0670768983551,-0.0028424546938,0.025119090546,0.0458892620232,0.0157711640677,-3.53100562096,1.20664608479,-0.521656870842,-0.827081263065,-1.55086112022,-0.193451568484
2017/07/09/09:30:43.450523,222811,1499563846,249486460,,0.838634651845,0.0518818708529,0.177863197578,0.724809384293,0.683708036605,0.0439118388921,0.0725701559055,-0.00857752141889,-0.0640956927362,-0.00913444965358,0.0371852038239,0.0738430835292,0.0482484827942,-2.35206127167,1.64536190033,-0.880498588085,-0.890053272247,-1.11597466469,-0.278519034386
2017/07/09/09:30:43.460569,222812,1499563846,259488846,,0.838605416023,0.0508382316001,0.17793497459,0.724860947763,0.683683571705,0.0439368536823,0.0722698628578,-0.0132142206517,-0.0528126825077,-0.0189560892682,0.0546889275882,0.0894669467582,0.0437931666218,-2.24533677101,1.16162753105,-0.46264988184,-0.774766921997,-1.13551676273,-0.274958044291
2017/07/09/09:30:43.470526,222813,1499563846,269485543,,0.838594371157,0.0504557061278,0.177647491712,0.724464660027,0.684144237298,0.0438604924417,0.0719296611092,-0.00664279101176,-0.0570529621646,-0.00595536573355,0.0470318384628,0.0646560195255,0.0575729897385,-2.61745285988,1.0644967556,-0.356911987066,-0.756426811218,-1.2388831377,-0.205164015293
2017/07/09/09:30:43.480628,222814,1499563846,279494276,,0.838677241983,0.050090719712,0.177307542221,0.723657887031,0.685044812636,0.0435300930332,0.071679831325,0.00798707185796,-0.0422387552273,0.00849025709444,0.0340758900594,0.0329289193268,0.0971552110101,-1.70443713665,0.721679568291,-0.449840843678,-0.691821813583,-0.871127963066,-0.170621097088
2017/07/09/09:30:43.490572,222815,1499563846,289493845,,0.838338684412,0.0494642166343,0.177204540555,0.724069200527,0.684681544848,0.0434967595295,0.0710141317093,0.00404527669822,-0.0403779288405,-0.0103329026234,0.050850397101,0.046062863278,0.10393497132,-1.84454977512,0.566473960876,-0.746003627777,-0.657362043858,-0.816718876362,-0.137730404735
2017/07/09/09:30:43.500687,222816,1499563846,299506544,,0.838240104214,0.0485492652225,0.176628447271,0.724288021858,0.684492586842,0.0433658955058,0.0706835133443,0.00245265023387,-0.0490827748831,-0.0177988972322,0.0381438545408,0.0547284104154,0.0516633221714,-1.38452482224,0.400576174259,-0.9445540905,-0.676243424416,-0.552653729916,-0.181348457932
2017/07/09/09:30:43.510802,222817,1499563846,309491236,,0.838445824044,0.0490059104633,0.176959655691,0.724312896305,0.684492071151,0.0435757253695,0.0703035485253,-0.0180642632203,-0.0746718466387,-0.035355026264,0.0535460928551,0.0921390221364,-0.0517547595843,-1.10910511017,1.23851764202,-0.155955210328,-0.700708389282,-0.48200494051,-0.163384214044
2017/07/09/09:30:43.520653,222818,1499563846,319493580,,0.838099266083,0.048048940802,0.176743829802,0.724495852369,0.684368778601,0.0435294361187,0.0696442601189,-0.0143310762064,-0.0522717695081,-0.0213049085928,0.0576467315079,0.0918060715279,-0.0467864707201,-1.12620019913,0.878534436226,-0.369643509388,-0.577951312065,-0.473073840141,-0.109149768949
2017/07/09/09:30:43.530663,222819,1499563846,329494102,,0.837835645957,0.047862525081,0.176993051381,0.724214524228,0.684737838548,0.0431572183238,0.0691727537758,-0.0199121562981,-0.0608402985583,-0.00636203531562,0.0687316923828,0.0827050676686,-0.0376900193774,-1.80716300011,1.19189453125,-0.1175641343,-0.78755903244,-0.720019578934,-0.160256266594
2017/07/09/09:30:43.540666,222820,1499563846,339484949,,0.837537055092,0.0470071255539,0.176817314908,0.72389064367,0.685144205904,0.0430597582872,0.0685974514115,-0.0156396841552,-0.0343870947672,0.00142474139016,0.053249613981,0.0917560628974,0.0801851431355,-1.52338409424,0.673192560673,-0.401831179857,-0.701807439327,-0.693031013012,-0.154498755932
2017/07/09/09:30:43.550438,222821,1499563846,349488498,,0.837370347025,0.0465070115602,0.17670484657,0.723860356705,0.685242423288,0.0425013826602,0.0682835103827,-0.0271540548895,-0.0324654851136,-0.0119327285791,0.0340838721408,0.133917278881,0.142300924743,-0.185533806682,0.487151861191,-0.847821891308,-0.644485652447,-0.274237632751,-0.182743340731
2017/07/09/09:30:43.560734,222822,1499563846,359502860,,0.837558073754,0.0464441806568,0.176495107354,0.723448972521,0.68570359835,0.042597577742,0.0679529671088,-0.0183653165294,-0.0108915519465,-0.0148673309978,0.0427813548196,0.126087140448,0.140441864145,0.557640492916,-0.472001612186,-0.549229264259,-0.284506559372,-0.0449973642826,-0.0898075252771
2017/07/09/09:30:43.570632,222823,1499563846,369518254,,0.837268250113,0.0459700514663,0.176394360522,0.72383483439,0.68536187431,0.0424492934932,0.067381683323,-0.0258448612735,-0.0444830482896,-0.0194324759819,0.0471069611437,0.119350687718,-0.00571251713729,1.07774996758,-0.526556789875,-0.414079815149,-0.174922823906,0.162037938833,-0.0723836570978
2017/07/09/09:30:43.580368,222824,1499563846,379489986,,0.836964217757,0.0453550477521,0.176394954377,0.724187535712,0.685056102754,0.0420184035511,0.0669701647106,-0.017816442053,-0.0645132181462,-0.00118088990017,0.0587735499798,0.0735611910277,-0.118045601436,0.591924190521,-0.155483290553,-0.48389133811,-0.317910701036,0.0589371919632,-0.0934227928519
2017/07/09/09:30:43.590424,222825,1499563846,389488011,,0.836756276114,0.0450337954799,0.175940906251,0.7246070802,0.684674814079,0.0422023287459,0.0662113414712,-0.00625007802166,-0.0173189696229,-0.0122239747623,0.0816225699637,0.0685312657703,-0.070604320234,0.588652849197,0.0633942037821,-0.447418481112,-0.376883506775,0.11158156395,-0.0410680025816
2017/07/09/09:30:43.600625,222826,1499563846,399486388,,0.837365421984,0.044848945459,0.176504524869,0.724413620968,0.684837216257,0.0425796386638,0.0664068321561,-0.00267016161253,-0.0245064217611,-0.00516613262373,0.0605981004507,0.0588296694702,-0.0124839501482,0.577408850193,0.586801171303,0.473981589079,-0.579255402088,0.153250947595,-0.0963103845716
2017/07/09/09:30:43.610547,222827,1499563846,409487611,,0.836647738564,0.0445950997462,0.176119793528,0.724186711266,0.685212291055,0.041801193092,0.0655010203615,-0.00484529624702,-0.0284595275671,-0.00313992242353,0.0503137107316,0.0599505337301,0.0516246596867,0.32563111186,0.694201350212,-0.197160422802,-0.563384354115,0.101204156876,-0.0709014683962
2017/07/09/09:30:43.620565,222828,1499563846,419486877,,0.836318298658,0.0439822359577,0.175550193804,0.724364538475,0.68509609445,0.0417082812067,0.06480567913,-0.0375955029887,-0.025822405626,-0.0215228893742,0.0511446418891,0.149274115938,0.0522303317381,0.342469245195,0.0016997307539,-0.57412314415,-0.388294845819,0.167436048388,-0.0676428228617
2017/07/09/09:30:43.630520,222829,1499563846,429493893,,0.83618953708,0.0445162750302,0.176068737715,0.723958461976,0.685579379908,0.0418500721733,0.0641375914506,-0.0441580527058,-0.0629791058149,-0.0133442523911,0.0126744199612,0.146390992676,0.029032945527,0.652605652809,0.519716978073,-0.111448042095,-0.354857414961,0.265785127878,-0.0734552145004
2017/07/09/09:30:43.640636,222830,1499563846,439497762,,0.835945016313,0.0436810106039,0.175916647065,0.724090227718,0.685486227252,0.0413880735148,0.0639453027292,-0.0270686337463,-0.0210295800759,-0.00809364248127,0.0477004031523,0.11676776432,0.0584865195729,1.04178011417,-0.122147545218,0.273983925581,-0.273115187883,0.377862453461,-0.0760768577456
2017/07/09/09:30:43.650488,222831,1499563846,449487728,,0.834733092161,0.0430621358607,0.175020776706,0.724418985065,0.68532230917,0.0404581007451,0.0625588420279,-0.0311040791624,-0.0109082605127,-0.00778279060294,0.0893442571568,0.116486952003,0.00804096262909,0.354880571365,-0.214284151793,-0.15939925611,-0.323575913906,0.160906538367,-0.0912059172988
2017/07/09/09:30:43.660425,222832,1499563846,459492897,,0.835214131912,0.0442615124688,0.175390288788,0.723988517732,0.685773113679,0.0407702395709,0.0623991210896,-0.0181844311885,-0.0124048332286,-0.00523312735667,0.0662555397406,0.0892961102923,-0.00393152026431,0.773134052753,0.586563050747,0.320183932781,-0.466668486595,0.278423279524,-0.0876509174705
2017/07/09/09:30:43.670704,222833,1499563846,469489401,,0.835370654052,0.0430636275235,0.175655244758,0.724753278052,0.684924478929,0.0414249885944,0.0624108519119,0.00318102814348,-0.0151258616621,0.00296365241975,0.0459990649353,0.0267698508391,-0.0357437460057,0.764109194279,-0.430437445641,0.377326011658,-0.274269998074,0.339981168509,-0.0894666239619
2017/07/09/09:30:43.680599,222834,1499563846,479489016,,0.835077762033,0.0435347365148,0.174943503383,0.724501781773,0.685293075839,0.0408688614906,0.0616466104164,-0.0178880685645,-0.0282521622725,-0.00635727817228,0.0513192504966,0.0666917157033,-0.0632783486113,1.27798306942,0.180955529213,-0.131548911333,-0.387086242437,0.545870959759,-0.105375215411
2017/07/09/09:30:43.690917,222835,1499563846,489489949,,0.835068537669,0.0430141447376,0.175279879301,0.724946973386,0.684820791246,0.0410005414551,0.061573738366,-0.0076825121349,-0.00208089633716,-0.0127144515336,0.0447818182403,0.0596009211072,-0.02939084263,1.10188066959,-0.657635450363,0.219954535365,-0.150318801403,0.491105616093,-0.0399434790015
2017/07/09/09:30:43.700680,222836,1499563846,499497814,,0.834966084268,0.0430832652037,0.174945186238,0.724811140414,0.684997613466,0.040951955379,0.0612373875054,-0.00539745569387,-0.0287039232884,-0.00083181821197,0.0480734770697,0.027432360936,-0.0728307332553,1.26246511936,-0.25400865078,-0.33182272315,-0.183457642794,0.580197632313,-0.03481830284
2017/07/09/09:30:43.710920,222837,1499563846,509488753,,0.835224622393,0.0433615918892,0.174985728118,0.724841110183,0.684968568585,0.0411692876139,0.0610615656334,-0.0190828577065,-0.0431235863464,-0.0243872155843,0.042259668372,0.059382551773,-0.0764726846546,2.70996141434,0.313102662563,0.232680588961,-0.25412222743,1.03307962418,-0.0803317576647
2017/07/09/09:30:43.720995,222838,1499563846,519494685,,0.835438627036,0.0432035084044,0.175459648491,0.724896165377,0.684866879058,0.0414661739853,0.0613470765831,0.00970832937358,-0.00835422897837,-0.00219489140927,0.0245212103284,0.00399154518011,-0.00707397242296,2.43918967247,0.418395668268,0.375137031078,-0.299037158489,1.0000783205,-0.0916037559509
2017/07/09/09:30:43.730551,222839,1499563846,529484049,,0.835265800846,0.0417310587941,0.175135803238,0.72542991541,0.684312391442,0.041126157584,0.0614542749469,0.0157943142794,-0.00399541666403,0.0111253833092,0.0137395626618,-0.021116558026,0.016856629727,1.69534230232,0.119056507945,0.238495886326,-0.338430285454,0.754699110985,-0.094121158123
2017/07/09/09:30:43.740694,222840,1499563846,539486545,,0.8353057775,0.0414967299265,0.175059839333,0.72562059473,0.684105876722,0.0411480055512,0.0614877514453,0.00898712332276,-0.0176065564275,-0.00879775952899,0.0281621944612,-0.0103680966793,-0.0397537438966,1.52755653858,-0.225494623184,6.44288957119e-06,-0.277009576559,0.735194444656,-0.111409857869
2017/07/09/09:30:43.750629,222841,1499563846,549488739,,0.835539588787,0.041529401885,0.174611573527,0.725759787152,0.683955511037,0.0415458601333,0.0612497492243,0.00280607915734,-0.0523157858573,-0.0238307136367,0.0161649112435,-0.0103558524539,-0.0763404934745,1.91543078423,-0.462806582451,0.213957458735,-0.200083822012,0.877965450287,-0.0818058103323
2017/07/09/09:30:43.760668,222842,1499563846,559490285,,0.835657147178,0.041538155798,0.174966030094,0.725421728083,0.684286054991,0.0416988220037,0.0614582753769,0.0149530412911,-0.0197402803493,-0.00294767224623,0.0136718324211,-0.0320517246237,-0.0340851176669,1.63628005981,-0.099398881197,0.276611804962,-0.0816799476743,0.752090871334,-0.0159245096147
2017/07/09/09:30:43.770688,222843,1499563846,569486413,,0.835512737912,0.0422644757357,0.174821587648,0.725382711426,0.684385242902,0.0414223914849,0.0609995634908,0.0154307423188,0.00234455583126,0.00132582138306,0.0098664228903,-0.0256329170934,0.0115629183928,2.19235634804,0.3247808218,0.146507307887,-0.22072276473,1.02936971188,-0.0585963577032
2017/07/09/09:30:43.780467,222844,1499563846,579484004,,0.836113052072,0.0407636626476,0.17503806845,0.725705677811,0.683925408493,0.0416695357249,0.0621365802313,0.0195645357729,0.0208114773962,-0.00708560083375,0.00507326138245,-0.0217355968058,0.0196597727194,1.59418809414,-0.861979901791,0.328617870808,-0.0179483145475,0.792404413223,-0.0666401833296
2017/07/09/09:30:43.794239,222845,1499563846,589490021,,0.835618009125,0.0416795606412,0.174532735605,0.725658920745,0.684080589693,0.0416198807198,0.0609972382714,0.0064531823607,-0.0120127556776,-0.0221809702884,2.91824856418e-05,0.00517004452041,0.00103180500794,0.895093023777,-0.0956342667341,0.218312993646,-0.0768604427576,0.472316026688,-0.0681433230639
2017/07/09/09:30:43.800549,222846,1499563846,599493208,,0.835910347312,0.040963856608,0.174640925178,0.725629505721,0.684044247044,0.0417621539463,0.0616539618412,0.00135816257994,-0.0298170513968,-0.0120837733157,-0.00693218006489,-0.00299383008863,-0.0265002323409,0.858167827129,-0.44347769022,0.198158159852,-0.00311820954084,0.569753110409,-0.0484896525741
2017/07/09/09:30:43.810602,222847,1499563846,609488910,,0.836091548341,0.0416943787434,0.174147870947,0.725447469893,0.684254420167,0.0420413496356,0.0612730106127,0.0101351797676,-0.0151348769564,-0.00806340492959,0.00995839964285,-0.0212816543658,-0.0037462350151,0.919906258583,0.102775365114,-0.0565815195441,-0.0811800658703,0.552434146404,-0.0513747036457
2017/07/09/09:30:43.820620,222848,1499563846,619493499,,0.836125387321,0.040902428065,0.17415411362,0.725572549471,0.684104308829,0.0418719911957,0.0615833293138,0.0112405071276,-0.00305218707614,-0.0139733747736,0.0226326910012,-0.0187844180202,-0.0140019460197,0.601643204689,-0.160881131887,0.0984542369843,-0.120547115803,0.500598847866,-0.0607694163918
2017/07/09/09:30:43.830402,222849,1499563846,629485665,,0.836081972669,0.0401923000476,0.173747108584,0.725938281389,0.683718183915,0.0416686420662,0.061699115595,0.0170617518836,-0.0122006031804,-0.00962999686896,0.00768692384115,-0.0391297266764,-0.0219143879069,0.32820007205,0.109435901046,-0.223704889417,-0.177908882499,0.426076948643,-0.0646128505468
2017/07/09/09:30:43.840677,222850,1499563846,639492234,,0.836340316932,0.0408877449213,0.173922268916,0.725825981965,0.683814018035,0.0420574644328,0.0616944270458,0.00951531196511,-0.00965884592126,-0.0206318864689,0.0128283507037,-0.0165951398378,-0.0134767630996,-0.131204247475,0.164462685585,0.23792937398,-0.0663462802768,0.239032074809,-0.00767473876476
2017/07/09/09:30:43.850797,222851,1499563846,649489686,,0.836604157745,0.0406913881143,0.173967576731,0.725652081121,0.68395581368,0.0421231347656,0.0621220058859,0.00568861876615,-0.019158653359,-0.00555440372162,-0.0144393870971,-0.0187029755233,-0.0224377459201,-0.0085226111114,0.40773499012,0.16583417356,-0.164957597852,0.252976775169,-0.0458376333117
2017/07/09/09:30:43.860832,222852,1499563846,659487648,,0.836079963354,0.0402386620072,0.173609742717,0.726035163962,0.683614644375,0.0416905767264,0.0616916080141,0.0136167639688,-0.00994165414368,-0.00402944731284,-0.0292236736072,-0.0298626605074,-0.000911307150647,-0.417083054781,0.0618868172169,0.0191616546363,-0.10890031606,0.209438204765,-0.0533770658076
2017/07/09/09:30:43.870329,222853,1499563846,669489096,,0.836853525306,0.0411543498597,0.173457743753,0.725545988399,0.684068197343,0.0423807452441,0.0619483053408,-0.0072005123376,-0.0165179352411,-0.0144925135576,-0.0363589336941,0.0195284045084,-0.0081176403677,-0.128428429365,0.561931848526,0.340486824512,-0.202350318432,0.232295572758,-0.0667907372117
2017/07/09/09:30:43.880648,222854,1499563846,679501111,,0.836662415692,0.0408410289022,0.173967687416,0.725631059148,0.683977200466,0.041994875564,0.062218852994,0.00186509162802,-0.0065220245569,-0.0141826262405,-0.0315597265006,0.00189486115965,0.0149822937462,0.768425345421,0.495707213879,0.510112762451,-0.0744925290346,0.571026444435,-0.0717398896813
2017/07/09/09:30:43.890731,222855,1499563846,689488911,,0.836290513109,0.0397963559974,0.173519993074,0.725915732141,0.683695932117,0.0414747978153,0.0623382978835,0.00601220359287,-0.0101691063022,-0.00266422262509,-0.0194498887716,-0.0185622750377,0.00272434233559,0.279594451189,-0.133318409324,0.395775198936,0.0735753625631,0.372752338648,0.00523363426328
2017/07/09/09:30:43.900416,222856,1499563846,699489732,,0.83742500439,0.0404808825297,0.17400343413,0.725767060531,0.683722946724,0.0425906000731,0.0630170354502,0.00863217401393,-0.0213625960018,-0.000169417380968,-0.0263603127642,-0.0300568115278,-0.0143524462698,0.79988604784,0.374808043242,0.849033951759,-0.140668690205,0.458833426237,-0.0918190330267
2017/07/09/09:30:43.910896,222857,1499563846,709489619,,0.836509778928,0.04006072635,0.173443234668,0.725915309853,0.683671414389,0.0417481038895,0.0624296074784,0.0214911092645,-0.00722966401645,-0.00228652861567,-0.0133201651767,-0.0488930789235,-0.0141704387546,0.0715355724096,-0.108731612563,0.238036215305,0.00760985165834,0.239094212651,-0.0157525353134
2017/07/09/09:30:43.920610,222858,1499563846,719493535,,0.837118657211,0.0401589415978,0.173098829029,0.725634433286,0.68391055988,0.0421789221152,0.0627849810331,0.0139902457474,-0.00334413671256,-0.00240801360454,-0.0127407058283,-0.033255190329,-0.000335620536479,0.303257346153,0.163789868355,0.0121959932148,-0.0320317149162,0.218002930284,-0.0434075146914
2017/07/09/09:30:43.930432,222859,1499563846,729487652,,0.836950289297,0.0403168143068,0.172839815232,0.725550902883,0.684036288688,0.041981979255,0.0625120508511,0.0242827012728,0.00513309783026,-0.00244371254672,-0.00766432927591,-0.0512059111462,0.00525510251347,0.269906580448,-0.2164850384,-0.109108477831,0.0320741124451,0.245069101453,-0.0184827297926
2017/07/09/09:30:43.940576,222860,1499563846,739494076,,0.837232489726,0.0398883620297,0.17329918606,0.725943555133,0.683557369835,0.0422807976055,0.0629889756902,0.00923161917525,0.00119986494604,-0.0243789472063,-0.00168265761263,-0.0114867948995,0.011811520843,0.416939437389,-0.116127260029,0.461416214705,0.0788327977061,0.318897694349,0.010575260967
2017/07/09/09:30:43.950522,222861,1499563846,749492054,,0.837324018461,0.039617855862,0.173186766935,0.725593022961,0.683905328293,0.0420781622972,0.0633852918375,0.015941653215,-0.000682843153283,-0.00629444448998,-0.019014118511,-0.0314611237087,0.0174219616015,0.671178817749,-0.376021265984,0.612916886806,0.0247230343521,0.481358200312,-0.0681771412492
2017/07/09/09:30:43.960952,222862,1499563846,759489796,,0.837230093145,0.0402606029039,0.172786729662,0.725801777682,0.68372371826,0.0423706564021,0.062756546092,0.010606972344,-0.00697705083659,-0.0100469570624,-0.0191894585395,-0.0198452844175,0.0341257004618,0.441648006439,-0.202567100525,0.763390600681,0.163297832012,0.428445249796,0.0343626849353
2017/07/09/09:30:43.970397,222863,1499563846,769487392,,0.837358798041,0.0400956556409,0.172908054997,0.725365160183,0.684168887511,0.0421621019948,0.0630925899694,-0.000658242753721,0.0105797506947,-0.0088406016885,0.0163125185355,0.00823583531911,-0.0157983855246,1.50864648819,-0.105813533068,0.573004305363,0.0618220828474,0.828416764736,-0.0530882328749
2017/07/09/09:30:43.980715,222864,1499563846,779499579,,0.837193060205,0.0392772316455,0.172715297443,0.725966744599,0.683537402444,0.0419380578491,0.0631672739665,0.00354732451014,-0.00577869791593,-0.00337722086894,-0.0107322112948,-0.00740234335023,0.0120142342291,0.998488426208,-0.560815930367,0.645870149136,0.0923455283046,0.637515664101,-0.0286626815796
2017/07/09/09:30:43.990524,222865,1499563846,789492532,,0.837362810692,0.0390573522432,0.173486193847,0.725760444117,0.683706471415,0.0420087134498,0.0636593017082,-0.00119196681311,-0.00406730678574,-0.0113610448623,0.00614213087621,0.00837573248783,-0.0122967368189,1.50122511387,-0.448308825493,0.700109302998,0.119989797473,0.869135677814,-0.0376877263188
2017/07/09/09:30:44.000358,222866,1499563846,799493682,,0.837426336191,0.0401531082867,0.17251669923,0.725463787394,0.684063105084,0.04223180612,0.0630589882074,-0.00542908002351,-0.0135512763435,-0.0129627009274,-0.0105206688738,0.0168734553169,-0.0111017569956,1.3074362278,0.22382864356,-0.0330522581935,0.0380069576204,0.696427226067,-0.0359904058278
2017/07/09/09:30:44.010353,222867,1499563846,809489097,,0.837174372858,0.0396893622899,0.172633750056,0.725750050645,0.683780043366,0.0419556749988,0.0630193432038,-0.00406639964708,-0.012623472379,-0.0104276441113,-0.000990945640244,0.00691734002457,-0.00739984523639,1.88970005512,0.0123706832528,0.24601829052,0.0384964868426,0.931892216206,-0.0263648144901
2017/07/09/09:30:44.020744,222868,1499563846,819491908,,0.837216155898,0.0396495980065,0.172908799022,0.725648866358,0.683868918177,0.0422904495915,0.0629963759161,-0.00214056549537,0.00413913483472,-0.00885878137522,0.00894368407727,0.010529146191,0.0033319138858,1.32919871807,-0.57048112154,0.451308965683,0.134946271777,0.799256980419,-0.0535764917731
2017/07/09/09:30:44.030672,222869,1499563846,829493912,,0.83781203871,0.0394002646941,0.172823395254,0.725866499383,0.6835651868,0.0426910398647,0.0635132709199,-0.00626752694157,-0.00910573278148,-0.00590975611016,0.0140602778551,0.00553858623804,-0.0336692452214,1.71556460857,-0.114690378308,0.531109213829,0.00550980865955,0.863478600979,-0.0669639706612
2017/07/09/09:30:44.040693,222870,1499563846,839489473,,0.83741662905,0.0394486036645,0.172913511533,0.725641865852,0.683858367362,0.0421548744345,0.0632817704638,-0.00212887219138,-0.0227193775477,-0.000144280429873,-0.00352070022466,-0.00443162428755,-0.0400372039924,1.80139863491,-0.140115723014,0.542730748653,0.00648913905025,0.916294515133,-0.0766252279282
2017/07/09/09:30:44.051195,222871,1499563846,849486566,,0.837099407289,0.0397251856025,0.172357289357,0.72576296253,0.683786934838,0.0418883524326,0.062840400184,-0.00527717672815,-0.0157691289695,-0.00204542354608,-0.00402291914691,0.00989489628987,-0.00923198697089,2.35705327988,0.0707475095987,0.46700617671,0.0227083191276,1.11910104752,-0.0602350905538
2017/07/09/09:30:44.060657,222872,1499563846,859494600,,0.837354227807,0.0386788083725,0.172447860389,0.726062428844,0.683406042698,0.0422115623642,0.0633065101628,-0.00753763266588,-0.008768852822,-0.0129874010159,0.024668333116,0.0102276826569,-0.00249633390472,2.205919981,-0.672409653664,0.218156337738,0.089048653841,1.04495131969,-0.0642764270306
2017/07/09/09:30:44.070807,222873,1499563846,869497176,,0.837517946496,0.0382880599398,0.172808297137,0.726183989373,0.683221238981,0.0423486870017,0.0638133284845,-0.0102303925901,-0.0147170424612,-0.0156830661829,0.00838722137205,0.0199708467577,-0.0314383111054,2.42097640038,-0.446736931801,0.539484918118,0.18589925766,1.08831655979,-0.015849776566
2017/07/09/09:30:44.080882,222874,1499563846,879518882,,0.83718904695,0.039357990776,0.17216476949,0.725972954988,0.683540761596,0.0424434979953,0.0627203742107,0.00197942343302,-0.000175775615632,-0.0013128566676,-0.01024835729,-0.00358242516963,0.012641165721,1.90389144421,-0.125113904476,0.257410943508,0.0440654344857,0.958354771137,-0.045255985111
2017/07/09/09:30:44.090310,222875,1499563846,889487083,,0.837109807302,0.0391616137875,0.171988824792,0.726286617653,0.683210304402,0.0423410258855,0.0627587962307,0.00657639683987,0.00821500959848,-0.00409135447547,0.0252289582919,-0.0134517669122,-0.0135793665433,2.19170451164,-0.0642191469669,0.204223737121,0.0925479978323,1.04413282871,-0.0536313802004
2017/07/09/09:30:44.100620,222876,1499563846,899491273,,0.837344688634,0.0386727050318,0.172350139481,0.72646615528,0.682972667106,0.0423835191768,0.0632368446518,0.0111526803216,-0.0157151577229,0.00958872208057,0.00837489690537,-0.049453290401,-0.0314254466079,1.37834739685,-0.140684589744,0.637601554394,0.0791831538081,0.732881486416,-0.017298206687
2017/07/09/09:30:44.110548,222877,1499563846,909485292,,0.837071506996,0.038357697056,0.172249315265,0.726408505513,0.683063212499,0.042122632573,0.0630952825063,0.00300929427229,-0.000896036907602,0.000706969952714,0.0055423519687,-0.0061935615904,-0.00988430611276,1.53655326366,-0.398708194494,0.46660888195,0.137303605676,0.809565544128,-0.0226467102766
2017/07/09/09:30:44.120668,222878,1499563846,919493396,,0.837267484505,0.0387555628199,0.171936274085,0.72631378277,0.68315474052,0.0423145539887,0.0630663775978,-0.00729282607383,-0.0220350918261,-0.0154144955635,-0.00675747634295,0.0159547931941,-0.0218668368698,1.61594009399,0.107670545578,0.0570660978556,-0.0316095240414,0.760594129562,-0.0695103779435
2017/07/09/09:30:44.130532,222879,1499563846,929491636,,0.836957596443,0.0389544515446,0.171673731626,0.726385441254,0.683129296712,0.0421368953539,0.0626341500988,-0.00826002998897,0.00486759911093,-0.0170200584063,0.00763065950466,0.029998688545,0.0166020989004,1.80558514595,0.00863450020552,0.542442560196,-0.0315523967147,0.794218361378,-0.0606063939631
2017/07/09/09:30:44.140664,222880,1499563846,939492332,,0.837092851557,0.0385971580059,0.171973579412,0.726361393656,0.683113034972,0.0422949944018,0.0629828604139,0.00402944708525,0.00966465299647,0.00214353066451,0.0169143188043,-0.0134090264525,0.00689881011602,2.13978672028,-0.511768162251,0.458182245493,0.0962847173214,1.00059235096,-0.0430799722672
2017/07/09/09:30:44.150387,222881,1499563846,949487880,,0.837144289349,0.0386944181927,0.172013327681,0.726122915804,0.68336200258,0.0422681261804,0.0630499015349,-0.00305984291835,0.00162668742251,-0.0111309837673,0.015205669292,0.00600336435255,0.00808312284466,2.67562103271,-0.515454173088,0.689717590809,0.157095104456,1.21271121502,-0.0406486019492
2017/07/09/09:30:44.160717,222882,1499563846,959492573,,0.83706324763,0.0387773823566,0.171206134606,0.726150759684,0.683373100188,0.0421811588181,0.0626660194207,-0.00628510462585,-0.0221603098807,-0.0140186039019,-0.0130798907812,0.00996647433701,-0.0100882889703,1.89061760902,-0.092459782958,0.473980098963,0.0525232329965,0.894965052605,-0.0611559599638
2017/07/09/09:30:44.170510,222883,1499563846,969487293,,0.837549366024,0.0385205177619,0.17235423312,0.726332334215,0.683078834619,0.0428825316374,0.0632908717712,0.0152591775417,0.0106237472279,-0.00424979533003,0.00583203221817,-0.0290490310452,-0.00116359992382,2.36980724335,-0.78604465723,0.763882100582,0.192860811949,1.10948598385,-0.0147727653384
2017/07/09/09:30:44.180620,222884,1499563846,979489744,,0.837159267374,0.0387874855399,0.171658501637,0.726369922886,0.683117634387,0.0425270134675,0.0626776343015,-0.0058346483171,-0.0298707670533,-0.0063873579286,-0.00345741740424,0.0016446759723,-0.0353715506065,1.00422620773,0.0765456259251,0.453537374735,0.0407120399177,0.555153489113,-0.0404676534235
2017/07/09/09:30:44.190287,222885,1499563846,989493013,,0.837006822702,0.0385804657716,0.171343259958,0.726599674321,0.682897370541,0.0423348829542,0.0625448021034,-0.00549091270757,0.00777534040681,-0.00307422272389,0.012329868442,0.0195914123377,0.0122904064395,0.459620863199,-0.152129009366,0.26932311058,-0.033699568361,0.452660053968,-0.0503981076181
2017/07/09/09:30:44.200372,222886,1499563846,999486180,,0.836935381288,0.0382904950807,0.171835277357,0.726539620665,0.68294472364,0.0422058295222,0.0628120371444,0.00161946807764,-0.00120514809254,-0.00277667025815,0.00380101938496,-0.00496968587004,-0.00413465775545,0.89686858654,-0.69072163105,0.738486528397,0.146841943264,0.611617088318,-0.011521127075
2017/07/09/09:30:44.210732,222887,1499563847,9486318,,0.837050606609,0.0381191489776,0.171465326346,0.726425186732,0.683064989866,0.0421262271182,0.0628812268512,0.00200036220805,-0.0138963322215,-0.00571759580366,-0.0145217533299,-0.0099425542788,-0.0177224583086,1.3586101532,-0.43297713995,0.774739086628,0.179885968566,0.744678258896,-0.00813433527946
2017/07/09/09:30:44.220674,222888,1499563847,19492802,,0.836971380305,0.0384286905737,0.171246761148,0.726457920584,0.683042933569,0.0423070077429,0.0626207443146,0.0114071368888,-0.00542536786456,0.0107523599215,-0.00937415955682,-0.0373395495974,0.0114557951452,2.20137238503,-0.251182734966,0.613008499146,0.122876897454,1.13225400448,-0.0556527227163
2017/07/09/09:30:44.230820,222889,1499563847,29489039,,0.837212525338,0.0386582764018,0.171502997453,0.72620845796,0.683291999419,0.0422748730269,0.0628184226839,0.0064383075697,0.0199581493365,-0.0100693324955,0.0133420284618,-0.00062981201795,0.031773632465,2.34089064598,-0.713861823082,0.330690771341,0.326362520456,1.19200730324,0.00516709685326
2017/07/09/09:30:44.240588,222890,1499563847,39495712,,0.83712337916,0.038650547524,0.171187638076,0.726552493622,0.682931151861,0.0426140850907,0.0625344351664,-0.00101249048582,-0.00976374436012,-0.00262006912237,-0.00740025074743,0.00140965235074,-0.0200377576634,2.68503332138,-0.459302961826,0.381170868874,0.290654718876,1.26105296612,0.016090720892
2017/07/09/09:30:44.250729,222891,1499563847,49491342,,0.837104878597,0.0383629487742,0.171191025954,0.726203755181,0.683298042399,0.0420069317852,0.0629865771139,0.00873709522502,-0.020341179246,0.00487533712028,-0.0048991797585,-0.0309247245678,-0.022081720795,2.15084528923,-0.593317806721,0.330295979977,0.30304390192,1.07585072517,-0.00605745613575
2017/07/09/09:30:44.261091,222892,1499563847,59489969,,0.837520099336,0.038700617425,0.171586543857,0.726384132617,0.68306016561,0.0427929435065,0.0629576526303,0.0182968219892,-0.00796285645206,0.0119483784493,-0.0113921691805,-0.0487890712982,0.00190818969621,2.68823242188,-0.19013518095,0.319456189871,0.243514686823,1.27672529221,-0.0132629387081
2017/07/09/09:30:44.270379,222893,1499563847,69485860,,0.837355918035,0.0382082258345,0.171411498211,0.726566504662,0.682868987329,0.0426546265192,0.063020974958,0.0104175081486,0.0131884997171,0.00310006209015,-0.000531739268549,-0.0215956441202,0.0261035200323,2.45747113228,-0.389141470194,0.035720333457,0.262315452099,1.19582402706,-0.00765596330166
2017/07/09/09:30:44.280779,222894,1499563847,79493858,,0.837434884131,0.0377042572355,0.171672402939,0.72651381957,0.682905455472,0.0421677974012,0.0635585220239,0.0064919599746,-0.0109658303052,0.00509307508173,-0.0198937653233,-0.0184186358921,-0.0217950032296,2.21089291573,-0.68464756012,0.173385873437,0.305904656649,1.09882974625,-0.00347676128149
2017/07/09/09:30:44.290678,222895,1499563847,89487829,,0.837564375482,0.0384328443107,0.171257274202,0.726454148512,0.682969177508,0.0425262699755,0.0633165779735,0.00517807972918,-0.0204639057425,-0.00368387611254,-0.026442205864,-0.0144560839983,-0.0281360046162,1.64325141907,-0.226465880871,0.0770128890872,0.196429312229,0.883123934269,-0.0168660134077
2017/07/09/09:30:44.300631,222896,1499563847,99500740,,0.838098324129,0.0385991732424,0.171677075623,0.725946606794,0.683439627109,0.0432142476083,0.0635950389978,0.00464514687962,0.00466903681757,-0.0112081467496,0.00757035507451,-0.00354734496329,-0.000172023848069,2.35655283928,-0.279877603054,0.187966570258,0.145950675011,1.01043367386,-0.0285639278591
2017/07/09/09:30:44.310893,222897,1499563847,109486330,,0.837823510134,0.0380424731814,0.171361165757,0.726476888238,0.682920645083,0.0426552023422,0.0634921813264,0.00303450786244,-0.00266804605624,-0.0100514343673,0.0134090654564,-0.0094242566532,0.0131458586592,2.42129826546,-0.119868785143,0.102708175778,0.156583219767,1.00604379177,0.00059013068676
2017/07/09/09:30:44.320663,222898,1499563847,119491256,,0.838407480271,0.0382205554492,0.171607865316,0.726179050236,0.683147708622,0.0432010682134,0.0640848102826,0.00257423878544,-0.0112845134251,-0.00177416390717,0.00474049208964,-0.0175937723712,-0.00401908560206,2.84382772446,-0.392344921827,0.356614083052,0.187125742435,1.16206562519,-0.0479528009892
2017/07/09/09:30:44.330411,222899,1499563847,129485806,,0.837943505884,0.0384389468105,0.171224169831,0.726404203841,0.68297704629,0.0430569597322,0.0634459226596,0.00791728939847,-0.0239871130475,0.0032588743129,-0.0298525726385,-0.0339351958941,-0.0144918768949,2.39362335205,-0.0797480195761,0.230679258704,0.133281797171,1.09513163567,-0.0360298790038
2017/07/09/09:30:44.340679,222900,1499563847,139502274,,0.838420804879,0.0379011579139,0.171414873616,0.726457382785,0.682837574996,0.0432154627323,0.0642257032,0.00671622406794,-0.0172874776635,-0.0162083680337,-0.0159848189639,-0.0234943937366,-0.0140478607985,3.33981752396,-0.956740379333,0.835691332817,0.329913139343,1.54194784164,-0.0532196164131
2017/07/09/09:30:44.350997,222901,1499563847,149492976,,0.838060705963,0.0373219050381,0.171551935866,0.726564820855,0.682738911766,0.0428742955596,0.0642879011798,0.0143938152033,-0.0188715400854,-6.76677915826e-05,-0.0173226413718,-0.0483064832916,-0.0236347586693,2.45413279533,-0.694084346294,0.997087836266,0.298430293798,1.26406264305,-0.0145969986916
2017/07/09/09:30:44.360561,222902,1499563847,159488195,,0.838498179849,0.0381446137722,0.17145362975,0.726371801006,0.682925032586,0.0433526867853,0.0641712639681,0.0133219262403,0.0109217259858,-0.0101372438868,0.0206642396638,-0.0202105223789,0.00456324280417,2.29565620422,-0.19767947495,0.992538154125,0.22047072649,1.15408992767,-0.0196856334805
2017/07/09/09:30:44.370866,222903,1499563847,169487843,,0.838371821626,0.0374166579365,0.171202458097,0.72661366491,0.682665962833,0.0432245490099,0.0642759948782,0.0048568120177,-0.00536156151638,0.000200328328232,-0.0109833463409,-0.0068709551152,0.00746765518131,1.80087184906,-0.499847471714,0.55701225996,0.221762061119,1.00883412361,-0.0270922705531
2017/07/09/09:30:44.380859,222904,1499563847,179490961,,0.837808417252,0.0378057022467,0.17030466112,0.726496049916,0.682897255683,0.042907673994,0.063354235452,0.00207484632014,-0.0169437259935,-0.00374784717208,-0.00363238439492,-0.00737390920457,-0.0210374524858,1.08570277691,-0.0690477266908,0.0693126246333,0.0663343444467,0.71739345789,-0.0223201178014
2017/07/09/09:30:44.390357,222905,1499563847,189488257,,0.83864553801,0.0379261349245,0.171262149028,0.72656063693,0.682699017018,0.0437795719794,0.0641485939377,0.00120711018616,0.00701711261866,-0.0237752387134,0.0167114897101,0.00843602907586,0.00953421732833,1.23127067089,0.361102968454,0.573517084122,-0.0379190482199,0.776508152485,-0.0666342973709
2017/07/09/09:30:44.400678,222906,1499563847,199487313,,0.838337256671,0.0373651972298,0.170535029372,0.726310581445,0.683007182645,0.0430390203285,0.0642010160743,0.00806940040446,0.00715350049765,-0.0104688519942,0.00268659406616,-0.0115236817065,0.011981381723,1.38214838505,-0.448192507029,0.418853729963,0.113820433617,0.798186182976,-0.0278405845165
2017/07/09/09:30:44.410442,222907,1499563847,209487161,,0.838533715398,0.0373042178343,0.17093126204,0.726580863919,0.682683232345,0.0433882278201,0.0643530430404,-0.00893984154785,-0.00844983899418,-0.0134501454505,0.0114085793172,0.016153320579,-0.0144602309684,1.69698989391,-0.501383721828,0.441245645285,0.112028166652,0.901148915291,-0.0596148222685
2017/07/09/09:30:44.420776,222908,1499563847,219485534,,0.838117138231,0.0376208123562,0.170193109983,0.72661755341,0.682729720299,0.0431875677921,0.063575892326,-0.00241774098629,-0.0257165050313,-0.0130617114969,-0.00769562526726,-0.00617543589506,-0.0336741324544,2.08239102364,0.0565271228552,0.626658499241,0.0213397443295,0.992693841457,-0.0524622537196
2017/07/09/09:30:44.430646,222909,1499563847,229498740,,0.838666014962,0.0373199778723,0.170719649787,0.726677154846,0.682553901979,0.0436613952805,0.0644528205858,0.0115483800606,-0.0069227211757,-0.00281519887962,0.00666810293121,-0.0396593318334,-0.00306770047957,2.39506864548,-0.363658070564,1.02945435047,0.144885540009,1.15448009968,-0.0380193218589
2017/07/09/09:30:44.440716,222910,1499563847,239500563,,0.838701709772,0.0371321582046,0.170506380238,0.726833333795,0.682382304937,0.0436949502764,0.0644860148673,0.0136542268984,0.00468640111744,-0.00931373231798,-0.000219503980812,-0.0367098413934,0.0185703698133,3.14193487167,-0.652372479439,1.05509579182,0.263114482164,1.43212139606,-0.0407950207591
2017/07/09/09:30:44.450383,222911,1499563847,249491371,,0.839281141811,0.037976816465,0.170294472622,0.726464446196,0.682732683071,0.0442858383474,0.0645310499032,0.0205805509872,-0.000767535877164,-0.0152959408048,-0.0102838116354,-0.0432399514865,-0.000775688524702,3.37740063667,-0.295726597309,1.19539070129,0.211589843035,1.43127882481,-0.0193044766784
2017/07/09/09:30:44.460402,222912,1499563847,259499370,,0.838714018773,0.0368123459566,0.170313387261,0.726718895693,0.682489946332,0.0436718557369,0.0646520596291,0.0149585211892,-0.00675491051005,-0.00804093456851,0.000149877666357,-0.0420830717991,-0.0117784752836,2.37612080574,-1.02264881134,1.29330551624,0.336519658566,1.08758485317,-0.00908797234297
2017/07/09/09:30:44.470290,222913,1499563847,269492002,,0.838758895729,0.0364845543571,0.169845763919,0.727160847943,0.682014048264,0.04390488568,0.0645468837543,0.0176607766778,-0.0176363877307,0.00125704001268,-0.0307276407346,-0.046422550074,-0.00482612975604,1.56354033947,-0.852135241032,1.15394616127,0.232818901539,0.876317203045,-0.0126493908465
2017/07/09/09:30:44.480569,222914,1499563847,279494106,,0.839158955595,0.0373490105348,0.169866002147,0.726626263459,0.682561911747,0.0440427267921,0.0646818993259,0.0131318650464,-0.00267171921829,0.00772673712171,-0.0077786374092,-0.0369020284933,-0.0157287105536,1.29566073418,-0.323313117027,0.948889195919,0.112016119063,0.736310124397,-0.0253460370004
2017/07/09/09:30:44.490410,222915,1499563847,289488736,,0.839424539939,0.0363037914864,0.170450534109,0.726732348522,0.682366551405,0.0442447772515,0.0654093481242,0.00581052330236,-0.00955233925631,-0.0166205762215,0.00156208054516,-0.0101467196319,0.000677485221919,2.51113533974,-1.21145820618,1.4790160656,0.320349931717,1.22051095963,-0.0139560960233
2017/07/09/09:30:44.500779,222916,1499563847,299497362,,0.839204560782,0.0363659377918,0.170149661678,0.727018975215,0.682104673621,0.0440885869563,0.0650601291284,0.0124496520796,-0.0206871158569,0.000750994730769,-0.000628030235252,-0.0380548331972,-0.0170995542011,2.45378279686,-1.11690044403,1.30000150204,0.407489329576,1.21040332317,0.0277898684144
2017/07/09/09:30:44.510776,222917,1499563847,309488482,,0.839490524237,0.0367353120732,0.170606656048,0.726980882709,0.682097023045,0.0442562852624,0.0654509628929,-0.000739285192735,-0.00366941274258,-0.0082802338749,-0.00118766851665,0.0058628248848,0.00891607890408,2.82605338097,-0.265653729439,1.30249965191,0.231329888105,1.32594692707,-0.0226563438773
2017/07/09/09:30:44.520704,222918,1499563847,319499086,,0.839491153888,0.0368357694308,0.17003492738,0.726689262136,0.682432350263,0.0440860105172,0.0653087075919,-0.00322624132863,0.00344998046951,-0.00742785459408,0.0034308208954,0.0101537987643,-0.00706394183982,2.54211854935,-0.409216105938,0.964048624039,0.2502399683,1.21448457241,-7.67335295677e-05
2017/07/09/09:30:44.530954,222919,1499563847,329498051,,0.839597364812,0.0371777545198,0.170209988743,0.726660660832,0.682460783241,0.0443646039607,0.0651409644706,0.0020757531633,-0.00424892618563,-0.0112803489331,-0.00181883202085,-0.00190081511624,-0.0235660056386,3.16225337982,-0.263890683651,1.5587772131,0.196798235178,1.49432826042,-0.0583731308579
2017/07/09/09:30:44.540760,222920,1499563847,339491719,,0.839214003956,0.0361332332704,0.169365612758,0.726730136395,0.68243061721,0.0437878997853,0.0650721244577,0.00585810936049,0.00225712368188,0.00168474595986,-0.00503449039785,-0.0126511840982,0.00974277184073,1.94624495506,-1.01856124401,0.629987061024,0.311790913343,1.0839933157,-0.00498377904296
2017/07/09/09:30:44.550427,222921,1499563847,349487602,,0.83957357651,0.0368385911656,0.169996718051,0.726969926555,0.682126820095,0.0445379216857,0.0650699679081,0.00606515123691,-0.0137524186798,0.0106323229771,-0.0245492194769,-0.0212139103118,-0.00563026170481,1.79626727104,-0.371276140213,0.93016576767,0.201486110687,0.978250563145,-0.0174945257604
2017/07/09/09:30:44.560568,222922,1499563847,359499413,,0.839467360994,0.0359761410177,0.170239735628,0.726690550644,0.682402602916,0.043835555114,0.0657721464331,-0.00412659253043,-0.0326574344619,-0.00392376649195,-0.0303181768364,-0.00323015071589,-0.0444630246317,1.92579138279,-0.440212219954,0.869483590126,0.1809566468,1.01496088505,-0.0249458923936
2017/07/09/09:30:44.570472,222923,1499563847,369488636,,0.839330433934,0.0360548536612,0.170176615297,0.726787332849,0.682325255771,0.0436083395708,0.0656561563557,-0.00495203271006,-0.0198775523637,-0.00405183778858,-0.0344810122684,0.0113700376072,-0.0145807620643,1.86790525913,-0.32244309783,1.01674795151,0.186821728945,0.954773545265,-0.0104441531003
2017/07/09/09:30:44.580620,222924,1499563847,379498648,,0.839857718812,0.0363617847124,0.170187206537,0.726700974228,0.682343895648,0.0443768235627,0.0659029563718,0.0073208195614,-0.00444568885347,0.00918328191857,-0.0140352542029,-0.0207187145811,0.0164207713758,1.43334376812,0.297590374947,0.553581357002,-0.00102449581027,0.687166333199,-0.0697211250663
2017/07/09/09:30:44.590912,222925,1499563847,389493558,,0.839621620622,0.0362839948275,0.169984448068,0.726692512664,0.682400026859,0.0439077044676,0.0657290565089,0.0175272204168,0.00314616421464,-0.000396548995794,-0.0199247618477,-0.0315607012555,0.0332704077537,2.01842808723,-0.224978148937,0.635415315628,0.179387524724,0.982722461224,-0.00208547338843
2017/07/09/09:30:44.600378,222926,1499563847,399491502,,0.840170823266,0.0357560728308,0.170318735206,0.726564030884,0.682428621689,0.0441298432903,0.0666966435222,0.0183174990667,-0.00835439118249,-0.00264765663967,-0.033736087391,-0.0374378055824,0.0100061249394,2.61009168625,-0.839927315712,0.659795045853,0.335410445929,1.23535001278,-0.0188425779343
2017/07/09/09:30:44.610504,222927,1499563847,409488396,,0.840403153044,0.0363081442282,0.170102288718,0.726611738548,0.682373739964,0.0443529023577,0.0665903931898,0.0207506824915,-0.0218119434627,0.00695268951429,-0.0410263976294,-0.0586022474797,-0.00712047341997,2.81488275528,-0.35379716754,0.587216556072,0.198304012418,1.38369190693,-0.062607742846
2017/07/09/09:30:44.620448,222928,1499563847,419498863,,0.840314899319,0.03549251153,0.169460974697,0.726535483843,0.682450563018,0.0441049822333,0.066799478259,0.0192889900227,0.00123591964348,0.000662253821476,-0.0288238766806,-0.0428547690076,0.0107557671822,2.23209881783,-0.737827003002,0.191260263324,0.348874747753,1.17707896233,0.0117094442248
2017/07/09/09:30:44.630784,222929,1499563847,429489836,,0.841015868904,0.0356904374095,0.170360646545,0.7265645673,0.68231086378,0.0447370939152,0.0674863478018,0.0115836597664,-0.00745260646429,-0.00502371296387,-0.0181325795067,-0.031898348896,0.0118891909962,2.48607492447,-0.503050148487,0.85548889637,0.306822478771,1.18245005608,-0.0172091349959
2017/07/09/09:30:44.640712,222930,1499563847,439499136,,0.840587247392,0.0352008057585,0.170179496525,0.72663904256,0.68227338861,0.0442035352811,0.0674149278101,0.0143808266502,-0.0144814043173,0.00535348849365,-0.044125209713,-0.0368762154922,-0.0133036636856,1.98623228073,-0.996576786041,0.724440395832,0.280873775482,0.930353164673,-0.00453732907772
2017/07/09/09:30:44.650452,222931,1499563847,449487717,,0.840575770883,0.0348232768304,0.16979251314,0.726537526034,0.682376078814,0.0438070061053,0.0677278121848,0.00599058707804,-0.0156115631598,0.00674826046569,-0.0478302998516,-0.0148661700284,0.00505894489842,1.05313658714,-0.687634587288,0.171105310321,0.248752951622,0.52270334959,-0.0084585249424
2017/07/09/09:30:44.660569,222932,1499563847,459497743,,0.840421491044,0.0346158766958,0.169475544222,0.726636010183,0.682296692125,0.0436020502857,0.0676032087331,0.00777339005641,-0.0212120047448,-0.0149173578715,-0.0453961992134,-0.00772706022147,0.00709801896909,2.09639811516,-0.833294212818,0.157175034285,0.28243881464,0.942139208317,-0.0118172578514
2017/07/09/09:30:44.670394,222933,1499563847,469491492,,0.840810790775,0.0349997918131,0.170089656863,0.72633355703,0.682572124905,0.0438991579646,0.0678802045124,0.000372957445119,-0.0216109130841,-0.00411957636242,-0.0393334643117,-0.00540018338445,0.00376017896039,2.61434531212,-0.0495126843452,0.889338374138,0.171631455421,1.14545571804,-0.0398979969323
2017/07/09/09:30:44.680618,222934,1499563847,479491890,,0.840052533515,0.0342783034036,0.169296117099,0.726556003156,0.682421327993,0.0429294983407,0.06763551989,-0.00148828073044,-0.0097544222289,-0.00607677809551,-0.0379461625396,0.00449487503683,0.0200116827165,2.35571026802,-0.714523494244,0.497890681028,0.302667468786,1.13358676434,-0.0234748125076
2017/07/09/09:30:44.690646,222935,1499563847,489488623,,0.840767389141,0.0347953297148,0.170033624132,0.726367758886,0.682526446674,0.0440093881142,0.0679021516571,0.00587682908874,-0.00243326336682,-0.00431906140348,-0.0404306718979,-0.00507069247259,0.018640770522,2.781904459,-0.972097873688,0.656777918339,0.355106472969,1.33803117275,-0.0114307254553
2017/07/09/09:30:44.700657,222936,1499563847,499495740,,0.840353935033,0.034842002011,0.168824706775,0.7264744244,0.682504050766,0.0431880338668,0.0675124070952,0.00754912796316,-0.0113345853873,-0.0142786261699,-0.0139476137622,-0.0121635688685,-0.00520763279743,2.89394831657,-0.73905736208,0.246566653252,0.376848310232,1.41071891785,-0.00837261229753
2017/07/09/09:30:44.710664,222937,1499563847,509489889,,0.840978323875,0.0346037079376,0.169729619106,0.726304155727,0.682571744155,0.0433528562899,0.0685464609362,-0.00547616884418,-0.0287427972634,-0.0164803036991,-0.0485681574341,0.019420326184,-0.0250624190974,3.00615286827,-0.47277161479,1.13128352165,0.249346628785,1.43279349804,-0.0385546460748
2017/07/09/09:30:44.720432,222938,1499563847,519493738,,0.84084216258,0.0344882271033,0.169450300781,0.726209982981,0.682695738144,0.0433985600662,0.068279973078,0.00142987963189,-0.0182933511111,-0.00639998408237,-0.0457513280942,0.00173105346374,0.00553829032338,3.02299380302,-0.74669110775,0.994194686413,0.310764908791,1.43729007244,-0.0592387840152
2017/07/09/09:30:44.730664,222939,1499563847,529493869,,0.840741389313,0.0336647241104,0.169378919168,0.726223437639,0.682673163495,0.0430799789071,0.0685637359257,-0.0100722767441,-0.0125067147388,-0.0186524105857,-0.013019072176,0.0283890527311,0.00409664793744,2.85132789612,-1.16737961769,0.746868908405,0.415486633778,1.39257907867,-0.012925028801
2017/07/09/09:30:44.741354,222940,1499563847,539486382,,0.840763679837,0.0344714869599,0.169607342629,0.726088554805,0.682821174805,0.0434744678316,0.0682687663987,-0.00795627439602,-0.0323269795124,-0.0164364775591,-0.0345014370545,0.0130639957764,-0.00711568488084,3.04291820526,-0.580294907093,1.18271446228,0.324942797422,1.49333262444,-0.0459061227739
2017/07/09/09:30:44.750520,222941,1499563847,549490404,,0.840807296855,0.0339179977298,0.169203286755,0.726249707071,0.682646098323,0.0428528933431,0.068697139359,0.00926949203138,0.00064532831796,0.00410072220324,-0.00637141823838,-0.0266002936894,-0.00532483911448,2.25397849083,-0.624950885773,0.490825921297,0.255260646343,1.22568666935,-0.0167763642967
2017/07/09/09:30:44.760620,222942,1499563847,559503110,,0.840718523914,0.0336685453924,0.169067145784,0.726476194113,0.68240428627,0.0428643819736,0.0686977017395,0.00955363243945,-0.0144065312454,0.00223058245605,-0.035702271533,-0.0237762352189,-0.000385432160268,2.1914896965,-0.711793065071,0.707197248936,0.282548159361,1.26390516758,-0.049017496407
2017/07/09/09:30:44.770607,222943,1499563847,569486617,,0.840558729965,0.0325138083733,0.169058677317,0.726501794403,0.682353619001,0.0424851720939,0.0691642358317,0.0109738529,-0.0321786290751,0.0049822943038,-0.0342014706564,-0.0360869478666,-0.0286481375867,2.60636305809,-1.23763251305,0.88146674633,0.410789370537,1.4060305357,-0.0204211175442
2017/07/09/09:30:44.780831,222944,1499563847,579486413,,0.840454342409,0.0324532564659,0.168645144172,0.72658742108,0.682282030242,0.0422911665556,0.0690898543132,-0.00366299213019,-0.0229432264385,-0.0152704845385,-0.0346524740739,0.00945044863162,0.00288672735243,1.80798745155,-0.955533206463,0.412688970566,0.319633811712,1.04686677456,-0.00821529328823
2017/07/09/09:30:44.790854,222945,1499563847,589488298,,0.841093623282,0.0330567114221,0.169227559577,0.726022607685,0.682802741659,0.0426871712783,0.0696375941725,0.00740043893323,-0.0252183613308,-0.0186851579363,-0.0434782668805,-0.0111784767197,-0.00727942809696,2.92239761353,-0.610548138618,0.925024628639,0.302585363388,1.36953246593,-0.0390815213323
2017/07/09/09:30:44.800920,222946,1499563847,599493442,,0.841365007706,0.0330579811864,0.16933061913,0.726118309488,0.682666443355,0.0429439027596,0.0698179701683,0.014788048769,-0.031689739313,0.00520348785594,-0.063348143701,-0.0460918350238,-0.000655143317962,2.73986196518,-0.0806009918451,1.00952172279,0.128151208162,1.20051789284,-0.0606068447232
2017/07/09/09:30:44.810594,222947,1499563847,609488495,,0.841072149255,0.0325913682285,0.168641279021,0.726194046894,0.68262598246,0.0425054216303,0.0696940704657,0.0183175234817,-0.0035279285213,-0.00695739701316,-0.0387252508033,-0.0403144270112,0.0395166406599,2.48149776459,-0.858461618423,0.585592865944,0.329817801714,1.10789430141,-0.0388906337321
2017/07/09/09:30:44.820606,222948,1499563847,619491677,,0.841249318631,0.0326212286304,0.168531927571,0.725967962724,0.682838768596,0.0423408621979,0.0700641462418,0.0162913701765,-0.0101710642486,-0.0158056793014,-0.0419828078537,-0.0282913155356,0.00549854232946,3.03236222267,-0.763375163078,0.826652467251,0.300815045834,1.37028074265,-0.0538760349154
2017/07/09/09:30:44.830585,222949,1499563847,629489156,,0.841474851446,0.0327959757167,0.168064336603,0.726217801555,0.682547446747,0.0428294503629,0.0700166110627,0.0125647051365,-0.00385565001983,-0.0154057047256,-0.0304348742525,-0.0244100697721,-0.0133679558609,2.84705924988,-1.00669848919,0.736271858215,0.403377354145,1.27283287048,-0.00865390896797
2017/07/09/09:30:44.840522,222950,1499563847,639502513,,0.841653470575,0.0321192997144,0.168847677258,0.726108234088,0.682599048395,0.042474163149,0.0708612516479,0.0202450820934,-0.0156587280919,0.000937063169307,-0.0357118323,-0.0560772291673,0.010153672119,3.752399683,-0.750505983829,1.26348745823,0.360077917576,1.678789258,-0.0549048036337
2017/07/09/09:30:44.850850,222951,1499563847,649491158,,0.8421198581,0.0323734496916,0.168951774118,0.72622579872,0.682428145235,0.0430317589294,0.0709660734944,0.0234300489248,-0.0201117563026,0.00327393620101,-0.0244440873951,-0.0628127913754,-0.0160238663987,2.54866623878,-0.581128358841,0.881410956383,0.216282069683,1.18295824528,-0.0416991710663
2017/07/09/09:30:44.860528,222952,1499563847,659485887,,0.841774161586,0.0320355128884,0.16841680091,0.726203778239,0.682490607215,0.0428205018326,0.0707180893267,0.0278167031414,-0.00460299046886,-0.000891047092624,-0.0308323367027,-0.0590227608362,0.0247691596526,2.18203806877,-0.672597706318,1.14095795155,0.226998388767,1.12377882004,-0.0629138126969
2017/07/09/09:30:44.870422,222953,1499563847,669488633,,0.841569714934,0.0316877892492,0.167790785833,0.726135803893,0.682585843994,0.0422091272512,0.070864303144,0.0103164353058,-0.0174260513284,-0.01644932941,-0.0188717408436,-0.0292794372806,0.0100360423748,2.60167860985,-0.497327566147,0.959786653519,0.337924540043,1.33869242668,-0.0206852853298
2017/07/09/09:30:44.880686,222954,1499563847,679492818,,0.842174053146,0.032057661717,0.168175339931,0.725954340923,0.682708209486,0.0426815535994,0.0712606523817,0.00870410425329,-0.0136177003061,-0.00981148214682,-0.0274340614433,-0.0190786317598,-0.0115959885805,2.12182402611,-0.219402804971,1.18262505531,0.212102159858,1.2001888752,-0.0554326921701
2017/07/09/09:30:44.890602,222955,1499563847,689488374,,0.842573728479,0.0319258982321,0.168382097545,0.726130828277,0.682455987036,0.0433030510587,0.0715030891192,0.0118020436589,-0.0130841124281,0.0120525626292,-0.047601742179,-0.0350776763078,-0.00418196422421,1.85414803028,-0.617168188095,1.57178962231,0.320615798235,1.05550837517,-0.0604870952666
2017/07/09/09:30:44.900731,222956,1499563847,699493550,,0.842848661712,0.0321583988593,0.16894401202,0.725793284459,0.682764483916,0.043160321888,0.0720690942956,0.00912361448559,-0.00626149299035,0.000461053435175,-0.0254538684825,-0.0205473957074,0.013668947183,2.72646427155,0.220465749502,1.63896286488,0.281036347151,1.2687394619,-0.0350541546941
2017/07/09/09:30:44.910603,222957,1499563847,709491895,,0.842398830385,0.0319028264072,0.168085826011,0.726179095286,0.682424239083,0.0430736651116,0.0714544530159,0.00894399460832,-0.00778370233481,-0.004130524453,-0.0212490525448,-0.0157864923359,-0.00326771666155,2.51603627205,-0.561935007572,1.01685941219,0.252120256424,1.28983473778,-0.105246767402
2017/07/09/09:30:44.920749,222958,1499563847,719493284,,0.842738989218,0.0311500452391,0.168841463663,0.725934140472,0.682583226282,0.0428048286851,0.0725776104408,0.0116358484264,-0.0124103315762,-0.00148278610502,-0.025632834791,-0.0306168357732,-0.00608409045738,2.48680353165,-0.868104457855,1.56991827488,0.443463206291,1.20668363571,-0.0143702477217
2017/07/09/09:30:44.930397,222959,1499563847,729489950,,0.843499095132,0.0323024815901,0.168684355749,0.725708750567,0.682781007456,0.0437263785329,0.072421744166,0.0212265123711,-0.0101870122952,0.00237672130741,-0.00990611559387,-0.0606130548583,-0.00513112285509,2.81885409355,0.24233391881,1.2905472517,0.234073504806,1.27519571781,-0.0875882506371
2017/07/09/09:30:44.940628,222960,1499563847,739489712,,0.843654740116,0.0316639208596,0.169137903833,0.725452627318,0.682977351073,0.0436412940786,0.073183747438,0.0341686147657,0.00255124962582,0.0160536051392,-0.0119910336992,-0.0901917108033,0.0221841190013,2.55831003189,-0.676373660564,1.64536106586,0.43515765667,1.21980786324,-0.0212366953492
2017/07/09/09:30:44.950356,222961,1499563847,749489944,,0.843264313195,0.0310033479763,0.168463263869,0.725994499188,0.682457199446,0.043118851533,0.0729720680443,0.0183660930415,-0.0145710226688,0.0017906949109,-0.0165971994054,-0.0511570693662,-0.0129061976829,2.0013024807,-0.719628512859,1.24858617783,0.352733463049,1.06350123882,-0.0639047771692
2017/07/09/09:30:44.960395,222962,1499563847,759485551,,0.843157922357,0.0308900113777,0.16848592332,0.725944443398,0.682503706507,0.0430681710237,0.0730649597868,0.0101143297952,-0.0253900674406,0.0123913665705,-0.0347189906818,-0.0379561499575,-0.0313298519874,1.67307007313,-0.73158454895,0.916746079922,0.322528272867,0.900431156158,-0.0533555522561
2017/07/09/09:30:44.970323,222963,1499563847,769487956,,0.843698114017,0.0311556847642,0.168733738123,0.725881613788,0.682499648371,0.0436902863237,0.0733571511081,0.0155244247565,-0.0121078150439,0.00879880679761,-0.0125470904435,-0.0484098541522,0.000640442784801,2.16065335274,-0.260311126709,1.22885191441,0.226553797722,1.01330387592,-0.082411788404
2017/07/09/09:30:44.980668,222964,1499563847,779494839,,0.843769055652,0.030743743171,0.168464041632,0.725847062799,0.682517734124,0.0438228637809,0.0734516210939,0.0214748935421,-0.000833090924853,0.014921964157,-0.0192764281251,-0.0576224501093,0.00932575670067,2.49585151672,-0.403519570827,0.751193284988,0.236625492573,1.16365563869,-0.0906377583742
2017/07/09/09:30:44.990719,222965,1499563847,789491259,,0.843673184909,0.0312100993696,0.168285975394,0.726095391894,0.682270674525,0.0434903273225,0.0734901352688,0.017684324058,0.000586842885259,-0.0137055709188,0.00746769046492,-0.0446290577574,-0.00420159605211,2.64602923393,-0.376013576984,0.94045227766,0.344721913338,1.24624967575,-0.0456748865545
2017/07/09/09:30:45.000610,222966,1499563847,799493705,,0.844422839837,0.0309362624056,0.168466646921,0.725805935444,0.682461902098,0.0444448311241,0.0740010354395,0.0188896317566,-0.00830750076636,-0.00660124897953,-0.0158218309501,-0.0499181307514,-0.00150608269463,2.52706599236,-0.852566540241,1.11295425892,0.415868073702,1.20560133457,-0.0442766658962
2017/07/09/09:30:45.010283,222967,1499563847,809488385,,0.844548620758,0.0311954353613,0.168606928593,0.7256619007,0.682611152772,0.0441722113817,0.0741999711948,0.0139563891671,-0.0127158318762,-0.00569933636947,-0.00680523122855,-0.0424121243866,0.000416871555392,2.68386530876,-0.468110352755,0.858172953129,0.302311599255,1.25341832638,-0.0712643191218
2017/07/09/09:30:45.020484,222968,1499563847,819495071,,0.844373811673,0.0302224656723,0.168457170202,0.725852033958,0.682389481796,0.0442404141872,0.0743384536111,0.0277850096439,-0.00446642251079,0.0079678837605,-0.0110905131345,-0.073325471727,-0.000508889053245,2.56083607674,-0.797139823437,0.90566444397,0.433577626944,1.27483379841,-0.0224583782256
