time,.header.seq,.header.stamp.secs,.header.stamp.nsecs,.header.frame_id,.pose.position.x,.pose.position.y,.pose.position.z,.pose.orientation.x,.pose.orientation.y,.pose.orientation.z,.pose.orientation.w,.twist.linear.x,.twist.linear.y,.twist.linear.z,.twist.angular.x,.twist.angular.y,.twist.angular.z,.wrench.force.x,.wrench.force.y,.wrench.force.z,.wrench.torque.x,.wrench.torque.y,.wrench.torque.z
2017/07/09/09:30:18.200773,220286,1499563820,999612423,,0.784194269643,0.559196555238,0.239998834413,0.597806413815,0.793423727817,0.0698217695424,0.0907259623056,0.0687628476162,-0.313762864044,-0.0681724432902,-0.0791836027815,0.118493327044,-0.387683049359,1.73655533791,1.36828219891,0.464420229197,-0.667303144932,0.726056396961,-0.191218852997
2017/07/09/09:30:18.210925,220287,1499563821,9609555,,0.784175831544,0.556998523163,0.239325966157,0.598971730462,0.792658114286,0.0689955891207,0.0903636467048,0.0582400990406,-0.310055828906,-0.0641967257362,-0.0802926559145,0.127703442239,-0.364176989612,1.80500102043,1.26920962334,0.461854398251,-0.588755786419,0.775774359703,-0.16369202733
2017/07/09/09:30:18.220611,220288,1499563821,19611299,,0.7849071524,0.55300991243,0.238850281131,0.60048551726,0.791602968957,0.0676634639686,0.0905733887123,0.0550582428484,-0.310832569493,-0.0644992095207,-0.0927435887602,0.125123802792,-0.356851394304,1.61063539982,1.08594512939,0.552993834019,-0.486620873213,0.749063372612,-0.110145717859
2017/07/09/09:30:18.230816,220289,1499563821,29604841,,0.785401656174,0.54962318259,0.238137935175,0.602347119926,0.790334179037,0.0668090227316,0.0899243406702,0.0419345376729,-0.303723635675,-0.0727318617758,-0.074497903033,0.155603898974,-0.356074664771,1.45543825626,1.18093299866,0.529453098774,-0.566381394863,0.670419812202,-0.141063541174
2017/07/09/09:30:18.240773,220290,1499563821,39609663,,0.786252003835,0.546809501021,0.237208021582,0.603444283125,0.789548156854,0.0660960704682,0.0900000813363,0.0562425050696,-0.334039044928,-0.0685920050466,-0.0901908994922,0.14321519916,-0.393352712421,1.38967478275,1.14987254143,0.519636690617,-0.553528726101,0.665674328804,-0.153593748808
2017/07/09/09:30:18.250636,220291,1499563821,49607569,,0.786581569605,0.543065841786,0.236250065403,0.604916965096,0.788559537228,0.0647562145841,0.0897549678757,0.0568070271687,-0.327898910018,-0.0824143219982,-0.0837467987255,0.143114280264,-0.396309454328,1.70872545242,1.37606012821,0.568829596043,-0.634168684483,0.818940162659,-0.160638481379
2017/07/09/09:30:18.260921,220292,1499563821,59609518,,0.78683946182,0.540632524084,0.235458909709,0.606493721717,0.787442416212,0.0640639849831,0.0894181888459,0.0568334150287,-0.335370996557,-0.0852990066322,-0.0927739450226,0.143124731047,-0.40540104825,1.61261165142,1.13336348534,0.603922843933,-0.532778680325,0.772237360477,-0.156983330846
2017/07/09/09:30:18.271052,220293,1499563821,69612686,,0.787480127764,0.537381695865,0.234968931514,0.607893528205,0.786424238874,0.0630637692304,0.0895842390652,0.0544761020643,-0.330991797159,-0.0868144695868,-0.0735828745717,0.149868335092,-0.405555592699,1.95550811291,1.1288677454,0.80232322216,-0.518380820751,0.954471647739,-0.163348987699
2017/07/09/09:30:18.280953,220294,1499563821,79613155,,0.788358506478,0.533596572366,0.234139188947,0.60967058686,0.785119262244,0.0622678257006,0.0895111024021,0.0456424786843,-0.334815857819,-0.0774798572866,-0.0832599389213,0.157889690252,-0.385962950192,1.56421303749,1.26653254032,0.777696013451,-0.593352615833,0.784734547138,-0.201980695128
2017/07/09/09:30:18.291123,220295,1499563821,89608820,,0.788758926837,0.53100132399,0.233516865643,0.611081263856,0.784131416327,0.0615886341561,0.0890193857372,0.0493459668293,-0.335199553224,-0.0737123157627,-0.0593303914503,0.156129808275,-0.410835568961,1.53194069862,1.02425158024,0.796247303486,-0.511098325253,0.775863528252,-0.171322137117
2017/07/09/09:30:18.300505,220296,1499563821,99604813,,0.78957224101,0.527205724195,0.23291230815,0.612418983992,0.783131734442,0.0608187964431,0.0891557544682,0.0530150061814,-0.324372209548,-0.0698897445003,-0.0439490934395,0.137071494884,-0.401374483786,1.35969984531,0.990938961506,0.796696782112,-0.500703811646,0.691734910011,-0.164957523346
2017/07/09/09:30:18.311157,220297,1499563821,109608390,,0.790022891137,0.523924659043,0.232127061118,0.614693912541,0.781458768904,0.0599524042105,0.0887653965134,0.0496278501704,-0.34611630126,-0.0928777965828,-0.0874162400149,0.158938806085,-0.403714240788,1.77903699875,1.05979120731,0.870285391808,-0.57833480835,0.889170765877,-0.208047151566
2017/07/09/09:30:18.320839,220298,1499563821,119613689,,0.789745136775,0.521048525016,0.230608363006,0.616245944973,0.780464343577,0.0585972033154,0.0876510779891,0.0586157291982,-0.339785248471,-0.0706523854247,-0.0422301334008,0.129446015104,-0.4350250498,1.29830062389,0.745508611202,1.02189135551,-0.490097045898,0.721386492252,-0.158160328865
2017/07/09/09:30:18.330923,220299,1499563821,129611861,,0.790574699349,0.517386933686,0.230084656842,0.617706426227,0.779344538299,0.0579454238762,0.0877678157037,0.0448203976215,-0.34308628655,-0.076131868642,-0.0555781146881,0.157741902314,-0.419599298437,1.24916660786,0.926626443863,0.872678399086,-0.56422752142,0.68503433466,-0.204845100641
2017/07/09/09:30:18.341041,220300,1499563821,139609395,,0.791826959479,0.514105582644,0.230254221586,0.619232712147,0.778079546037,0.0577681830838,0.0883510343441,0.056577273382,-0.361706409225,-0.0802424486269,-0.0738003786737,0.136897683128,-0.449000433616,1.09122025967,1.05995392799,0.797244727612,-0.632495343685,0.60081166029,-0.213602170348
2017/07/09/09:30:18.351256,220301,1499563821,149614120,,0.792222092988,0.509996015721,0.2300194528,0.621427843166,0.776437635496,0.0566657387016,0.0880966967667,0.0710807690263,-0.377496921151,-0.0619634106854,-0.0694559682604,0.107387752862,-0.463304481685,1.03573763371,1.31446409225,0.760592162609,-0.746669709682,0.578462421894,-0.293024122715
2017/07/09/09:30:18.360803,220302,1499563821,159606625,,0.792389260674,0.507118828462,0.228600102277,0.622509320561,0.775700229088,0.0555971831436,0.0876370562877,0.0554198188592,-0.360479902404,-0.0645121208287,-0.0653056634512,0.12715706255,-0.440607128552,0.618714570999,0.87995749712,0.715800821781,-0.53104698658,0.460195183754,-0.201330631971
2017/07/09/09:30:18.370814,220303,1499563821,169609644,,0.793093306395,0.5034464527,0.227535435991,0.624372768754,0.774309596141,0.0547522879991,0.0872094141837,0.0529703098656,-0.34678633516,-0.0744672139091,-0.0612596888575,0.130242730128,-0.414815153533,0.335288524628,0.664040744305,0.687970340252,-0.453331410885,0.384281635284,-0.176649779081
2017/07/09/09:30:18.381171,220304,1499563821,179617168,,0.794239089107,0.499541288248,0.227641956787,0.625790157265,0.773111352435,0.0545464256967,0.0878077630384,0.0739614990687,-0.389818452643,-0.0529996667744,-0.0607592823993,0.0888872604779,-0.471856716982,0.325982391834,0.647172272205,0.87508648634,-0.503788590431,0.450535416603,-0.214730858803
2017/07/09/09:30:18.390861,220305,1499563821,189607706,,0.79493429134,0.496249426785,0.227162085925,0.627818061339,0.77152126975,0.0541337499009,0.0875725373764,0.0716411840664,-0.378070699121,-0.0629624455924,-0.0205026337071,0.102497618411,-0.48235974563,0.668788075447,0.570243835449,0.875196158886,-0.475534647703,0.606426715851,-0.216519057751
2017/07/09/09:30:18.400762,220306,1499563821,199606793,,0.795041476176,0.492744923417,0.225581323462,0.629216659832,0.770548040711,0.0526456670498,0.0870088828074,0.0627290474866,-0.3435901087,-0.0701659730565,-0.0337337336067,0.101605317006,-0.434199621993,0.763283133507,0.429391682148,0.927855491638,-0.436175733805,0.628474652767,-0.21611353755
2017/07/09/09:30:18.410971,220307,1499563821,209608821,,0.795327840149,0.490442523672,0.225609579715,0.630793117242,0.769323353225,0.052675257817,0.086411449681,0.0463236042374,-0.34011224765,-0.0752629716604,-0.028924255961,0.127807197783,-0.420169748293,0.832395076752,0.528194069862,0.829174101353,-0.452826410532,0.614665031433,-0.210325434804
2017/07/09/09:30:18.420844,220308,1499563821,219612950,,0.796705503732,0.485226445822,0.225378527469,0.633294082854,0.767236498996,0.0518018499716,0.0871970616997,0.051867495228,-0.346722040214,-0.0627902042726,-0.0331633227661,0.1094352121,-0.438014208854,0.607284605503,0.6955742836,0.751495182514,-0.528769850731,0.466418683529,-0.250018745661
2017/07/09/09:30:18.430657,220309,1499563821,229609253,,0.797235653812,0.482904521502,0.224417865429,0.634206299161,0.766525866917,0.05165813701,0.0869016819869,0.0725422230424,-0.370915765338,-0.0551881889025,-0.0511497163686,0.0702031292181,-0.445534433256,0.964598238468,0.879436135292,0.590883135796,-0.57118844986,0.517479419708,-0.273415148258
2017/07/09/09:30:18.440768,220310,1499563821,239610412,,0.798086055565,0.478989475269,0.223832506334,0.636037726038,0.765015523168,0.0509206927462,0.0872602052362,0.0842917215088,-0.353831085147,-0.0502018137815,-0.0353497340623,0.0289465939276,-0.41698162977,1.03587400913,0.555837154388,0.665931046009,-0.349410712719,0.526637077332,-0.202030643821
2017/07/09/09:30:18.450935,220311,1499563821,249610105,,0.79889646541,0.475772620103,0.22315680771,0.637318119865,0.76399167875,0.0506977991774,0.0870175962182,0.0839900874521,-0.3475729684,-0.0544607275639,-0.00832715736821,0.0339600543804,-0.439675087066,1.02815270424,1.18344020844,0.698806405067,-0.684673786163,0.481477022171,-0.340041816235
2017/07/09/09:30:18.460971,220312,1499563821,259612056,,0.799809337232,0.472655502454,0.223096597121,0.639247612545,0.762358531943,0.0506452481644,0.0872182175202,0.0841156397342,-0.340369834935,-0.0508086213126,0.0138923254149,0.0215397619769,-0.452052883648,1.05668222904,0.865839481354,0.739765942097,-0.528560817242,0.567960381508,-0.244883283973
2017/07/09/09:30:18.470852,220313,1499563821,269610446,,0.80092081375,0.47033677829,0.223005087751,0.640567696827,0.761196888362,0.0513171800429,0.0872861384308,0.096777601733,-0.345990372513,-0.02564878737,-0.000941923607038,-0.0297236727101,-0.453320821524,0.360182076693,0.711300611496,0.726031243801,-0.521845340729,0.343610525131,-0.291230559349
2017/07/09/09:30:18.480865,220314,1499563821,279613067,,0.801913221374,0.466310021038,0.222225139951,0.642383369632,0.75967969925,0.0510247577439,0.0873317529032,0.099548249641,-0.329194541819,-0.0399301500395,0.0325878470713,-0.0335948490941,-0.445282804631,0.629503250122,0.704421877861,0.735625863075,-0.538788855076,0.486880779266,-0.266645550728
2017/07/09/09:30:18.490943,220315,1499563821,289613851,,0.802644920121,0.463788638431,0.221626466483,0.643526035144,0.758729215642,0.0511129504374,0.0871302801584,0.102075310618,-0.336541768233,-0.0557272708163,0.0439273193237,-0.0193901795038,-0.439249759018,1.02687835693,0.646498322487,0.713975131512,-0.544485092163,0.620660543442,-0.300739705563
2017/07/09/09:30:18.501067,220316,1499563821,299611275,,0.803330320426,0.460607257469,0.221278813826,0.645419973736,0.757125311302,0.050968869286,0.0871578731502,0.0932279270397,-0.332848019314,-0.0519508840624,0.0431380447582,-0.0110906240072,-0.437675169724,0.788049280643,0.785885095596,0.712672591209,-0.566880047321,0.544373989105,-0.277999550104
2017/07/09/09:30:18.510891,220317,1499563821,309610168,,0.805142470092,0.45722146726,0.221295703011,0.647372463009,0.755310705381,0.0516853559488,0.0879957752148,0.10653830807,-0.355418050121,-0.0404469784192,0.00797133142101,-0.0423783061472,-0.44285652364,0.767127633095,0.683322846889,0.586373984814,-0.509053826332,0.49053260684,-0.260252267122
2017/07/09/09:30:18.520948,220318,1499563821,319618895,,0.806081266478,0.453109060428,0.220531888474,0.648612165702,0.754285352749,0.0510832622271,0.0880134390379,0.117040106497,-0.359161102243,-0.0335259699587,0.0194009143478,-0.0711082215924,-0.465678234297,0.224674642086,0.356656163931,0.363659739494,-0.361644685268,0.191384702921,-0.243579253554
2017/07/09/09:30:18.530581,220319,1499563821,329612128,,0.807005956262,0.449148696521,0.220325523801,0.650630012319,0.75249509646,0.0508229672349,0.0885931310812,0.115229209468,-0.347220831913,-0.0272845992442,0.0423422135998,-0.0768578188758,-0.452454288505,0.667013645172,0.541832506657,0.37676230073,-0.381345123053,0.340865731239,-0.205754935741
2017/07/09/09:30:18.540749,220320,1499563821,339604961,,0.807909877334,0.44756938815,0.219613520155,0.651773795274,0.751493764052,0.051599243116,0.0882358231938,0.116191005705,-0.328141102789,-0.0233969258439,0.0597327188005,-0.0926544188653,-0.432425678047,0.543417811394,0.703591287136,0.377378821373,-0.489771962166,0.266073107719,-0.26347142458
2017/07/09/09:30:18.551011,220321,1499563821,349611905,,0.809351502357,0.44309685436,0.219427096103,0.653816402592,0.74962691911,0.0514091204299,0.0891105840194,0.119672064893,-0.347209566152,-0.0327397361004,0.0248960370483,-0.0990928160884,-0.45652527626,0.301295667887,0.496579647064,0.253510028124,-0.394545555115,0.140240073204,-0.233458325267
2017/07/09/09:30:18.560806,220322,1499563821,359616198,,0.810448770524,0.439680445,0.219821572988,0.655562815113,0.748017655369,0.0518999798927,0.0895174551898,0.112799154445,-0.370411807761,-0.0380257569308,0.0225593112823,-0.0649624770025,-0.488702965029,0.661317288876,0.576400697231,0.198393851519,-0.424630850554,0.284737765789,-0.262971132994
2017/07/09/09:30:18.571143,220323,1499563821,369609196,,0.811739866437,0.43631203017,0.219530663267,0.657247354259,0.746493287845,0.0523698743535,0.0896163086805,0.114400652219,-0.362813105225,-0.0202446505843,0.0239320372464,-0.0909086840281,-0.469148781003,0.0232434570789,0.339384406805,0.161635115743,-0.326264411211,0.0562654882669,-0.213745251298
2017/07/09/09:30:18.580611,220324,1499563821,379611824,,0.812784507804,0.432597040943,0.219428430153,0.658785107958,0.745074937172,0.0523872348239,0.0901171302105,0.106432895782,-0.36861112832,-0.0270501147297,0.00943859722859,-0.0761334149322,-0.450483950187,0.0805937945843,0.420681446791,0.214018106461,-0.337278693914,0.145811125636,-0.20026050508
2017/07/09/09:30:18.590607,220325,1499563821,389611369,,0.813086773507,0.429331498324,0.218527476609,0.660491432356,0.743622469739,0.0519954777197,0.0898507683959,0.0995360489924,-0.371050030714,-0.0326235605664,0.0197970233977,-0.0549703465155,-0.460007078727,0.393433272839,0.57025295496,0.266882002354,-0.456769615412,0.252131223679,-0.283804416656
2017/07/09/09:30:18.600822,220326,1499563821,399615467,,0.814490686798,0.425210287058,0.218252505181,0.662604297642,0.741700793247,0.0521360418831,0.0900961218906,0.0983557994714,-0.389042411658,-0.044670296283,0.0191684161657,-0.036164731981,-0.500680934679,-0.0347471088171,0.511095106602,0.264913797379,-0.404104799032,0.102286428213,-0.246333777905
2017/07/09/09:30:18.610800,220327,1499563821,409610677,,0.81497131954,0.422149586822,0.217687999175,0.663785249237,0.740634078168,0.0515893343526,0.0904922412826,0.0915682863168,-0.360322367273,-0.0384320076197,0.0458293243456,-0.0354252894178,-0.48787807153,-0.136405348778,0.363503068686,0.180917203426,-0.343364238739,0.0525371730328,-0.224049165845
2017/07/09/09:30:18.620668,220328,1499563821,419610233,,0.815999611982,0.41804969269,0.217714059252,0.665598497407,0.738975290623,0.051783749252,0.0906234153602,0.0924618876565,-0.376484604243,-0.0204541541891,0.00987760473997,-0.0486657305665,-0.469182038725,-0.353593468666,0.244956240058,0.090288721025,-0.311621546745,-0.0577110350132,-0.209729790688
2017/07/09/09:30:18.630978,220329,1499563821,429608638,,0.816943501506,0.414718457307,0.217724843415,0.667157992411,0.737545503031,0.0519732824175,0.0906952150601,0.0809826100352,-0.373401180832,-0.0298445524561,0.0226807998262,-0.0171493337349,-0.477457795895,-0.819458067417,0.225483432412,0.0395388677716,-0.295582920313,-0.249555185437,-0.214812487364
2017/07/09/09:30:18.640708,220330,1499563821,439612710,,0.817469138748,0.411300356377,0.216712579233,0.668997343748,0.735910286758,0.0515583883773,0.090666071329,0.0763835444675,-0.371745266564,-0.0411367641149,0.0168896771571,-0.00265980004243,-0.46417315481,-0.18600718677,0.386608362198,0.388380348682,-0.384912163019,0.0441900938749,-0.237828940153
2017/07/09/09:30:18.650842,220331,1499563821,449605802,,0.818201750206,0.407052893403,0.216160247295,0.670589242518,0.734480796894,0.0510594530703,0.0907797282741,0.0794372691344,-0.380529061369,-0.0369564271375,0.0124230858626,-0.0159657766196,-0.456631694643,0.193024858832,0.470245242119,0.55657851696,-0.439143449068,0.218546360731,-0.279829621315
2017/07/09/09:30:18.660733,220332,1499563821,459628458,,0.819307078524,0.403440137487,0.216614724591,0.671480378774,0.733568347672,0.0513587717874,0.0913994353183,0.0622187675022,-0.380564233575,-0.0472995429188,-0.0293899566694,0.0242957521338,-0.372904040083,0.295530349016,0.430792570114,0.656683921814,-0.359904110432,0.305420637131,-0.236799776554
2017/07/09/09:30:18.671045,220333,1499563821,469614408,,0.819599812128,0.399846632003,0.216005817145,0.671910098596,0.733222411501,0.0503237029296,0.0915927922975,0.0674940105535,-0.378032063883,-0.0343981538159,-0.0508512081483,0.00880930375179,-0.269335801646,-0.264061689377,0.535746991634,0.739347040653,-0.436302810907,0.0965145081282,-0.249264150858
2017/07/09/09:30:18.680795,220334,1499563821,479613717,,0.819967562735,0.396408975109,0.215882881004,0.672455026134,0.732741577482,0.0499606374881,0.0916403467816,0.0666482443432,-0.416449889283,-0.0402137494567,-0.111143444786,0.0284838622038,-0.216405002011,-0.461376428604,0.39081916213,0.587556183338,-0.397823899984,-0.0653360113502,-0.243715122342
2017/07/09/09:30:18.690733,220335,1499563821,489606623,,0.820772406995,0.392979707741,0.214998200738,0.673934708074,0.731399940703,0.0498242524449,0.0915624369564,0.0525142753017,-0.369179881277,-0.0345574608298,-0.0348189880259,0.0474419366777,-0.228827017329,-0.801515698433,0.259105473757,0.620873808861,-0.267316401005,-0.181166172028,-0.194870397449
2017/07/09/09:30:18.700931,220336,1499563821,499631196,,0.821241447515,0.38919775904,0.214815754901,0.675906571912,0.729607969765,0.0498312747863,0.0913200994044,0.0602484200663,-0.36379478712,-0.0262910420334,0.0156405390463,0.00923463416904,-0.399453195533,-0.666476130486,0.398003041744,0.765662908554,-0.339749246836,-0.0617160499096,-0.241608858109
2017/07/09/09:30:18.710827,220337,1499563821,509606797,,0.822407782696,0.384462643564,0.214511206414,0.677574201379,0.728003845325,0.0494020743786,0.0919947708554,0.0699374798092,-0.379863636662,-0.0300757894795,0.0177832886266,-0.0227253176605,-0.482403212264,-0.0529556423426,0.618671834469,0.929263949394,-0.489359259605,0.243393853307,-0.310889661312
2017/07/09/09:30:18.722265,220338,1499563821,519612065,,0.822785300097,0.381118561172,0.214343587098,0.67935971045,0.726353795762,0.0493711042858,0.0918860232081,0.0655354513963,-0.414741033174,-0.0376635741638,-0.0240814414997,0.00192331268068,-0.508075046565,0.666305661201,0.637825489044,0.867530107498,-0.492811322212,0.543665528297,-0.329438745975
2017/07/09/09:30:18.730837,220339,1499563821,529606784,,0.82332384177,0.377744676265,0.214268567139,0.681021429119,0.72479015208,0.0492604492831,0.0919916119263,0.0521579590663,-0.416594622979,-0.0399079909523,-0.0132572977783,0.0337915997368,-0.537793364757,0.950552761555,0.693850040436,0.645223677158,-0.438312351704,0.654142737389,-0.321617484093
2017/07/09/09:30:18.740844,220340,1499563821,539612356,,0.823506886356,0.373769872515,0.213667219604,0.682700878785,0.72329445359,0.0486235114149,0.0916536832286,0.0639530706579,-0.421804036033,-0.0282575704529,-0.00478212016474,0.00782148866455,-0.535240401733,1.39439976215,0.764277219772,0.495491206646,-0.471151322126,0.779510974884,-0.345483750105
2017/07/09/09:30:18.750649,220341,1499563821,549614564,,0.824524548937,0.369911006152,0.213231923217,0.684546835847,0.72150272807,0.0487096159566,0.0919609495029,0.0593366429232,-0.401072099795,-0.0296915245165,0.00687263325671,0.00676278859207,-0.521521726798,0.502898693085,0.60975420475,0.52376127243,-0.402769386768,0.400931477547,-0.354348242283
2017/07/09/09:30:18.760815,220342,1499563821,559605553,,0.825351921329,0.365986558463,0.213136535544,0.68637203004,0.719715178019,0.0487388954277,0.0923472738062,0.0762134560803,-0.421578921733,-0.0288648268997,0.0248557977152,-0.0287848699914,-0.5378381832,0.933031857014,0.739806294441,0.735220134258,-0.496587187052,0.582171142101,-0.393405735493
2017/07/09/09:30:18.771044,220343,1499563821,569608395,,0.825891427294,0.361381664465,0.212725818432,0.688653746373,0.717553231145,0.0482815985898,0.092424376204,0.0662372934604,-0.389651241457,-0.0305471934605,0.0284568300993,-0.0236678959861,-0.481040504136,0.663540899754,0.643054366112,0.943426072598,-0.42796176672,0.530893325806,-0.369026482105
2017/07/09/09:30:18.781210,220344,1499563821,579611753,,0.826993124743,0.357438325054,0.212861487957,0.689983263193,0.71618512232,0.0487069831683,0.0928956235312,0.0793003025083,-0.418871128316,-0.0131955326189,-0.0241187505222,-0.060563943616,-0.473210510915,0.324342191219,0.484731853008,0.877870738506,-0.381277084351,0.384123653173,-0.33905261755
2017/07/09/09:30:18.790886,220345,1499563821,589605051,,0.827537224941,0.354745384957,0.212430577903,0.690458962894,0.71570103961,0.0487312698076,0.0930790298822,0.0807357329872,-0.380007846903,-0.0161369269382,0.0265285232059,-0.0757275609542,-0.425943485912,0.531687140465,0.529946565628,1.09825134277,-0.410243391991,0.537656784058,-0.332971632481
2017/07/09/09:30:18.800790,220346,1499563821,599612515,,0.828471021228,0.350833247159,0.212717033218,0.692182295188,0.713955363532,0.0491068079472,0.0934875955695,0.096053899108,-0.382553160654,-0.00897852597055,0.0319629829043,-0.119994856709,-0.42181440829,0.421402335167,0.567343235016,0.8855047822,-0.400927990675,0.495012611151,-0.320832431316
2017/07/09/09:30:18.810671,220347,1499563821,609604433,,0.829780757665,0.346946547777,0.212117654854,0.693866843102,0.712190603382,0.0496795150487,0.0941556917155,0.0951896232675,-0.391814092781,-0.0222829758698,0.0360507805406,-0.108819527379,-0.416006138604,0.996589183807,0.661190330982,0.825471818447,-0.4698343575,0.718201756477,-0.334062457085
2017/07/09/09:30:18.821038,220348,1499563821,619621386,,0.831163716176,0.342032839552,0.212670862742,0.695492220432,0.710433658985,0.0500859263417,0.0952154792187,0.12225636967,-0.401437915707,-0.00866109051572,0.00920077429858,-0.183994990065,-0.381670945494,1.31180381775,0.430438041687,0.627133071423,-0.295352041721,0.832989513874,-0.231389954686
2017/07/09/09:30:18.830549,220349,1499563821,629607728,,0.831946166165,0.339138036686,0.211877570986,0.696548630156,0.709377467389,0.0504448658065,0.095178411956,0.128287311741,-0.414154740291,0.00781896087368,0.0352402739383,-0.214663600572,-0.428629567742,0.660411119461,0.22578984499,0.629793584347,-0.231306403875,0.571301221848,-0.190612316132
2017/07/09/09:30:18.840783,220350,1499563821,639609835,,0.833257254492,0.334399530144,0.212403689977,0.69866570222,0.707106777216,0.0511623304586,0.0961699438457,0.125368404579,-0.412042887465,-0.00738725292503,0.0152105598495,-0.199634082696,-0.417894717397,1.20246326923,0.431193470955,0.432802915573,-0.366823405027,0.690005719662,-0.271281182766
2017/07/09/09:30:18.851150,220351,1499563821,649609509,,0.834359321185,0.331568465967,0.211934527716,0.700072002125,0.70561373362,0.0520349992223,0.0964407052202,0.118521015723,-0.403845748694,-0.0260225428035,0.0469000561541,-0.182621401654,-0.466086894191,1.19119167328,0.380549460649,0.624263763428,-0.28181552887,0.691738605499,-0.229188784957
2017/07/09/09:30:18.860729,220352,1499563821,659604970,,0.835795152129,0.326854879686,0.212125456237,0.702055838403,0.703455315452,0.0527829647664,0.0973764733249,0.134832025466,-0.421963294788,-0.00841832586262,0.0731479514344,-0.236111268399,-0.535786962776,1.13239741325,0.43617027998,0.796808183193,-0.350835651159,0.641181409359,-0.260924041271
2017/07/09/09:30:18.870790,220353,1499563821,669607581,,0.837686149629,0.32284698563,0.212703135318,0.703608759178,0.701577182405,0.0540250351915,0.0990225565723,0.138883778806,-0.406763695406,0.0100480855944,0.0757092102063,-0.271102868673,-0.537842299026,0.529537856579,0.237012818456,0.819259345531,-0.327851295471,0.393023371696,-0.25705075264
2017/07/09/09:30:18.881148,220354,1499563821,679613324,,0.838573440201,0.320200908521,0.211830595458,0.70530763494,0.69985424432,0.0549117266767,0.0986401494135,0.135099106959,-0.388822242284,-0.00551792499916,0.0786222719597,-0.255558468404,-0.508841407165,0.106408335268,0.331887483597,0.791085600853,-0.317922055721,0.219359844923,-0.206142872572
2017/07/09/09:30:18.890793,220355,1499563821,689605662,,0.839871548429,0.316648346665,0.211937247032,0.706653062136,0.698278072469,0.0556466135289,0.0997629073581,0.13278524103,-0.384827635812,-0.00757121707418,0.0918299949717,-0.254394387427,-0.540123921031,0.121154755354,0.310101389885,0.584640085697,-0.373323917389,0.229991883039,-0.224673241377
2017/07/09/09:30:18.900822,220356,1499563821,699612635,,0.840847205442,0.312159269051,0.211397761451,0.708833917749,0.695985877732,0.0561816085913,0.100008809123,0.131695241476,-0.368055550944,-0.0146889422259,0.101796460046,-0.25995327802,-0.479702717623,0.850483775139,0.397439867258,0.547225296497,-0.374933719635,0.573885083199,-0.213005721569
2017/07/09/09:30:18.911060,220357,1499563821,709606295,,0.842331927977,0.308174896162,0.211403112281,0.710378575526,0.694178634621,0.0575223712016,0.100843837101,0.135080114899,-0.417311287497,-0.0133426843039,0.0824657395705,-0.270225306802,-0.527751429865,1.26349294186,0.316702604294,0.525876998901,-0.359650701284,0.729302048683,-0.202846735716
2017/07/09/09:30:18.920634,220358,1499563821,719612891,,0.84334860043,0.304818413911,0.211911770153,0.711248819443,0.693111387626,0.0583055908695,0.101598126249,0.122973210559,-0.42705662231,-0.0114908404986,0.074077476835,-0.23691888818,-0.467812125623,2.34502768517,0.45941388607,0.447209119797,-0.477993905544,1.08120131493,-0.304035186768
2017/07/09/09:30:18.930776,220359,1499563821,729613052,,0.844447884339,0.300545655023,0.211433107709,0.712705199169,0.691454835984,0.058617952547,0.102496070713,0.106971760982,-0.385159714736,-0.0146616096233,0.0534044042556,-0.209621045912,-0.364599587151,1.78979611397,0.42637604475,0.365157693624,-0.428818285465,0.768463671207,-0.265901267529
2017/07/09/09:30:18.940798,220360,1499563821,739608102,,0.845415428556,0.296664675549,0.21136468581,0.71372084276,0.690282995914,0.0592518382047,0.102961953318,0.114206763427,-0.402297638431,-0.00652359915332,0.0343093609668,-0.223715167467,-0.3782671119,0.98527944088,0.495543837547,0.272724270821,-0.510998249054,0.391599625349,-0.287755995989
2017/07/09/09:30:18.950652,220361,1499563821,749604889,,0.846290992039,0.292825793367,0.210429571046,0.715139343119,0.688727634612,0.0597231555636,0.10326233551,0.100585322012,-0.405420900871,-0.0193773511032,0.0429916337652,-0.188692345596,-0.384835581874,0.848815321922,0.339724779129,0.401602327824,-0.488718509674,0.354499667883,-0.248548492789
2017/07/09/09:30:18.960730,220362,1499563821,759606346,,0.847315077767,0.289284555867,0.210745009082,0.71592369192,0.687717141142,0.0605564331963,0.104073625505,0.0947887154102,-0.40906017006,-0.0328477766663,0.0354036054302,-0.174632138022,-0.340708792955,1.15024089813,0.549133658409,0.643792808056,-0.596842944622,0.56835526228,-0.303400009871
2017/07/09/09:30:18.970607,220363,1499563821,769617568,,0.848538913605,0.284535252529,0.210748266454,0.717019520527,0.686385379808,0.0614034846878,0.104822371833,0.0998128085464,-0.41964467484,-0.02106750628,0.0277083565677,-0.195061442026,-0.298302143744,1.08084177971,0.280963480473,0.580019950867,-0.572395265102,0.552022814751,-0.290684312582
2017/07/09/09:30:18.980966,220364,1499563821,779609964,,0.848793348032,0.280793874258,0.210132714397,0.717018157217,0.686359769861,0.0611334549211,0.105156688934,0.0840104610687,-0.422126563609,-0.0216530957909,0.00102319045948,-0.157215821936,-0.215149427846,1.26387023926,0.501718461514,0.6761521101,-0.706975460052,0.662075996399,-0.337512850761
2017/07/09/09:30:18.990653,220365,1499563821,789607925,,0.849426558833,0.277291261613,0.209261013196,0.717090868433,0.686269774842,0.0614419791374,0.105068386051,0.0599626233086,-0.417225703383,-0.0462427097942,-0.00358091414447,-0.0837333423198,-0.12008743961,0.347074598074,0.371088445187,0.553802847862,-0.620675802231,0.266604483128,-0.278952777386
2017/07/09/09:30:19.001036,220366,1499563821,799617581,,0.849626316155,0.273182622585,0.20924767497,0.718481905036,0.684773717516,0.061498989276,0.105292840467,0.0505685325813,-0.430483463218,-0.0514944214143,-0.0357095442834,-0.0545818987128,-0.125051236395,0.281159967184,0.578864574432,0.423401296139,-0.694373250008,0.185861393809,-0.389484405518
2017/07/09/09:30:19.010917,220367,1499563821,809607676,,0.850033445375,0.270468265876,0.208568534263,0.719347649144,0.683826338902,0.0618363448064,0.105341180721,0.0403348631084,-0.393730372505,-0.0356081647534,0.0117727354239,-0.0718807745681,-0.286545827186,0.393957555294,0.722605288029,0.674221098423,-0.724941074848,0.287777513266,-0.447908997536
2017/07/09/09:30:19.020637,220368,1499563821,819645998,,0.850104154668,0.266090869184,0.208041931596,0.720679392466,0.682421659291,0.061437424248,0.105580941021,0.0298247820086,-0.354199491026,-0.0531318489996,0.0591176496225,-0.0521674722502,-0.356342056911,0.242234706879,0.611154556274,0.788232326508,-0.649808168411,0.27091139555,-0.363159865141
2017/07/09/09:30:19.031034,220369,1499563821,829607716,,0.850961310114,0.261463319917,0.208112343323,0.722078897493,0.680754574407,0.0619984371584,0.106449372984,0.0347553274877,-0.399942728303,-0.0453160480978,0.037031691892,-0.0794300505258,-0.403932048907,0.787907063961,0.477841466665,0.700835704803,-0.62498909235,0.49569734931,-0.405183970928
2017/07/09/09:30:19.040852,220370,1499563821,839610469,,0.850846072094,0.257663953491,0.207060563988,0.723337494192,0.67948746669,0.0614938900804,0.106292772989,0.0137026916056,-0.427786298002,-0.0665756231528,9.92105657637e-05,-0.0206780840501,-0.400740869344,0.757771372795,0.416575521231,0.558972597122,-0.633963704109,0.477174788713,-0.406963974237
2017/07/09/09:30:19.050851,220371,1499563821,849606101,,0.851016059918,0.254038601569,0.206703930232,0.724536194662,0.678160826976,0.0616278966209,0.106523226285,0.025338341118,-0.401089594051,-0.0406186123397,-0.00537392071031,-0.0600833059786,-0.329066653048,0.923509955406,0.664455890656,0.433308452368,-0.794981300831,0.51590770483,-0.494316548109
2017/07/09/09:30:19.061297,220372,1499563821,859618866,,0.851069799696,0.249989397832,0.205936638738,0.725330140142,0.677313747826,0.0612205441132,0.106744179164,0.00142606409087,-0.390038110699,-0.0666158479335,0.0091978101155,0.012201844722,-0.327027287356,0.639056265354,0.38013869524,0.330103993416,-0.645917534828,0.386665999889,-0.429811060429
2017/07/09/09:30:19.070702,220373,1499563821,869606537,,0.851063993618,0.24621806075,0.20513941457,0.72620819389,0.676402175511,0.061027960152,0.106664634116,-0.00834587973496,-0.412216622863,-0.0779359482902,-0.00493695777499,0.0315524617296,-0.337008893828,0.6424883008,0.563582360744,0.410623073578,-0.764383256435,0.413098424673,-0.481728494167
2017/07/09/09:30:19.081033,220374,1499563821,879612569,,0.851160958342,0.243451302725,0.20454936306,0.726502515603,0.676082461201,0.0611124979135,0.106638937906,0.00346239672331,-0.414908415971,-0.0701346348735,-0.0340448812881,0.000680500608822,-0.276144098649,0.333433926105,0.558853924274,0.421054303646,-0.732311308384,0.278715014458,-0.468149065971
2017/07/09/09:30:19.090723,220375,1499563821,889606609,,0.851136301269,0.238120138029,0.204247298377,0.727660890732,0.67477712385,0.0603522912735,0.107438643727,0.00619607555605,-0.380041326663,-0.0621872354354,-0.0333583933087,-0.0118172324333,-0.200536001996,-0.401594907045,0.634048759937,0.568368494511,-0.736955523491,0.0417602583766,-0.450300395489
2017/07/09/09:30:19.100878,220376,1499563821,899640414,,0.851380388957,0.235084569359,0.203454189843,0.727870316056,0.674514292968,0.0606384461397,0.107509303957,-0.00275233316951,-0.384127527861,-0.0683244613519,-0.0519117198483,0.0103389139072,-0.177671772705,-0.279994785786,0.602447509766,0.707216739655,-0.785611152649,0.135696083307,-0.519389629364
2017/07/09/09:30:19.111079,220377,1499563821,909613563,,0.850816280288,0.23140547465,0.202606429707,0.728564684628,0.673850972341,0.0598636673455,0.107399761264,-0.0130028641408,-0.3939387147,-0.0790912293483,-0.0433806594427,0.0316313072997,-0.170511017208,-1.19148826599,-2.95105147362,0.647562265396,-0.154180958867,-0.173998072743,-0.318396478891
2017/07/09/09:30:19.120726,220378,1499563821,919620052,,0.850560520346,0.227845988076,0.20159880836,0.728975991716,0.673482967988,0.0594302190448,0.107157568072,-0.0231425387578,-0.420453185138,-0.0857990215742,-0.0744954087553,0.0542936034657,-0.184497551826,-0.970620632172,-2.22757077217,-0.0284839272499,-0.269483983517,-0.113481208682,-0.347803026438
2017/07/09/09:30:19.130975,220379,1499563821,929606682,,0.850268208124,0.224937928795,0.20051692553,0.729019418769,0.673534054818,0.0590352350219,0.106758630016,-0.0212009218899,-0.367020237374,-0.0838056372551,-0.03943829682,0.0534671939016,-0.0876778720006,-1.21411764622,-0.407945603132,0.110277287662,-0.416619837284,-0.212181508541,-0.294194042683
2017/07/09/09:30:19.140835,220380,1499563821,939613511,,0.84985146451,0.221262059463,0.199574985737,0.729286224575,0.673329367262,0.0585495489636,0.106494676599,-0.0288661395088,-0.339718934717,-0.0942918419184,0.0231342006347,0.07556327428,-0.0741806677163,-2.16639947891,-1.15150475502,0.360902011395,0.326110720634,-0.620263755322,0.117832988501
2017/07/09/09:30:19.150721,220381,1499563821,949608990,,0.849926736147,0.218698078991,0.199395627633,0.729071922462,0.67355158634,0.0589554456631,0.106332722351,-0.0331849329453,-0.359061052092,-0.0938584124398,-0.00323559012741,0.0864029064739,-0.0657572472747,-2.79482126236,-1.27029180527,0.778288185596,0.504646658897,-0.918197512627,0.188704431057
2017/07/09/09:30:19.160815,220382,1499563821,959612840,,0.849949893788,0.215108638335,0.198734462606,0.729247275113,0.673374031868,0.0587785807236,0.106352731011,-0.0320089509775,-0.332201864797,-0.0719302395146,0.000296698166947,0.0709667128768,0.00242841895056,-3.37915802002,-1.1361207962,0.757919967175,0.261248797178,-1.22930443287,0.150977820158
2017/07/09/09:30:19.170757,220383,1499563821,969604023,,0.84906986,0.212950012868,0.196908798389,0.728829720418,0.67407302399,0.057740873119,0.105350788018,-0.0320451423565,-0.298773695456,-0.0752448194929,0.0120458302972,0.0938188947701,0.0814482842439,-2.55050945282,2.07727026939,0.256004065275,-1.5970287323,-0.938864171505,-0.598597049713
2017/07/09/09:30:19.180731,220384,1499563821,979626015,,0.848514309019,0.209846310688,0.196443141824,0.729162457806,0.673857791374,0.0578219477411,0.104376287976,-0.0421489483781,-0.242328499772,-0.113017875541,0.0706562504326,0.149828267567,0.0982843342747,-0.623369812965,3.91691207886,0.305794298649,-2.64334893227,-0.184752598405,-1.00172364712
2017/07/09/09:30:19.190744,220385,1499563821,989608049,,0.847970832426,0.206388251985,0.195005873653,0.729806149274,0.67333828561,0.0571435376806,0.103600934909,-0.0474150272354,-0.268423235931,-0.102624928106,0.0972150288571,0.158004720365,0.00409535163519,0.396002024412,3.41943001747,-0.089381814003,-2.78357982635,0.210691004992,-0.991788625717
2017/07/09/09:30:19.200799,220386,1499563821,999613532,,0.847820592251,0.20309826234,0.194494080917,0.729925794836,0.673267475688,0.0567611286989,0.103428306003,-0.0574682102029,-0.32751730159,-0.116295409471,0.0691049643537,0.184662142599,-0.0757993189743,0.161364048719,2.10587739944,0.187957108021,-1.84134376049,0.0571890622377,-0.58715814352
2017/07/09/09:30:19.211141,220387,1499563822,9611966,,0.847028991179,0.199379321199,0.193525427291,0.730358549315,0.672947116836,0.0557026936302,0.103032894299,-0.0686054764481,-0.360526274088,-0.0999748482115,-0.0176496293535,0.197155351634,-0.0926747600906,-1.73411023617,-0.512074887753,0.149533867836,-0.510841667652,-0.638071358204,-0.111525952816
2017/07/09/09:30:19.220825,220388,1499563822,19612214,,0.846668034512,0.196642759597,0.192931571083,0.730157596117,0.673242517673,0.054952494466,0.102930173332,-0.0605145150055,-0.360007024765,-0.089435145573,-0.0726768624237,0.172045632457,-0.0675310177925,-2.73428368568,-0.947566390038,0.0797838568687,-0.0483965352178,-1.05303096771,0.0103863105178
2017/07/09/09:30:19.230923,220389,1499563822,29608625,,0.845756014112,0.193357206474,0.191481506118,0.730513958107,0.673060627714,0.0538015956329,0.102196559338,-0.0611146258409,-0.344998605803,-0.0837660911894,-0.104806706685,0.170176468422,-0.0180009070399,-3.18060088158,-1.03342425823,0.0987326800823,-0.14041107893,-1.28312218189,-0.0216864272952
2017/07/09/09:30:19.240746,220390,1499563822,39610105,,0.845328101069,0.190944172698,0.190724176804,0.729850902594,0.673880254152,0.0532262878803,0.10183332129,-0.0604604422283,-0.316859444125,-0.0949897274158,-0.0798305398218,0.188529198018,0.0320028088604,-3.24723291397,0.195123061538,-0.716294109821,-0.587366700172,-1.35366749763,-0.179008841515
2017/07/09/09:30:19.250760,220391,1499563822,49605965,,0.844929953671,0.187797802514,0.190053775409,0.729519908069,0.674339890175,0.0528525682487,0.101355918813,-0.0705711844394,-0.297002817403,-0.106931757979,-0.0227590645149,0.220866650579,0.0948792080874,-3.37863492966,-0.145835071802,-0.560157179832,-0.545769274235,-1.43128478527,-0.113934889436
2017/07/09/09:30:19.260659,220392,1499563822,59609514,,0.84459322596,0.186024965066,0.18912097131,0.728771356851,0.675269728376,0.0523940857142,0.10078672112,-0.0551294654435,-0.276708575874,-0.0888842291311,-0.008427950274,0.172255932878,0.187843763318,-3.2903482914,0.906708776951,-0.757536172867,-0.726642489433,-1.40775942802,-0.13988237083
2017/07/09/09:30:19.270659,220393,1499563822,69609941,,0.844111081706,0.182762375634,0.18830179032,0.729227804233,0.674887967661,0.0522414677855,0.100119277284,-0.0443304406048,-0.286238144005,-0.0981596007867,0.0204457737993,0.151336681354,0.105241776828,-3.22290706635,-0.106449738145,-0.782238781452,-0.482634395361,-1.35360705853,-0.0627617761493
2017/07/09/09:30:19.280848,220394,1499563822,79613053,,0.844013678691,0.179518587246,0.187621862431,0.729589497369,0.674511207082,0.0516760487967,0.100316413566,-0.0452374721193,-0.298392249608,-0.102179853184,-0.00410700018971,0.142754474426,0.00675479627375,-5.00677776337,-0.671575665474,-0.799489200115,-0.206087395549,-1.95697903633,0.073195502162
2017/07/09/09:30:19.291017,220395,1499563822,89606984,,0.843324711945,0.176924479311,0.186054278124,0.730269670996,0.67394233467,0.0506908455941,0.0996914005083,-0.0495779882378,-0.328946178556,-0.104229233631,-0.0109216589985,0.13118037382,-0.174288361054,-5.71773481369,-0.341307520866,-0.580575764179,-0.217261627316,-2.11758160591,0.0799214467406
2017/07/09/09:30:19.300901,220396,1499563822,99610840,,0.843233317499,0.173637406868,0.185463659335,0.730902241283,0.673217572929,0.0504221556535,0.100088058261,-0.021938408801,-0.296589006188,-0.0913445008317,-0.0238936326275,0.0586063689602,-0.204329233849,-5.60081624985,-0.238603264093,-0.3239620924,-0.311699360609,-1.95087087154,0.0431352704763
2017/07/09/09:30:19.310819,220397,1499563822,109622592,,0.842655259271,0.17133827736,0.183901796253,0.731002836359,0.673268976628,0.0497331640737,0.0993496388325,-0.0133424022663,-0.298279728938,-0.0858309148494,-0.0368089270753,0.0327031176624,-0.185381378122,-6.38125801086,0.13209939003,-0.709551334381,-0.584888219833,-2.09229302406,-0.0648156479001
2017/07/09/09:30:19.320819,220398,1499563822,119613169,,0.842605037032,0.169066350139,0.183254504322,0.730830689199,0.673485551119,0.049491751912,0.0992687395516,-0.0336002692678,-0.283931426825,-0.114507632089,-0.0266457691983,0.107178804755,-0.0818523990853,-6.23604917526,0.953410208225,-0.23556022346,-0.752594232559,-2.02735090256,-0.0907131135464
2017/07/09/09:30:19.330919,220399,1499563822,129606910,,0.842107569196,0.166000661197,0.182426625873,0.730777326422,0.673644925294,0.0487055760983,0.0989685842618,-0.0362557732217,-0.264756245795,-0.102853889582,-0.0331537959001,0.119788842948,0.052419588836,-6.5864033699,0.608867585659,-0.631055414677,-0.731878399849,-2.17779970169,-0.0632833093405
2017/07/09/09:30:19.340780,220400,1499563822,139612954,,0.841200756005,0.162120016058,0.181224348724,0.730689095059,0.673857669931,0.0473508272516,0.0988290756598,-0.0402381070996,-0.25524456336,-0.0946309903408,-0.0487378014686,0.132469638038,0.139245419013,-7.60327863693,-0.286434262991,-0.997860193253,-0.571483254433,-2.59962487221,0.0187627971172
2017/07/09/09:30:19.351059,220401,1499563822,149608769,,0.84113305237,0.160977910149,0.18023631363,0.730421679477,0.674209667155,0.0474707165784,0.0983464586626,-0.0474627376001,-0.287916655854,-0.0906702516936,-0.0906894143608,0.139622295591,0.0902795777774,-8.65035820007,0.521022379398,-1.3166590929,-0.75052690506,-3.02278256416,0.00255613774061
2017/07/09/09:30:19.360917,220402,1499563822,159612891,,0.840893728221,0.157244975359,0.179041114551,0.731311860255,0.673265827712,0.0465723432759,0.0986260874618,-0.0479931927689,-0.330990862755,-0.0999025634994,-0.0796293149001,0.120077771952,-0.0960280878568,-8.57524776459,0.537426352501,-1.43638408184,-0.729168653488,-2.99863290787,0.00935902446508
2017/07/09/09:30:19.370730,220403,1499563822,169608613,,0.8403749407,0.154594292212,0.178708814884,0.732108479591,0.672416454817,0.0459079598139,0.0988217821541,-0.0456160278265,-0.317619954556,-0.114133642378,-0.0779828472598,0.105233729216,-0.214465098927,-8.46765804291,0.559481322765,-1.05217385292,-0.75670081377,-2.89219045639,0.00497215986252
2017/07/09/09:30:19.380760,220404,1499563822,179611356,,0.840210616718,0.152241062367,0.177246100832,0.732365521946,0.672172216538,0.0453067827509,0.0988562037315,-0.0325311319366,-0.290801013035,-0.104403001182,-0.0929794393779,0.0684834088992,-0.252971177014,-7.70020723343,1.20883870125,-0.815390229225,-0.903808474541,-2.57490873337,0.0112195126712
2017/07/09/09:30:19.391114,220405,1499563822,189608662,,0.840443179976,0.148687591737,0.177123108618,0.732514236004,0.671863606038,0.0449775797262,0.0999960311966,-0.0279453081907,-0.324282043834,-0.0946081407213,-0.151891974851,0.0545400821276,-0.158848799688,-7.6364402771,1.025406003,-0.262435972691,-0.793133616447,-2.65484976768,0.0246364586055
2017/07/09/09:30:19.400761,220406,1499563822,199604793,,0.83958136783,0.145487628185,0.175716867818,0.732689275424,0.671806363732,0.0436972219809,0.0996653807418,-0.0350859538625,-0.304480680387,-0.0925395713366,-0.16078908406,0.0837089031431,-0.0201887728567,-8.35647964478,0.695306897163,-1.24696457386,-0.691014885902,-3.03579163551,0.0700937882066
2017/07/09/09:30:19.411026,220407,1499563822,209614706,,0.839663669108,0.14246482084,0.175084143323,0.732270032569,0.672145218036,0.0424960817036,0.100972710732,-0.0298688403093,-0.313445604476,-0.0949269840458,-0.206783921204,0.0870178509758,0.00126112410901,-7.92559051514,0.0494834855199,-1.44729733467,-0.457926750183,-3.00688409805,0.112917594612
2017/07/09/09:30:19.420864,220408,1499563822,219613489,,0.839098559608,0.138851388947,0.173997288892,0.732692857486,0.671714336404,0.0413965046862,0.101229226302,-0.0275221305345,-0.312349714084,-0.09608883293,-0.212957000332,0.081742964296,-0.0132022885283,-7.25549173355,0.0157546773553,-1.56861507893,-0.143073290586,-2.76070570946,0.19100753963
2017/07/09/09:30:19.430745,220409,1499563822,229608312,,0.838585774357,0.136328004651,0.172512779743,0.73284384508,0.671629826819,0.0404611506944,0.101075069826,-0.0297114522628,-0.295726510391,-0.108308104856,-0.170467738323,0.0804927502608,-0.0350650892651,-7.04740381241,0.204692006111,-1.5654078722,-0.128035366535,-2.56171798706,0.119045674801
2017/07/09/09:30:19.440799,220410,1499563822,239613299,,0.838976561313,0.134353234587,0.171642184373,0.732966115332,0.67142545428,0.0404003414546,0.101569412377,-0.0172379207168,-0.273973008734,-0.0917029786899,-0.15040152685,0.0448085680254,-0.0513353422529,-7.0811715126,0.883851110935,-1.2767945528,-0.228783339262,-2.56256961823,0.138571798801
2017/07/09/09:30:19.450856,220411,1499563822,249607899,,0.838777204815,0.131832609694,0.170695866599,0.733874235918,0.670488352728,0.0404432507702,0.101184574809,-0.0188004017108,-0.248003774275,-0.103668384661,-0.057373998411,0.0432260026036,-0.111898972045,-6.95674943924,0.629039466381,-0.659135222435,-0.243586778641,-2.4873688221,0.160740703344
2017/07/09/09:30:19.460819,220412,1499563822,259608972,,0.837982855122,0.12905669051,0.169483013192,0.734279471541,0.670138438236,0.0394566971153,0.100951970387,-0.0179479778528,-0.239765508724,-0.0908697126697,-0.00659023710988,0.0368151735747,-0.154580449355,-8.22355747223,0.564401984215,-0.75816744566,-0.270434707403,-2.88767051697,0.221312388778
2017/07/09/09:30:19.470837,220413,1499563822,269615137,,0.838649547473,0.129194177305,0.16945741732,0.733905901949,0.670480651947,0.0402869641392,0.101068209494,-0.029689696535,-0.229235969859,-0.0901719178194,0.017099975275,0.060422694834,-0.172893504068,-7.84022951126,1.52479660511,-0.27233684063,-0.466989845037,-2.85426807404,0.159548670053
2017/07/09/09:30:19.481049,220414,1499563822,279618757,,0.838118794737,0.125873707437,0.168677916637,0.735150946954,0.669162058275,0.0396079059633,0.101026920888,-0.0228200448874,-0.235978047697,-0.0991327628448,0.00868483181239,0.0507254402302,-0.185385639725,-7.03592586517,1.12849473953,-0.764540493488,-0.48666203022,-2.5856192112,0.11388168484
2017/07/09/09:30:19.490852,220415,1499563822,289609314,,0.837969245607,0.123746868728,0.167853662455,0.736393110725,0.667862052154,0.0398445550378,0.100488194345,-0.0209828598157,-0.231681947742,-0.0802917401024,0.0278453626608,0.0357384976726,-0.230623362185,-7.32309627533,0.300709247589,-0.703434407711,-0.21077503264,-2.71475028992,0.217762410641
2017/07/09/09:30:19.500717,220416,1499563822,299623408,,0.837731343044,0.120874977051,0.167003730831,0.737131686203,0.66705360924,0.0396456857025,0.100521536007,-0.010628093745,-0.201300273039,-0.0757485993632,0.0670043693861,0.0223022779395,-0.245487544054,-6.03116703033,-0.545602858067,-0.746870100498,-0.0201143100858,-2.20684838295,0.206289440393
2017/07/09/09:30:19.511125,220417,1499563822,309609650,,0.837540871235,0.118912764665,0.166190254296,0.738074972243,0.666069985959,0.038986495708,0.100380089189,-0.0239315626844,-0.251426309279,-0.0715099733861,0.0266554746276,0.0441300725085,-0.32211411604,-6.45998001099,0.0639288499951,-0.979671359062,-0.101738274097,-2.41695284843,0.236790180206
2017/07/09/09:30:19.520870,220418,1499563822,319619405,,0.837242361477,0.116858836929,0.165017017099,0.739344122797,0.664776905276,0.0391503569881,0.0995448835657,-0.0277469264313,-0.23964049246,-0.0818690626184,0.0329334297206,0.0652783549436,-0.315924275815,-6.12485647202,0.540630102158,-1.33716404438,-0.283044815063,-2.32271194458,0.109697714448
2017/07/09/09:30:19.531043,220419,1499563822,329614548,,0.83715420458,0.115456299143,0.164334268503,0.739857741672,0.664262548729,0.0389142368111,0.0992545747988,-0.0120684777368,-0.225866481885,-0.071530224254,0.0463410042085,0.0285620876494,-0.30514751792,-6.19135570526,1.67117846012,-1.24066233635,-0.410524845123,-2.38155698776,0.145438358188
2017/07/09/09:30:19.540795,220420,1499563822,339612931,,0.836844919118,0.113041713722,0.163616577891,0.741270134722,0.662752304996,0.0386894456086,0.0988994256345,-0.018574842997,-0.199267340013,-0.0638994938301,0.0466748774555,0.0568274032118,-0.268442159185,-6.6880774498,1.04788327217,-0.976945698261,-0.515519142151,-2.51784133911,0.0435459911823
2017/07/09/09:30:19.550815,220421,1499563822,349611108,,0.837611510137,0.112203601277,0.163715470959,0.741454922756,0.662472983788,0.0392069440578,0.0991814438832,-0.00614580271796,-0.211177470867,-0.0663118659353,0.0355317680126,0.0353487677852,-0.283320214448,-6.14772796631,1.17487514019,-0.186112865806,-0.417019933462,-2.34334087372,0.0630471780896
2017/07/09/09:30:19.560846,220422,1499563822,359617236,,0.837029300638,0.109031482123,0.162476202713,0.742973733859,0.660842493833,0.0386268391673,0.0989201518257,0.0148164466744,-0.209632085874,-0.0505859497529,0.0414566700367,-0.0222812482617,-0.268445856717,-6.077252388,0.684900164604,-0.490641236305,-0.245608687401,-2.32196569443,0.142252475023
2017/07/09/09:30:19.570781,220423,1499563822,369605928,,0.837286993606,0.106623148142,0.162549306758,0.744210186859,0.65942881157,0.0388616113183,0.0989677493578,0.00571031826565,-0.224223025929,-0.0605755071055,0.043703296702,-0.00196817182132,-0.300876098745,-5.76854038239,0.458892971277,-0.412106066942,-0.167285233736,-2.23609876633,0.141613945365
2017/07/09/09:30:19.580901,220424,1499563822,379613671,,0.83760411926,0.104411551159,0.161992165965,0.744803179675,0.658722685229,0.0388745890201,0.0992039003224,0.0271441697786,-0.206686192629,-0.040029468583,0.0622175357264,-0.0516885642368,-0.299167104751,-5.38385772705,0.318800419569,-1.06937098503,-0.220236957073,-2.09082269669,0.13111564517
2017/07/09/09:30:19.590860,220425,1499563822,389606771,,0.838035359614,0.102954929754,0.161926133352,0.745180261169,0.658280483934,0.0390863794609,0.0992241793932,0.0174253699203,-0.199486166549,-0.0460642089802,0.0558271041619,-0.0200251345318,-0.262874165262,-4.90365886688,0.47401034832,-0.565915942192,-0.325883626938,-1.94513630867,0.0670821368694
2017/07/09/09:30:19.600939,220426,1499563822,399612546,,0.838185459535,0.102279141059,0.161342464077,0.745410577868,0.658083507815,0.0396498211145,0.0985751430647,0.0155767746707,-0.211654201698,-0.0457251310032,0.0387022845107,-0.00490125354795,-0.219584309973,-4.91801023483,1.0317773819,-0.849016189575,-0.433279246092,-1.96994388103,0.0528667345643
2017/07/09/09:30:19.610636,220427,1499563822,409608025,,0.838235809985,0.0993910818859,0.161001342363,0.744979619583,0.658554337059,0.0391815850112,0.0988754516698,0.0185308874269,-0.179863905749,-0.0488005479422,0.0487776014467,0.011473970319,-0.0049453521737,-5.19605016708,0.397325754166,-1.06795752048,-0.439948320389,-2.10653352737,0.0423240289092
2017/07/09/09:30:19.620795,220428,1499563822,419609372,,0.837558277463,0.0975509998861,0.159833723689,0.744120511643,0.659709595812,0.038305276314,0.0979827492525,0.0171281728697,-0.203139167411,-0.0356627996188,-0.0214802643211,0.0287747299621,0.184187041833,-5.05331087112,1.09471642971,-1.10339283943,-0.664468467236,-2.19200849533,-0.12592446804
2017/07/09/09:30:19.631140,220429,1499563822,429613647,,0.838469384862,0.0950899117914,0.160733622174,0.745155238965,0.658371599927,0.0387640764589,0.0989335768529,0.0109544932936,-0.21875193338,-0.0189580358181,-0.0496370253018,0.0301493085775,0.0693156172148,-5.41451120377,0.968919038773,-0.724185585976,-0.607798755169,-2.37554359436,-0.0960326492786
2017/07/09/09:30:19.640600,220430,1499563822,439610986,,0.838864354995,0.0925453354794,0.160424053333,0.746147414894,0.657172193257,0.0391402626207,0.0992813350937,0.0217065132361,-0.225750981904,-0.00925648163237,-0.0184269060174,-0.0286955182342,-0.157347115145,-3.94974017143,0.774337291718,-0.561219990253,-0.496511876583,-1.88349199295,-0.0909305512905
2017/07/09/09:30:19.650604,220431,1499563822,449605989,,0.838897476265,0.0907573378865,0.160057597236,0.746617255896,0.65664424893,0.0387574532255,0.0993924713719,0.0366306483442,-0.242265645215,-0.0193091546501,-0.0197001328463,-0.0726527982591,-0.264951050263,-3.38505196571,0.689832746983,-0.953669071198,-0.51635658741,-1.59920990467,-0.14780074358
2017/07/09/09:30:19.660926,220432,1499563822,459622471,,0.839518466455,0.0895758915405,0.159744578982,0.747060672761,0.656120689171,0.0394096268765,0.0992616429695,0.0425998740146,-0.20632415338,-0.022493285329,0.0103884865489,-0.071668876385,-0.21674496678,-3.39438462257,1.79324066639,-1.64167582989,-0.73388838768,-1.66831886768,-0.209958940744
2017/07/09/09:30:19.670943,220433,1499563822,469611355,,0.839525217847,0.0875852609607,0.159232982593,0.747692256606,0.65544352593,0.0393720891787,0.0989945065246,0.0308475106254,-0.191038359084,-0.042305395019,0.0367024855089,-0.0349767018899,-0.203664021266,-3.32340836525,0.965237259865,-2.00140976906,-0.584113776684,-1.63260746002,-0.204378515482
2017/07/09/09:30:19.680986,220434,1499563822,479627988,,0.83988363504,0.0853493887644,0.158816435309,0.748355411194,0.654656480169,0.0395179213044,0.0991332709292,0.0233915621211,-0.224690974125,-0.0415201266071,0.024255182129,-0.0239681628295,-0.18319724157,-4.16757535934,1.42418181896,-1.72188413143,-0.627580881119,-1.97267448902,-0.185050517321
2017/07/09/09:30:19.690568,220435,1499563822,489606636,,0.840463097338,0.0830954055774,0.159035697259,0.748511921174,0.654386605191,0.0395364707118,0.0997243314883,0.0338255959758,-0.186632846635,-0.0232717700316,0.0413629118413,-0.0421455362207,-0.105093597159,-3.94262933731,1.24213016033,-0.794104337692,-0.597212255001,-1.88220787048,-0.178756803274
2017/07/09/09:30:19.700716,220436,1499563822,499605697,,0.840564955878,0.0818052373937,0.158422117575,0.748857391488,0.654050196117,0.0398716306021,0.0992028288177,0.0265814320636,-0.185190905796,-0.0319541584796,0.0185978657787,-0.0165313060835,-0.0853432896758,-3.45377039909,1.20625710487,-1.2618625164,-0.619366526604,-1.70290029049,-0.205666080117
2017/07/09/09:30:19.710729,220437,1499563822,509606849,,0.84066050631,0.079304501875,0.158195281271,0.749075060687,0.653800677513,0.0396098948113,0.0993090316765,0.0397725084681,-0.204966078396,-0.0180978756943,0.00574952197167,-0.0453378012361,-0.0974387595264,-3.17442464828,0.818493962288,-1.06101119518,-0.527264118195,-1.53081083298,-0.262732714415
2017/07/09/09:30:19.721102,220438,1499563822,519607796,,0.841475009542,0.0786660591333,0.158151640733,0.748626302729,0.654261921015,0.0402950036086,0.0993796269663,0.0256314531691,-0.198305205866,-0.00993459777131,0.0022974266073,-0.0145113942838,-0.0318901713267,-3.01743268967,1.33170986176,-1.02212679386,-0.596929907799,-1.58334112167,-0.244334995747
2017/07/09/09:30:19.730674,220439,1499563822,529609096,,0.841556789135,0.0758649836458,0.158442810217,0.748583221796,0.654253318003,0.0396874774287,0.10000330026,0.0344833556262,-0.177689442809,-0.0176464540539,-0.0251808977039,-0.00984963805117,0.0589430275843,-2.83416366577,0.806790232658,-1.04400873184,-0.539189636707,-1.48923373222,-0.264390826225
2017/07/09/09:30:19.740823,220440,1499563822,539607391,,0.841706437603,0.0736632990933,0.157673984559,0.748146111582,0.654742340769,0.0392186221034,0.100258478993,0.039320844668,-0.179881845747,-0.0201515400863,-0.0375119174155,-0.0271050691965,0.074119997611,-3.15598273277,0.164697051048,-1.65296339989,-0.406357884407,-1.5188035965,-0.244020104408
2017/07/09/09:30:19.750817,220441,1499563822,549613635,,0.842093855861,0.0721543663574,0.157434638514,0.748100642518,0.654798866152,0.0395024683562,0.100117074187,0.0121784242262,-0.208905502144,-0.0352094210674,-0.0617434147275,0.0332746458811,0.0832491426515,-2.29397082329,0.407779633999,-1.38166201115,-0.369016706944,-1.21550130844,-0.262819886208
2017/07/09/09:30:19.760836,220442,1499563822,559611039,,0.842422307308,0.0705109284626,0.157365547357,0.7473098069,0.655672626436,0.0394048784925,0.10034298682,0.00663340069787,-0.203107256895,-0.0386916183492,-0.0484555922292,0.053315630037,0.13572572543,-2.6854186058,1.46596133709,-1.05457854271,-0.605018377304,-1.34652018547,-0.315926373005
2017/07/09/09:30:19.770614,220443,1499563822,569608778,,0.841545839116,0.0683460432507,0.156143529781,0.746880038437,0.656379010987,0.0383519332986,0.0993273946697,0.0200056890797,-0.165111746681,-0.0182121700664,-0.064694915496,0.043790362413,0.224041307384,-3.01484274864,0.397635668516,-1.46186494827,-0.42889291048,-1.383425951,-0.225637540221
2017/07/09/09:30:19.780661,220444,1499563822,579609566,,0.841778318711,0.0667897217952,0.156667917351,0.745755985101,0.657631864245,0.0381223518157,0.0995742341596,-0.000257050803897,-0.184405291942,-0.0220739485863,-0.0597551368148,0.0930160476575,0.239844411178,-3.55038547516,0.883019089699,-1.05068039894,-0.508873939514,-1.65646958351,-0.268005937338
2017/07/09/09:30:19.790811,220445,1499563822,589606607,,0.84159247111,0.0649927027668,0.156428640997,0.744392222424,0.65922572707,0.0371954295216,0.0995899592623,-0.018043228939,-0.190342970806,-0.0277652315052,-0.0569719147916,0.134858955603,0.275896046667,-2.97014594078,0.944905281067,-1.3046438694,-0.577176213264,-1.57322883606,-0.288560807705
2017/07/09/09:30:19.800719,220446,1499563822,599616908,,0.841475040318,0.0639134600103,0.156020734606,0.743333330512,0.660532937312,0.0370712956668,0.0988813304607,-0.0432115022883,-0.21006370668,-0.0434637726588,-0.0820757337982,0.196986917044,0.311924252237,-2.24880027771,1.15016674995,-1.08122074604,-0.550530672073,-1.35762107372,-0.294693350792
2017/07/09/09:30:19.810906,220447,1499563822,609645286,,0.841280906994,0.0609606765085,0.155875369065,0.742005035006,0.662039669293,0.0361509311287,0.0991217155151,-0.0149206518223,-0.200569712403,-0.0105392082906,-0.0943271961917,0.126768219242,0.368046725298,-2.05046868324,0.431683152914,-1.06328439713,-0.401817023754,-1.24996125698,-0.244064614177
2017/07/09/09:30:19.820637,220448,1499563822,619610003,,0.841130877301,0.0602166108685,0.155638798309,0.740693534338,0.663633620447,0.0360112710525,0.0983193488574,-0.0138805766906,-0.182381911653,-0.0146914438061,-0.0728362265079,0.131297070067,0.419909832726,-1.2570912838,0.853791475296,-1.49541056156,-0.477990210056,-0.928587019444,-0.253931462765
2017/07/09/09:30:19.830874,220449,1499563822,629635809,,0.840848244775,0.0583363343121,0.154919125402,0.739108356879,0.665513534174,0.0351010199136,0.0978697656295,-0.0164341598385,-0.1755143732,-0.0363866372212,-0.0554692089246,0.154150931442,0.43983135802,-0.826827824116,0.71431851387,-1.54543852806,-0.415672212839,-0.700636148453,-0.234862536192
2017/07/09/09:30:19.840992,220450,1499563822,639616607,,0.840043005472,0.0556201410809,0.154898642896,0.737812938214,0.667052759138,0.0338814377717,0.0975947380985,-0.0372150958478,-0.201183010086,-0.0376647149436,-0.0915813645033,0.196103785475,0.479729634182,-0.906767964363,0.891003012657,-1.1147108078,-0.427472710609,-0.67394733429,-0.172948375344
2017/07/09/09:30:19.851170,220451,1499563822,649607376,,0.839981763466,0.053402000271,0.154735610671,0.735874251883,0.669215861322,0.0330844466372,0.0976966517432,-0.0364717154254,-0.195783475215,-0.0280251060856,-0.117284122225,0.206152795315,0.559873596666,-1.95027053356,0.364136993885,-1.11613464355,-0.412272155285,-0.947889626026,-0.198803275824
2017/07/09/09:30:19.860800,220452,1499563822,659614189,,0.839708485877,0.0529838342516,0.154238360769,0.733506102114,0.671971183106,0.0325201654374,0.0967779214326,-0.0460490554472,-0.202815423777,-0.0310113303471,-0.123796417105,0.236981405208,0.579690683711,-2.18200135231,1.48618268967,-1.03287029266,-0.522538125515,-1.08250284195,-0.200571924448
2017/07/09/09:30:19.870667,220453,1499563822,669607168,,0.838680992035,0.0498449361817,0.154032456889,0.731679352169,0.674101371293,0.0306334120984,0.0964067471339,-0.0459473753166,-0.211372168689,-0.0191162778704,-0.142717612835,0.241432781738,0.595910529728,-2.57626128197,0.562318921089,-0.445657432079,-0.262677967548,-1.15499091148,-0.128249973059
2017/07/09/09:30:19.880651,220454,1499563822,679613149,,0.838105540258,0.0485868303606,0.153553625828,0.729403112957,0.676704940328,0.0293977650011,0.095798193915,-0.0722361917413,-0.224755596685,-0.0288839876607,-0.157721401667,0.289335267993,0.60503807432,-2.79431271553,1.55069208145,-0.662448048592,-0.523910105228,-1.24593067169,-0.205586344004
2017/07/09/09:30:19.890748,220455,1499563822,689604648,,0.837329296204,0.0458371915911,0.153237595007,0.727743378468,0.678628981946,0.0285723451502,0.0950573566408,-0.0686712333315,-0.217275757954,-0.0160028702497,-0.130247670772,0.272067075384,0.610607364771,-2.09059453011,0.522204399109,-0.888732790947,-0.295120924711,-0.955993056297,-0.125930517912
2017/07/09/09:30:19.900829,220456,1499563822,699612922,,0.836468768454,0.0441022274457,0.152861028128,0.725676013931,0.681012018929,0.0273057149439,0.0941878485337,-0.0664438022498,-0.211182870785,-0.0156465103295,-0.0910682196346,0.260156818281,0.597376401233,-1.78825545311,0.92724943161,-0.695290386677,-0.420910090208,-0.791831195354,-0.165649309754
2017/07/09/09:30:19.910851,220457,1499563822,709608327,,0.836316835178,0.0417048346586,0.153001907454,0.724621163976,0.682175744255,0.0270831310686,0.093951725268,-0.0686127347724,-0.189482470078,-0.0299969293157,-0.0789007720369,0.273118456577,0.59357155954,-1.62056648731,0.46966958046,-0.277311205864,-0.40551763773,-0.728149235249,-0.116097778082
2017/07/09/09:30:19.920923,220458,1499563822,719613554,,0.835562761117,0.0394684440455,0.152880985369,0.723521276509,0.683428612394,0.0259954474249,0.0936297544252,-0.0486080085122,-0.208503984877,-0.0175918579221,-0.0684380535333,0.208747545464,0.48247063379,-2.30711650848,0.528318226337,-0.16626521945,-0.323703587055,-0.913735985756,-0.0877546742558
2017/07/09/09:30:19.930872,220459,1499563822,729611795,,0.835401828866,0.0374404766056,0.152994048976,0.722501784418,0.684552173,0.0258050454282,0.0933466313456,-0.0492108577898,-0.217004938277,-0.00595271286241,-0.0707779421793,0.18790483015,0.360052107443,-3.03376698494,0.664626061916,-0.275903373957,-0.316680073738,-1.10346794128,-0.0595176368952
2017/07/09/09:30:19.940745,220460,1499563822,739612757,,0.834503156912,0.0360849057122,0.152593334443,0.720615293658,0.686703464414,0.0246237624013,0.0924425271916,-0.0513304298242,-0.216014040465,-0.00765914600331,-0.0699359370579,0.184611818102,0.342542699306,-2.11755800247,1.47368383408,-0.115631386638,-0.411507636309,-0.74042069912,-0.140020504594
2017/07/09/09:30:19.950926,220461,1499563822,749608494,,0.834520974258,0.0333115011316,0.153196198642,0.719471922796,0.687871107649,0.0243021963801,0.0927517914638,-0.0489157789387,-0.22033646134,-0.0151063276858,-0.0751524856505,0.176741820745,0.419894811136,-2.35011863708,-0.00338341295719,-0.028034299612,-0.125561013818,-0.759341657162,-0.0327207148075
2017/07/09/09:30:19.960804,220462,1499563822,759613707,,0.833960950032,0.0316491782176,0.152724586046,0.716829306315,0.690772549835,0.0236652273777,0.0918095148464,-0.0550166584262,-0.231980706616,-0.000221844216095,-0.0920634710531,0.195708204153,0.53921398755,-2.03863716125,0.757287204266,-0.609711885452,-0.313082426786,-0.806817293167,-0.0600775070488
2017/07/09/09:30:19.970928,220463,1499563822,769622804,,0.833269203702,0.0301064328803,0.152365769571,0.71479814022,0.69299734442,0.0228385648306,0.0910862191636,-0.0534839394339,-0.184840091209,-0.00446360816061,-0.0620215073102,0.220282882938,0.641729613576,-2.12638735771,1.18334150314,-0.676693022251,-0.528737306595,-0.929843425751,-0.103519245982
2017/07/09/09:30:19.980807,220464,1499563822,779612024,,0.833052549954,0.0275533555916,0.152449519439,0.712721603398,0.695148192119,0.0223618674636,0.0910870678355,-0.0467777173341,-0.202478147196,-0.0118831264818,-0.078053665011,0.198276886128,0.624562861829,-1.75149536133,0.899092674255,-0.469123542309,-0.566514492035,-0.799886703491,-0.0564440153539
2017/07/09/09:30:19.990814,220465,1499563822,789606440,,0.832452883061,0.0247907124737,0.152455851232,0.711025494306,0.696942806537,0.0215571451109,0.090822686359,-0.0353950592562,-0.221719177898,-0.00331139647002,-0.0635017375457,0.139310011138,0.588418297773,-1.53578722477,0.626103639603,-0.3445789814,-0.500000834465,-0.689957201481,-0.0187290236354
2017/07/09/09:30:20.000781,220466,1499563822,799612333,,0.832136908161,0.023295637253,0.152616922659,0.709292992541,0.69877814517,0.0212338326633,0.0903420107957,-0.0337413210607,-0.201719925699,-0.00422011586226,-0.0539169800486,0.135388451189,0.597552186897,-2.37196397781,0.261518478394,0.0110516203567,-0.509070932865,-0.922312796116,0.0172568913549
2017/07/09/09:30:20.010884,220467,1499563822,809606410,,0.832199467416,0.0219906837076,0.152132884937,0.707131564527,0.70097163654,0.021179243341,0.0903058960854,-0.0313686139904,-0.22167141514,0.00097192255517,-0.108026542949,0.123486894117,0.57014037029,-1.94646906853,0.79411137104,-0.327938020229,-0.518982708454,-0.710713505745,-0.00372752640396
2017/07/09/09:30:20.020736,220468,1499563822,819604939,,0.831837330427,0.0187559271424,0.152451331428,0.70555809767,0.702531283958,0.0204043991019,0.0906709786515,-0.0130218040218,-0.224952517582,0.00819693256221,-0.109189225916,0.0725548743331,0.537115294993,-1.45521020889,0.196107059717,-0.0960026457906,-0.286536455154,-0.43238684535,0.00691361632198
2017/07/09/09:30:20.030623,220469,1499563822,829604203,,0.831562493716,0.0172648730273,0.152175147492,0.704480803501,0.703720310598,0.0206580741324,0.0897650595909,-0.00486418530628,-0.206446796567,0.0120704851856,-0.0608741545073,0.0500549521025,0.500888461204,-1.75723981857,0.436267256737,-0.563423991203,-0.576925992966,-0.578255653381,-0.0929204821587
2017/07/09/09:30:20.040571,220470,1499563822,839607101,,0.832175116677,0.0180045273628,0.152933761424,0.70312934345,0.705180270541,0.0229996778552,0.0883228579571,-0.0168175245306,-0.151676723987,-0.00750936517595,0.143822497063,0.0599483051925,0.429890248869,-1.65784323215,1.96175050735,-0.240606233478,-0.783243656158,-0.814922809601,-0.0885662361979
2017/07/09/09:30:20.050838,220471,1499563822,849610196,,0.832339827037,0.0177278516301,0.152781413059,0.702491819767,0.705939135773,0.0249866358949,0.0867804573084,0.00917961838019,-0.0363690459179,0.00112302091825,0.421694239786,-0.0169945850501,0.297042531747,-2.2657866478,1.45772409439,-0.543762028217,-0.801415681839,-1.03499889374,0.061361849308
2017/07/09/09:30:20.060716,220472,1499563822,859604735,,0.832467047067,0.0161455744232,0.152972348219,0.702594118526,0.705852984527,0.0260616606576,0.0863357324097,0.00294221572464,-0.0276414397716,-0.00498589075263,0.497257495316,-0.0254097124946,0.212629355909,-1.01324784756,0.273827075958,-0.374448060989,-0.781676709652,-0.598367512226,0.145988851786
2017/07/09/09:30:20.070823,220473,1499563822,869606654,,0.832411352555,0.0166261241176,0.152665855485,0.701436049492,0.707146708464,0.0270650388623,0.084843885177,-0.00827937381769,-0.0744289942869,-0.00089917564747,0.393772080026,-0.00624974057666,0.151156682423,-0.29406312108,0.519619822502,-0.591355741024,-1.02448487282,-0.32066193223,0.0797736346722
2017/07/09/09:30:20.081054,220474,1499563822,879615985,,0.832023879652,0.0140037453753,0.153015939357,0.70132605447,0.707280221643,0.0272256955894,0.0845885033162,0.00624943309076,-0.101668297531,0.0138765667898,0.237946690749,-0.0318998644009,0.190340496538,-0.536784887314,-0.516941726208,-0.302643895149,-0.763371169567,-0.269959926605,0.05645763129
2017/07/09/09:30:20.090888,220475,1499563822,889609624,,0.832488432349,0.0133015879064,0.153123850465,0.700198450586,0.708387367028,0.0278577939315,0.0844595249153,0.00829004632423,-0.130482224792,0.0200618366161,0.118672030744,-0.0276513034558,0.158929530241,-1.1094943285,-0.0792474150658,-0.39851719141,-0.738301932812,-0.568733334541,-0.020475924015
2017/07/09/09:30:20.101011,220476,1499563822,899609384,,0.832880155784,0.0123305060734,0.153055179182,0.700951679808,0.707642443374,0.0295046052543,0.0838951320311,0.0258445085704,-0.1081234623,0.0140572771774,0.138069986411,-0.0514959444223,0.129159463,-1.83566975594,0.0512520521879,-0.704969882965,-0.658905148506,-0.785108864307,0.0606263875961
2017/07/09/09:30:20.111338,220477,1499563822,909606991,,0.833197272639,0.0111738359035,0.153269723716,0.70079431201,0.707791340097,0.0302126084035,0.0837015497561,0.0397956063496,-0.120908979346,0.01661358612,0.177398360532,-0.110899578032,0.0142921308886,-1.59863269329,0.812216222286,-0.542685687542,-0.621258378029,-0.594927310944,0.0878144726157
2017/07/09/09:30:20.120743,220478,1499563822,919609475,,0.833956824718,0.0107663117886,0.153242739358,0.701052820338,0.70749480673,0.0317058881081,0.0834911863939,0.0509934137708,-0.114331514991,0.0156618149601,0.196681761806,-0.14786158612,-0.0540928813603,-1.73684239388,0.590265989304,-0.422870308161,-0.421170473099,-0.444120466709,0.127726197243
2017/07/09/09:30:20.130796,220479,1499563822,929607073,,0.834548522936,0.00788758798332,0.154286918307,0.70159826313,0.706798443412,0.0322369675559,0.0845967817753,0.0599056193121,-0.126644656648,0.0309368087268,0.13610988195,-0.168862011322,-0.054432268363,-0.955979883671,0.0595843493938,0.767951190472,-0.24818944931,-0.123939685524,0.00673420168459
2017/07/09/09:30:20.141045,220480,1499563822,939605849,,0.834688090259,0.00664732077268,0.153992531016,0.702223764627,0.706192633266,0.032608113333,0.0843235439155,0.0441425515488,-0.153617687383,0.0317162995494,0.0977828112915,-0.135713118429,-0.101083282234,-1.42904734612,0.259783089161,0.0314040668309,-0.475784927607,-0.326856970787,-0.105542801321
2017/07/09/09:30:20.150868,220481,1499563822,949610312,,0.835149409032,0.00535707606187,0.154512049349,0.703064124626,0.705321063415,0.0335142413906,0.0842604877154,0.0374460709466,-0.145483592247,0.0335730681107,0.122779946629,-0.118771638543,-0.169683039431,-2.20574784279,0.524814963341,-0.43882599473,-0.60020917654,-0.765457630157,-0.0787664204836
2017/07/09/09:30:20.160883,220482,1499563822,959634322,,0.835651604014,0.00536181381301,0.1548182582,0.704154422136,0.704244220998,0.0353009041494,0.0834294501007,0.0357981932055,-0.103285488334,0.0192294013593,0.2029816282,-0.103189514227,-0.221403149276,-1.44424009323,0.177446559072,-0.371392756701,-0.404930084944,-0.660227179527,0.0253795199096
2017/07/09/09:30:20.171346,220483,1499563822,969606197,,0.835642578182,0.0043226691575,0.154453425687,0.704839172116,0.703609030678,0.0358881031334,0.0827533531178,0.0224658386173,-0.100872320218,0.010140894702,0.2310063748,-0.0783500272174,-0.228153306421,-0.781583249569,0.530101418495,-0.6838966012,-0.660615980625,-0.571619033813,-0.0456876568496
2017/07/09/09:30:20.180677,220484,1499563822,979611978,,0.835578103273,0.00314357596634,0.154448460069,0.705602012331,0.702880402991,0.0365261912667,0.0821631099491,0.0235612284786,-0.0962016341778,0.00521327587119,0.248331218073,-0.0837274488165,-0.244769535676,-0.147588029504,0.0224121659994,-1.01733577251,-0.661727786064,-0.45224109292,-0.130672499537
2017/07/09/09:30:20.190897,220485,1499563822,989609947,,0.835581530849,0.00268694409484,0.154146745999,0.704361951707,0.704174775044,0.036644645329,0.0816657648501,0.0122568200928,-0.110815376336,0.00164869497407,0.181974620148,-0.0504441572966,-0.0995692714099,-0.00230468064547,0.655092477798,-1.20781886578,-0.951235234737,-0.570473790169,-0.204445153475
2017/07/09/09:30:20.200883,220486,1499563822,999610370,,0.836270405576,0.00135195306337,0.154884286418,0.702813906655,0.705613620164,0.0373031847404,0.0822830727405,0.0234267746875,-0.083657820979,-3.99042991675e-05,0.0868110981964,-0.0248941545402,0.279801145159,1.01576030254,0.0478959828615,-0.802130579948,-0.920470476151,-0.231521964073,-0.275754332542
2017/07/09/09:30:20.210825,220487,1499563823,9610576,,0.836358836194,0.000269358618157,0.15433693327,0.70351406772,0.7049316354,0.0382768078948,0.0816959724171,0.0257559727556,-0.0856209157979,0.0011704042051,0.106680405843,-0.0441381902914,0.360458984379,1.22176146507,-0.380363702774,-1.09842026234,-0.686185956001,-0.0646317377687,-0.366562306881
2017/07/09/09:30:20.220905,220488,1499563823,19608179,,0.837455033753,0.000204566618309,0.154596724108,0.703727721627,0.704618500186,0.0400154513787,0.0817240886127,0.0402199703772,-0.103615007726,0.00184657886136,0.150222019866,-0.120364222982,0.0257624043563,2.06319069862,-0.154831469059,-0.43808478117,-0.525958120823,0.528815567493,-0.294530302286
2017/07/09/09:30:20.230714,220489,1499563823,29606353,,0.837992927699,-0.000160065009797,0.154484158673,0.704137985447,0.704163806889,0.0407521659738,0.0817452841834,0.0618860606889,-0.0953582126901,0.00518666398497,0.158352733378,-0.179430726413,-0.181326656683,2.69242072105,0.195843786001,-0.115897245705,-0.337518274784,0.992605805397,-0.182517886162
2017/07/09/09:30:20.240813,220490,1499563823,39605025,,0.837986705344,-0.00177375503907,0.154520848322,0.705046222682,0.703230960295,0.0414270690579,0.0816078324298,0.0549327899266,-0.0542579518619,-0.0212081939525,0.212292194439,-0.136799629033,-0.204920343334,0.552296340466,-0.47447013855,0.0618139021099,-0.230857938528,0.429854810238,-0.143399134278
2017/07/09/09:30:20.250733,220491,1499563823,49609544,,0.838124108442,-0.00246417035574,0.15412717995,0.705744244978,0.702555831483,0.0420368793693,0.0810756751589,0.0366443218267,-0.0813215925861,-0.00842855220432,0.169403153953,-0.0991918511209,-0.18567024129,0.0927138328552,0.205482318997,-0.0126043632627,-0.458496034145,0.274028897285,-0.254572957754
2017/07/09/09:30:20.260783,220492,1499563823,59613429,,0.838784905537,-0.00268285223236,0.154530427543,0.706423695395,0.701818994408,0.0433141837545,0.0808674418911,0.0369376359274,-0.0709997900463,-0.00302715838605,0.168774944498,-0.0880665221101,-0.140335965655,-0.643974006176,0.436826884747,0.365951567888,-0.562484204769,-0.0614331550896,-0.246392056346
2017/07/09/09:30:20.271028,220493,1499563823,69606937,,0.838872977289,-0.00277908209624,0.153795934319,0.706439998748,0.701856495864,0.04412084121,0.0799583563711,0.0155108985072,-0.062224723229,-0.00570206728623,0.201981875352,-0.0462945057378,-0.167665496493,0.043025970459,0.68936675787,-0.355341553688,-0.795435845852,0.0823757201433,-0.357680559158
2017/07/09/09:30:20.281057,220494,1499563823,79613247,,0.839353847833,-0.00334586795798,0.154390708178,0.707255718293,0.700983347483,0.0449440164032,0.079948301317,0.00846890860367,-0.0270331220262,-0.0272602008401,0.235576425425,-0.00509071923697,-0.12520501958,1.69093978405,0.360179781914,0.404599547386,-0.66667085886,0.547059595585,-0.351807653904
2017/07/09/09:30:20.290896,220495,1499563823,89605806,,0.839506649749,-0.00408043302152,0.154035617711,0.707673190563,0.700577088,0.0453682450093,0.0795746283193,0.0255735247987,-0.0229487667972,-0.00589507365727,0.193202412598,-0.0392848633937,-0.0914441657291,1.8351739645,-0.0746828019619,-0.0912221595645,-0.46493062377,0.432922691107,-0.330938905478
2017/07/09/09:30:20.300728,220496,1499563823,99610365,,0.838667370521,-0.00511926778518,0.153225323022,0.708606336074,0.699749180291,0.0453887096024,0.0785366805919,0.0184577546305,-0.0519163793671,-0.0153540154927,0.140220327623,-0.0308481778818,-0.115571517083,1.97344315052,-0.568110823631,-0.323851466179,-0.260794639587,0.50674790144,-0.279750078917
2017/07/09/09:30:20.311176,220497,1499563823,109620763,,0.839222058489,-0.00538639687337,0.153407631632,0.708705978186,0.699592050782,0.0457657790119,0.0788180971445,0.0181470944971,-0.0680501496233,-0.0169030188278,0.11755519275,-0.0474839059514,-0.133015355538,1.9232019186,-0.247584760189,-0.159293740988,-0.318806767464,0.484445571899,-0.309714019299
2017/07/09/09:30:20.320947,220498,1499563823,119615725,,0.83977704486,-0.00723026182706,0.153055193608,0.709189051701,0.698981648491,0.0461819136658,0.0796415398502,0.0315644146842,-0.0826285650375,-0.00775261325562,0.0552119118027,-0.0864449187936,-0.121645456077,1.7705821991,-0.944837808609,-0.314224421978,-0.116234987974,0.574025213718,-0.232335090637
2017/07/09/09:30:20.331145,220499,1499563823,129611497,,0.840233726467,-0.00638498823025,0.153159600032,0.709018166144,0.699157077285,0.0471345285885,0.0790629975083,0.042953038949,-0.0649652500261,-0.0128166308702,0.0752003468438,-0.112083094012,-0.0827680964043,1.90617096424,0.268497794867,0.253687918186,-0.218615859747,0.789363265038,-0.21610018611
2017/07/09/09:30:20.340785,220500,1499563823,139613543,,0.840668864111,-0.00729161761052,0.153161634324,0.709139823752,0.698959038396,0.0474489485412,0.0795334539389,0.0346849023351,-0.0355706135355,-0.0236679176985,0.0999688870682,-0.0728583886423,-0.0424854637847,1.15655660629,0.444491297007,0.174680799246,-0.3103697896,0.621164143085,-0.264468967915
2017/07/09/09:30:20.350806,220501,1499563823,149604950,,0.84116042492,-0.00706697933754,0.153078193881,0.708927377889,0.699136705416,0.048311018751,0.0793466160941,0.038372380484,-0.040378391824,-0.00532247544106,0.0613391027137,-0.0850009786098,-0.00442702539359,1.60927093029,0.462189793587,-0.0134854204953,-0.367623031139,0.799789607525,-0.319694250822
2017/07/09/09:30:20.360877,220502,1499563823,159613366,,0.841185983903,-0.0074054834927,0.15297899088,0.709001609515,0.699068679493,0.0487851545446,0.0789918208022,0.0302698626596,-0.0559636742972,-0.00954010963857,0.075487244779,-0.0835605545834,-0.0387191797037,1.40743935108,0.140712499619,0.228326693177,-0.340629309416,0.700292766094,-0.365350365639
2017/07/09/09:30:20.370786,220503,1499563823,169604517,,0.841097435834,-0.0079788741304,0.152631869203,0.709002132586,0.699088480406,0.048707157115,0.0788599099593,0.00157199785345,-0.0476884087789,-0.0290369174481,0.0778120246448,-0.00611124493056,0.00114216584025,2.4432516098,-0.110802799463,0.15634766221,-0.184464782476,1.05427694321,-0.342713028193
2017/07/09/09:30:20.381024,220504,1499563823,179605994,,0.84120064273,-0.00863448759755,0.152092376133,0.708641478456,0.699443505154,0.048855937256,0.0788614957014,-0.00509079724775,-0.0690597203012,-0.0440890913399,0.0476032540411,0.00701538105199,0.0220449035455,3.15500450134,-0.279922634363,0.191997304559,-0.161124125123,1.29562675953,-0.334534347057
2017/07/09/09:30:20.390612,220505,1499563823,189606092,,0.840702168679,-0.00902891176913,0.151637925254,0.708666240089,0.69949197771,0.0490110553131,0.0781092167112,0.00292314880914,-0.0590030655639,-0.0301495785632,0.0315231632861,-0.0145906885769,0.083588293703,2.77960300446,0.00518077611923,0.32600992918,-0.24632461369,1.16510558128,-0.323699444532
2017/07/09/09:30:20.400617,220506,1499563823,199608392,,0.841127625836,-0.00984401301368,0.151730136049,0.707987555449,0.700090091227,0.0491804265546,0.0787957558413,0.004162966159,-0.0258979431244,-0.0333487463126,0.0328164914833,0.00734441274048,0.126862437055,2.0960149765,-0.670524477959,0.359816491604,-0.0496193952858,0.877994954586,-0.177684247494
2017/07/09/09:30:20.410931,220507,1499563823,209610693,,0.840714283922,-0.0102075465073,0.150979983954,0.707669214222,0.700496809525,0.0489473606008,0.0781834955571,0.00359826300421,-0.0530949827459,-0.0109304589456,0.00301799003035,-0.0171344729079,0.109862793975,0.965351343155,0.0357825756073,-0.240058541298,-0.130319103599,0.453840464354,-0.142624944448
2017/07/09/09:30:20.420779,220508,1499563823,219613573,,0.841113498234,-0.00984123877423,0.151099034561,0.706612611036,0.701528272814,0.0492530262366,0.0782996792708,-0.0165041352196,-0.0644737388249,-0.0288870165873,-0.0238670192235,0.0297207645934,0.151261459177,1.20746731758,0.322861731052,0.0965516939759,-0.101588144898,0.443438529968,-0.108597673476
2017/07/09/09:30:20.430982,220509,1499563823,229610749,,0.84080363987,-0.0107335818297,0.151101931054,0.706208846284,0.701934492432,0.0491190711395,0.0783859082722,-0.00759652604639,-0.0441826084548,-0.033278089541,-0.0135699055786,0.0145760961518,0.205527653583,2.07325410843,-0.224962234497,-0.0732755362988,0.00587242096663,0.808895230293,-0.136966437101
2017/07/09/09:30:20.440644,220510,1499563823,239647495,,0.840826293043,-0.0112480526008,0.150102446154,0.705244978197,0.702920354138,0.0490361485562,0.0782812404175,-0.0125226994452,-0.0563327766138,-0.037871000746,-0.0341301990893,0.0193336987304,0.200391919515,2.11038398743,-0.241701543331,-0.275130063295,-0.0856760963798,0.915534257889,-0.20845015347
2017/07/09/09:30:20.450676,220511,1499563823,249605882,,0.8403399102,-0.0123405808891,0.149783781615,0.70494022371,0.703254801425,0.0487024082677,0.0782306889772,-0.0217295084319,-0.042350505915,-0.0386685949122,0.0175274026632,0.0328060138293,0.198085402895,1.01359212399,-0.597444236279,0.024777457118,-0.086678057909,0.525485336781,-0.143722593784
2017/07/09/09:30:20.460957,220512,1499563823,259608750,,0.840431717893,-0.0122928663156,0.149702749818,0.704109207583,0.704081030069,0.0489225486742,0.0781454485211,-0.0219732107916,-0.0479996157565,-0.0410811740559,-0.00491149956291,0.0403990968317,0.185009694064,0.327032953501,0.245870485902,0.0677726864815,-0.247864887118,0.276420563459,-0.145771980286
2017/07/09/09:30:20.470936,220513,1499563823,269612564,,0.839679071655,-0.0124480707844,0.148679380442,0.703026316895,0.705278026843,0.0483779187281,0.0774369394124,-0.0224097623727,-0.0239765179053,-0.0445996867582,-0.00836270185154,0.056305140394,0.260517540156,-0.28409832716,0.332670032978,0.434526383877,-0.339877337217,0.112078070641,-0.107393287122
2017/07/09/09:30:20.480818,220514,1499563823,279606283,,0.83998434696,-0.0118527757392,0.148733946507,0.702765211813,0.705533089854,0.0487070089926,0.0772770564971,-0.0163941692447,-0.0203212670824,-0.032807192219,0.00625378520672,0.0275668795698,0.21315278599,0.253557533026,0.910912752151,0.718350291252,-0.369688868523,0.308996021748,-0.155228987336
2017/07/09/09:30:20.490772,220515,1499563823,289606265,,0.840090805239,-0.0128071608635,0.148680836659,0.703104103906,0.705120016536,0.0489643362247,0.0778002257622,-0.000653233870212,-0.0378021836112,-0.00575151906945,-0.00630093910332,-0.0304121248742,0.0638757810734,0.497795462608,0.144807443023,0.852597892284,-0.201926141977,0.50891494751,-0.119696006179
2017/07/09/09:30:20.500670,220516,1499563823,299612363,,0.840057218495,-0.0131907288807,0.148699167566,0.703169222938,0.705055473441,0.0489569443022,0.0778012910417,-0.0095482076861,-0.0190728710835,-0.0314386280474,0.0319965804605,0.00734031021582,-0.00961997539784,1.9989824295,-0.559747815132,1.04465913773,0.0486503243446,1.04606866837,-0.0892946049571
2017/07/09/09:30:20.510765,220517,1499563823,309611816,,0.839204385622,-0.0141745431387,0.148347235048,0.703819445213,0.704479136637,0.0486457564987,0.0773364400383,-0.0218606248977,-0.0182655136265,-0.0253185550218,0.0396001165095,0.0262501264764,-0.0212435373734,2.2113711834,-1.81068491936,0.525050580502,0.306234270334,1.21793317795,-0.0752229243517
2017/07/09/09:30:20.520819,220518,1499563823,319613114,,0.839535114596,-0.0137245263664,0.148449337608,0.703233783825,0.705028853748,0.0489899001001,0.0774373963859,-0.0224084939169,-0.0398410862134,-0.0194098749327,0.0251150837004,0.0210199383597,-0.0643263090426,2.7297296524,-1.02760946751,0.882434725761,0.293308585882,1.27677071095,-0.0326882824302
2017/07/09/09:30:20.530696,220519,1499563823,329606843,,0.839256888308,-0.0138398386809,0.147607575853,0.702527533366,0.705778592496,0.0488023810262,0.0771360541107,-0.00999998148749,-0.0223680793526,0.00070340917521,0.0159419022393,0.00258389902735,0.0577957643869,0.680163741112,-0.346646845341,0.561955571175,-0.0113758742809,0.48345503211,-0.0523625053465
2017/07/09/09:30:20.540574,220520,1499563823,339612942,,0.839229257467,-0.0138063455197,0.148041529564,0.701550649133,0.706745243096,0.0489234753077,0.0770995565833,-0.016901767881,-0.0246576197595,-0.0176623687034,-0.0063703771712,0.0266389400537,0.183700341531,1.0768147707,-0.471932113171,0.707007586956,-0.0308554973453,0.6190751791,-0.0328378081322
2017/07/09/09:30:20.550568,220521,1499563823,349608717,,0.839319897891,-0.0147103340312,0.148215364012,0.701329184121,0.70692087607,0.0490393934769,0.0774298932177,-0.0156374505089,-0.0509165485339,0.000601042267832,-0.0570731837717,0.0129554994077,0.21358754563,0.860530078411,-0.109728723764,0.729274749756,-0.159805074334,0.526796281338,-0.075747475028
2017/07/09/09:30:20.560792,220522,1499563823,359613528,,0.838761349266,-0.0150294520539,0.147464527521,0.700405298919,0.707908725071,0.0483859792606,0.0771780488558,-0.00368920009458,-0.0323807494911,-0.000339575097436,-0.062961034462,-0.00178929578676,0.21221000507,0.569198012352,-0.495496630669,0.243320643902,-0.0571404024959,0.530899703503,-0.0184853095561
2017/07/09/09:30:20.570616,220523,1499563823,369613714,,0.83912284256,-0.0150415151742,0.147790980911,0.699735647484,0.708523822394,0.0483482066715,0.0776303268777,-0.019130372457,-0.0474031451206,-0.015344051639,-0.0522497997424,0.0243701476675,0.150864909897,2.29425096512,-0.237000197172,0.871544241905,-0.00427095871419,1.13765096664,-0.00612455233932
2017/07/09/09:30:20.580926,220524,1499563823,379613419,,0.838411091685,-0.0164364303909,0.147517957381,0.699591046698,0.708704574945,0.0478536764036,0.0775900669388,0.00153185593191,-0.016799381252,0.00274793701567,-0.0219098984906,-0.0158780601095,0.166083960606,1.58356046677,-0.812394201756,0.426855534315,0.117183148861,0.877626419067,0.067792057991
2017/07/09/09:30:20.593440,220525,1499563823,389607742,,0.83836006234,-0.0161090536751,0.147391283834,0.699351637246,0.708959629,0.0479011134218,0.0773887282628,-0.00559795309299,-0.0183602178001,0.000389843378759,-0.0232926148398,0.00395242391043,0.138950971468,1.47997796535,-0.932421922684,0.452921390533,0.1677813977,0.842849612236,0.118007473648
2017/07/09/09:30:20.600731,220526,1499563823,399606704,,0.839064184541,-0.0163491772696,0.148333514059,0.699440422176,0.708751892866,0.0484521259644,0.0781424447724,-0.013576862144,-0.0321208159402,0.0119468793054,-0.0386425642539,0.0122573964674,0.0785906726607,1.31351339817,-0.205031394958,0.930907487869,0.0168183557689,0.629824995995,0.074744656682
2017/07/09/09:30:20.610780,220527,1499563823,409605531,,0.83832501563,-0.0159222106769,0.147676368789,0.699204667022,0.709125431505,0.0479164810436,0.0771878672643,-0.0112863618512,0.00474664320742,9.25948852916e-05,0.00780830566006,0.0249002776697,0.0627743547559,1.20507824421,-0.400245964527,0.470356494188,0.150810971856,0.565512120724,0.10732409358
2017/07/09/09:30:20.620904,220528,1499563823,419606049,,0.83811769932,-0.0161469161601,0.147662976746,0.699332347889,0.708997192481,0.0481756145578,0.0770477670731,-0.00389821549581,-0.00218052993562,0.00405762132359,0.00797810328662,0.00611022305834,0.0094675564494,1.76307344437,-0.921800374985,0.186509802938,0.260392695665,0.783057689667,0.091650493443
2017/07/09/09:30:20.630797,220529,1499563823,429613550,,0.838855247663,-0.0158953059524,0.148374804,0.698844401024,0.709373988767,0.048457932397,0.0778259340194,-0.0103195327584,-0.00695407197703,0.0029405260985,0.0290445264579,0.00444519676802,-0.0258383623536,2.28607869148,-0.649490714073,0.648650407791,0.195302322507,0.948364198208,0.042693760246
2017/07/09/09:30:20.641146,220530,1499563823,439613422,,0.8382626886,-0.0161354630068,0.148120841115,0.699098257541,0.709201020503,0.0481854267749,0.0772897371405,0.00452321053268,-0.0104651013938,0.00805631524309,0.0140428351541,-0.028359792899,-0.0126717625142,2.18133211136,-1.18117833138,0.410372912884,0.304933577776,1.00509941578,0.062516823411
2017/07/09/09:30:20.650745,220531,1499563823,449608314,,0.838585705582,-0.0165910216839,0.148340034366,0.699365478501,0.70886436706,0.0484597494294,0.0777874622269,0.011561060684,-0.0290846918186,0.00787789335677,-0.0359464126342,-0.0417293367213,-0.0123916991544,2.17096686363,-0.882532417774,0.509645164013,0.211510553956,1.04067409039,0.0445796772838
2017/07/09/09:30:20.660654,220532,1499563823,459610569,,0.838577934067,-0.016290730328,0.147878117249,0.699270418028,0.708987180963,0.0481540027384,0.0777126226623,-0.00398033039742,-0.00756697486382,-0.0108347413072,-0.00158596316417,0.00769345439595,-0.0153304946397,2.37625050545,-0.669217288494,0.276296406984,0.157135307789,1.10579741001,0.0263126008213
2017/07/09/09:30:20.670930,220533,1499563823,469606154,,0.83874965799,-0.0167623292046,0.148109037813,0.699736485651,0.708473309282,0.0484806190745,0.0780003221661,0.00817846975211,-0.0123219325792,0.00107433075573,-0.00555758191081,-0.0279433780819,-0.0401959317682,1.93637239933,-0.828228592873,0.567322611809,0.179373979568,1.00759363174,0.0359190963209
2017/07/09/09:30:20.680838,220534,1499563823,479613218,,0.839178265838,-0.0163508614381,0.14859452145,0.699111494,0.709037162384,0.0487323636753,0.078323547196,0.000656289735354,-0.0192472397616,-0.00203479968339,-0.0198916623825,-0.00889746572072,0.0017765203956,2.13294219971,-0.571893870831,0.673700153828,0.226137116551,1.01693069935,0.0666811093688
2017/07/09/09:30:20.690841,220535,1499563823,489607762,,0.838804589257,-0.0168559169749,0.148027744013,0.69941494399,0.708785266809,0.0486008182759,0.0779752662055,0.0120014224171,-0.00937171107597,-0.001162796397,-0.00719224515294,-0.0338220791287,0.00504608346497,1.65157032013,-0.538135528564,0.645386636257,0.160941272974,0.889626324177,0.0311033502221
2017/07/09/09:30:20.700891,220536,1499563823,499632485,,0.838698932466,-0.0164348303346,0.147982403777,0.699225303627,0.708996680047,0.048498220026,0.0778177685598,0.00940723420353,-0.000902607093394,0.0119314071489,-0.0151620930409,-0.0285588071341,-0.00100491495645,1.72376275063,-0.406181693077,0.544306337833,0.13617926836,0.924951136112,0.0328621603549
2017/07/09/09:30:20.710696,220537,1499563823,509609435,,0.838711825747,-0.017473342633,0.147841464573,0.699376414814,0.708808859485,0.0482354201729,0.0783324668245,0.00806344039237,0.000391744443311,0.0154170608854,-0.0108060792937,-0.0301058774962,-0.0047380168508,0.662293732166,-0.961966395378,0.348545104265,0.296504884958,0.537026941776,0.100720785558
2017/07/09/09:30:20.720587,220538,1499563823,519626662,,0.839176988396,-0.0159226323654,0.147936359666,0.699086120356,0.709078654183,0.04887492436,0.0780852116321,-0.00642327025921,-0.00288302600519,-0.0119260862591,-0.00467691132288,0.0160668732877,0.00064437433184,2.40233707428,-0.187080100179,0.599238991737,0.172170579433,1.18357384205,0.0212151929736
2017/07/09/09:30:20.730630,220539,1499563823,529612313,,0.839203068943,-0.0173093452635,0.148394918836,0.699770784065,0.708335471306,0.0489519663384,0.0786474084208,0.0168944983391,-0.00103536522308,-0.00161783709811,-3.02059037926e-05,-0.0387309029347,-0.00926074398873,1.80573892593,-1.17178666592,0.967536747456,0.377193659544,1.03625237942,0.0884110927582
2017/07/09/09:30:20.740837,220540,1499563823,539619044,,0.839284130543,-0.0172061372331,0.148366345894,0.699370067425,0.7087109411,0.0488623750824,0.078884593273,0.00436355893587,-0.0192810303024,0.00036655158066,-0.0186301446747,-0.0202132930362,0.00516170329119,2.08885478973,-0.974869906902,0.860714316368,0.477437853813,1.1250590086,0.11442643404
2017/07/09/09:30:20.750778,220541,1499563823,549621744,,0.839007383569,-0.0171649640881,0.147943080944,0.699574467233,0.708579188839,0.0485063742432,0.078474388166,0.0122354832034,0.00180052981405,0.00513367259566,-0.0087090603885,-0.0274216585855,0.00249318494985,1.20109677315,-0.591802179813,0.504302084446,0.22204297781,0.808808743954,0.069524563849
2017/07/09/09:30:20.760871,220542,1499563823,559607509,,0.839352122432,-0.0177680961104,0.14841112458,0.699802312035,0.708260311192,0.0488324571362,0.0791166656943,0.0121708463077,-0.00289733997685,0.000819561754325,-0.000809926004212,-0.0270722830854,-0.0290514120621,0.378632217646,-1.12891924381,0.466433525085,0.376833617687,0.491649955511,0.133493632078
2017/07/09/09:30:20.770824,220543,1499563823,569614816,,0.839880136817,-0.016734397697,0.148613586254,0.699250836766,0.70877370888,0.04938744745,0.0790504707008,0.000955980907252,-0.0196216424135,-0.00493636760525,-0.0248065475815,-0.00830125559482,-0.0111905980813,0.992771029472,-0.00356745161116,0.742160081863,0.148665264249,0.620547831059,0.0880639255047
2017/07/09/09:30:20.780740,220544,1499563823,579606542,,0.839121560934,-0.0172894061347,0.147930925907,0.699482133479,0.708651374061,0.0483067787645,0.0787682049466,0.00800019840964,-0.0113759093331,0.00931927452334,-0.0378483398197,-0.0199234812281,0.0356551267597,0.193554833531,-0.287462472916,0.287768244743,0.143791154027,0.380973428488,0.0705260485411
2017/07/09/09:30:20.790997,220545,1499563823,589613023,,0.840101218919,-0.0165587606144,0.14840068677,0.699142056461,0.708851905061,0.0492085913801,0.0794221386816,0.0137446160547,0.0264156441612,0.00370832357941,0.0135995925416,-0.0209985583793,0.0303904453287,0.686570346355,-0.819835066795,0.38939422369,0.320684790611,0.519725561142,0.0930517017841
2017/07/09/09:30:20.801006,220546,1499563823,599609490,,0.839866673811,-0.0170192207599,0.148660661869,0.699031018471,0.708961407264,0.0492519506853,0.0793952365081,0.00572604260966,0.00779568509912,-0.00694613381576,0.0226273169716,-0.0184344320614,-0.00621708379898,1.17531752586,-1.0832901001,0.716832280159,0.371432811022,0.695234179497,0.12201474607
2017/07/09/09:30:20.810946,220547,1499563823,609608638,,0.839576678489,-0.0172140559661,0.147876750127,0.699172009483,0.708881045218,0.0487344126578,0.0791904155135,-0.00266458050641,-0.0104929286538,-0.00278997989882,-0.0100846882482,-0.00165376124761,0.0029826951937,1.30047857761,-0.573193728924,0.431285172701,0.197669252753,0.69061255455,0.0570092760026
2017/07/09/09:30:20.820967,220548,1499563823,619609105,,0.839532223805,-0.0172143258569,0.148232561668,0.699419460491,0.708643745077,0.0485783255411,0.0792250411018,0.00950726104132,-0.00495597516042,0.00591842307107,-0.0264847663713,-0.0209221298631,0.00779910875435,1.74185633659,-0.768025696278,0.50482916832,0.322455435991,0.871838271618,0.0862664952874
2017/07/09/09:30:20.830860,220549,1499563823,629609875,,0.839360013985,-0.0170424307547,0.14769490605,0.699087422761,0.708988262517,0.0486282977239,0.079042441829,0.0246390366206,-0.00792674051977,0.0103720017871,-0.0198075162239,-0.0608114291827,-0.014972362493,1.08335363865,-0.668984413147,0.194723248482,0.271718680859,0.638375282288,0.0984376445413
2017/07/09/09:30:20.840885,220550,1499563823,639642634,,0.840578650479,-0.0167781411583,0.148908758148,0.698906232368,0.708983398311,0.0497978126262,0.0799549694194,0.0089637807504,0.0113795033974,-0.0110209342132,-0.00748624850894,-0.0114673172645,0.0378186030478,2.093998909,-1.07333219051,1.04191768169,0.417347580194,0.973942160606,0.121146097779
2017/07/09/09:30:20.851102,220551,1499563823,649610154,,0.839854202122,-0.0164855641002,0.147421783645,0.698838316886,0.709196418529,0.0492407107137,0.0789987291357,0.00412962474372,0.0157738796823,-0.00682564084758,0.0278339171374,-0.00270257317796,-0.0028363082159,1.34021067619,-0.544240832329,0.234473228455,0.306606918573,0.711526334286,0.111922323704
2017/07/09/09:30:20.860923,220552,1499563823,659614144,,0.840456903053,-0.0162045906431,0.148144777473,0.69892643775,0.709016260099,0.0495976106527,0.0796106434262,-0.00296774270708,-0.00547148689459,-0.00472909952458,0.00837004205136,0.000851746100277,-0.0203058107082,2.31575012207,-0.408975511789,0.12057736516,0.194563254714,1.03655421734,0.0380490534008
2017/07/09/09:30:20.870760,220553,1499563823,669607918,,0.840295244712,-0.0168458044075,0.147928483308,0.69898186302,0.708955105198,0.0497130937528,0.0795966223729,0.00651886899976,0.00442642626042,0.00329082445223,0.0107128777532,-0.0197594623446,0.00697796950873,2.36625385284,-0.762964189053,0.571916341782,0.326503545046,1.08512449265,0.0690273791552
2017/07/09/09:30:20.880875,220554,1499563823,679619477,,0.840188691371,-0.0164133920158,0.147576195901,0.69909451824,0.70889882561,0.0494802746286,0.0792528361456,0.00897494545301,0.00502249056064,0.000131096342479,-0.00383755782455,-0.0178471065443,0.0300951785376,2.71560430527,-0.743191242218,0.512002706528,0.333270460367,1.24751007557,0.0506013557315
2017/07/09/09:30:20.890603,220555,1499563823,689609300,,0.840167343609,-0.0171289814879,0.147713667816,0.699226535644,0.708724476328,0.0493132138079,0.0797500811836,0.0123213010792,0.00561520174099,-0.0124733262305,0.00829952482539,-0.0246169829262,-0.014926469816,2.77366399765,-1.26652407646,0.706836938858,0.455970197916,1.31078135967,0.0771976709366
2017/07/09/09:30:20.900604,220556,1499563823,699621560,,0.840296287249,-0.0169421204116,0.147634497998,0.699099320883,0.708842613228,0.0497722837643,0.0795299250742,0.0101586612977,0.00187912374813,-0.00445205304457,0.0173501373643,-0.0277103940843,-0.00385133352658,2.34785652161,-1.12331175804,0.695098519325,0.326307028532,1.24344027042,0.0509951114655
2017/07/09/09:30:20.910961,220557,1499563823,709611186,,0.840319675361,-0.0165043285295,0.147642721594,0.699133951729,0.708829414038,0.0497072797211,0.0793836612706,0.00696053086933,0.00178713856912,-0.00109885941893,0.0122596163226,-0.0194901249164,-0.00652910650243,2.45481872559,-0.657818973064,0.685341119766,0.241002291441,1.30062568188,0.00376326963305
2017/07/09/09:30:20.920816,220558,1499563823,719634898,,0.840628624195,-0.0164923463411,0.14773829078,0.699190313382,0.70871689828,0.0501914826005,0.0795869263074,0.00781947282406,0.0149953903457,-0.00373838452105,-0.00629468255744,-0.0057822358005,0.0234841208386,1.77403509617,-1.24157011509,0.684381663799,0.399903416634,0.988893985748,0.0974075198174
2017/07/09/09:30:20.930606,220559,1499563823,729606453,,0.840946434796,-0.0163303286163,0.148089177319,0.698669717524,0.709175062883,0.0504384612273,0.0799206958743,0.0169662082464,0.0278051007365,-0.00261462246451,0.0071882904387,-0.0207179344084,0.0476944852198,2.07277798653,-1.10763478279,1.07545232773,0.42159730196,1.1550103426,0.0799582973123
2017/07/09/09:30:20.940784,220560,1499563823,739615053,,0.840571043258,-0.0168628844329,0.147540238886,0.699092943659,0.708824359059,0.0497677420277,0.0797512130555,0.0109859900664,-0.00995693935707,0.000744493058972,-0.0224815836781,-0.0282548446209,0.00498126666415,1.67097985744,-1.03646099567,0.94731169939,0.435229241848,1.06579995155,0.0986734107137
2017/07/09/09:30:20.950567,220561,1499563823,749607535,,0.841106238859,-0.0168834691909,0.148380133019,0.69903420304,0.708772731619,0.0503279036881,0.0803710146964,0.0181385930904,-0.00074938152403,0.00650619375363,-0.00381515773619,-0.0453742205007,0.00114669513864,1.97180259228,-1.46029520035,1.47809946537,0.44196549058,1.21459007263,0.0682871639729
2017/07/09/09:30:20.960841,220562,1499563823,759613788,,0.841094971008,-0.016778550697,0.14779893495,0.699138861038,0.708698352653,0.0502038589157,0.0801939554074,0.00542962050071,-0.00637465067703,-0.00739342898751,-0.0066022563212,-0.0185247379208,-0.0124974288848,2.74464249611,-0.924969673157,0.998430490494,0.384693831205,1.46768534184,0.0413798578084
2017/07/09/09:30:20.970813,220563,1499563823,769605829,,0.841103909444,-0.0156864876838,0.147042538217,0.69917007087,0.708722906399,0.0506621184114,0.0794128686248,0.014849591721,0.0073180632859,-0.0105633369388,0.0209386591823,-0.0282684958324,-0.0334905859394,2.34078621864,-0.78777384758,0.761244952679,0.332392096519,1.30278158188,0.0587418340147
2017/07/09/09:30:20.980889,220564,1499563823,779612273,,0.841079584676,-0.0167851110979,0.14770083448,0.699295499787,0.708537605555,0.0503621474259,0.0801493580741,0.00723521714117,0.0103057310539,-0.017210056595,0.034040065239,-0.00938304705105,0.00337349039059,2.38067269325,-1.52662968636,1.18305325508,0.442215412855,1.31332051754,0.0575309358537
2017/07/09/09:30:20.990806,220565,1499563823,789612205,,0.841707903521,-0.0161215180801,0.147614530176,0.699022506672,0.708738476558,0.0510370195216,0.0803276393862,0.00796548470796,0.0180087489596,-0.0116131573126,0.0204791666772,-0.00860930930607,0.0359095007758,1.77506351471,-0.833331942558,1.46997928619,0.25185751915,0.972622454166,0.0545392334461
2017/07/09/09:30:21.000769,220566,1499563823,799605416,,0.841241805671,-0.0160546020115,0.146983834122,0.699020164346,0.708835342261,0.0505575138276,0.0797947692183,0.0161888758235,0.01360693038,0.000963989889808,0.00859765512399,-0.0367069672769,0.0187533403921,1.06744968891,-0.616528391838,0.881207883358,0.247649759054,0.711478233337,0.0753917098045
2017/07/09/09:30:21.010648,220567,1499563823,809606926,,0.841150338434,-0.0167201901594,0.147205500389,0.698687271998,0.709131403759,0.0502041487691,0.0803012552631,0.00707465314796,-0.0298481674451,-0.00615403392459,-0.0230414485908,-0.0317838894144,-0.0402080885651,1.82048916817,-0.845363736153,1.27634429932,0.311392754316,0.982525169849,0.074872545898
2017/07/09/09:30:21.020816,220568,1499563823,819628637,,0.842224342363,-0.0158300348942,0.14711641188,0.698954806827,0.708757446077,0.0512130565275,0.080636737806,0.0188009037672,-0.0130966788815,-0.00694878419528,-0.035405097536,-0.0450163830539,-0.00692639014146,2.44233942032,-0.488253682852,0.971811532974,0.113425880671,1.16167891026,-0.00498618511483
2017/07/09/09:30:21.030705,220569,1499563823,829609867,,0.841485310558,-0.0167446811416,0.147066455546,0.698924900103,0.708854771887,0.0504874207312,0.0804979300187,0.0219068661875,0.00540150916365,-0.0105006984569,-0.00504613909525,-0.0440197041343,0.0124992188576,3.02049589157,-1.30619812012,1.10698771477,0.387353360653,1.46190524101,0.0442612580955
2017/07/09/09:30:21.040895,220570,1499563823,839611099,,0.841704739995,-0.0170197673581,0.147062828545,0.698943512533,0.708774405041,0.0507901110062,0.0808527901239,0.0150431460846,0.00264556094352,0.00113038288368,0.0078891959498,-0.041099655413,0.00929631035337,2.23362278938,-1.31491518021,0.988967299461,0.438482493162,1.11280596256,0.116018339992
2017/07/09/09:30:21.050937,220571,1499563823,849617557,,0.841951485281,-0.0167593082237,0.147090094405,0.698931220644,0.708760890228,0.0509156235916,0.0809984479267,0.0114060944284,0.0172481750032,-0.00550065331283,0.0236363095851,-0.0262081478387,0.0330560105716,1.96687602997,-1.13137602806,1.49414134026,0.337502747774,0.977334022522,0.0629316046834
2017/07/09/09:30:21.060728,220572,1499563823,859607383,,0.842284305202,-0.0164053169435,0.146900811948,0.698596593838,0.709057353316,0.0513327161199,0.0810272857858,0.0135195893257,0.000646306709074,-0.00264706043546,-0.00482953825093,-0.0364718844703,0.0101445040666,1.73591470718,-0.966967821121,1.30855607986,0.260224103928,0.962574243546,0.0626544579864
2017/07/09/09:30:21.071023,220573,1499563823,869608381,,0.842283273491,-0.0170659172728,0.147568192966,0.699027244133,0.708591495977,0.0509990180413,0.0815972055124,0.0100727348988,-0.011294056827,-0.00239356079671,-0.00489815221435,-0.0311321178196,-0.0159320968462,2.00517606735,-1.26514530182,1.56183815002,0.382031738758,1.12980151176,0.0755095332861
2017/07/09/09:30:21.080849,220574,1499563823,879618705,,0.842676609108,-0.0160596043654,0.146961523218,0.699068215631,0.708537157203,0.0520555493773,0.0810490378477,0.0166427140708,6.31653864459e-05,0.0129458516065,-0.0235297748425,-0.0367186402211,0.00537113364327,2.06369161606,-1.08851850033,1.19237720966,0.315426409245,1.17523705959,0.0495031625032
2017/07/09/09:30:21.090610,220575,1499563823,889608257,,0.842462047339,-0.0163024879683,0.146930427529,0.698749741389,0.708879490729,0.0516052969243,0.0810898258856,0.00836714711644,0.0113621113718,-0.00387517026051,0.0110303348898,-0.0123400807822,0.00491933913761,2.44273686409,-1.42298257351,1.27688312531,0.502340078354,1.31642448902,0.0996467396617
2017/07/09/09:30:21.100764,220576,1499563823,899620404,,0.842174688412,-0.0161803134503,0.146736747558,0.698743521233,0.708936453258,0.0514264884332,0.0807583621928,-0.00258892644008,-0.00443620211068,0.000599820729982,0.0012157699301,0.00311536695809,-0.0114024585143,2.71581411362,-0.941077888012,1.16013479233,0.349713116884,1.37459778786,0.0556849353015
2017/07/09/09:30:21.110711,220577,1499563823,909607910,,0.841545009252,-0.0165625360565,0.146477738547,0.699377095405,0.708393193366,0.0510367689273,0.0802870489706,-0.00424049009375,-0.0126782999696,-0.00090528706027,0.00777448573356,-0.000201555624072,-0.0199289597688,2.39039349556,-0.838234186172,1.16135025024,0.293582946062,1.30359184742,0.0480159558356
2017/07/09/09:30:21.120976,220578,1499563823,919611857,,0.842457287007,-0.0164248247384,0.146925847225,0.698253169222,0.709371906795,0.0511028265849,0.0813788095032,0.00305331043355,-0.0035053713278,0.00457675570364,-0.0214773886822,-0.00408676811196,0.0109190565506,2.57447528839,-0.820652544498,1.46875655651,0.343757331371,1.31103277206,0.0695868805051
2017/07/09/09:30:21.130945,220579,1499563823,929610816,,0.842566820435,-0.0166650298739,0.147596758324,0.698636611472,0.70894985714,0.0512400583276,0.0816788932078,0.00430880022182,0.00444466142777,-0.00486388553734,0.000711184282941,-0.00691392308607,0.00457777247742,2.75882649422,-1.17628240585,1.74462282658,0.410663306713,1.40135324001,0.0578349307179
2017/07/09/09:30:21.140822,220580,1499563823,939613249,,0.842365845971,-0.0164497464365,0.147186228682,0.698987796778,0.708646961475,0.0514304261245,0.0811816187093,-0.00141376710972,-0.0212897986322,0.0113200269963,-0.0284608839686,-0.013426015961,-0.0240141781156,2.05669379234,-0.329386174679,1.44590163231,0.197048082948,1.17389345169,0.0339511632919
2017/07/09/09:30:21.151236,220581,1499563823,949612022,,0.84265438961,-0.0160810217999,0.146845345719,0.698505775755,0.709116311689,0.0514763432602,0.0812029791226,0.00985618553029,0.00401564025692,0.00621656408156,0.0134321123136,-0.0268269346596,-0.0104792559708,2.29605126381,-0.370572596788,1.34188652039,0.316239953041,1.20733821392,0.0810515582561
2017/07/09/09:30:21.160598,220582,1499563823,959606610,,0.842771292818,-0.0164607822103,0.147160290792,0.698884546438,0.708692182924,0.0516383825372,0.0815429829115,0.0175141549225,0.013649949664,0.00224196240818,0.0119279926985,-0.0316818443197,0.00287293645903,2.62303113937,-1.10037481785,1.44909179211,0.514135658741,1.38197958469,0.0842970013618
2017/07/09/09:30:21.171084,220583,1499563823,969610097,,0.84251095136,-0.0171068997652,0.147085660063,0.699217951327,0.708373181162,0.0514906536306,0.0815500174234,-0.000900517106105,-0.00870030267976,-0.0144972582082,-0.00172976565236,0.00427948615757,-0.00310342064872,2.19329881668,-1.30054008961,1.34112906456,0.479424029589,1.26221263409,0.0911030471325
2017/07/09/09:30:21.181052,220584,1499563823,979613042,,0.842222690557,-0.0167990734182,0.146252861371,0.698875672998,0.708778030309,0.0515633739341,0.0809179579092,-0.000467761567359,-0.0134251294519,-0.014052809009,-0.00396122049992,-0.00316905025939,-0.0337872038698,1.99158501625,-1.24414479733,0.967843294144,0.444462269545,1.21548902988,0.0857769548893
2017/07/09/09:30:21.190781,220585,1499563823,989605207,,0.842897990322,-0.0167865104497,0.147436053551,0.698667681514,0.708860596384,0.0516056961999,0.0819571706546,-0.00656584742596,0.00314925913286,-0.0138829889426,0.00551511342787,0.0181855566907,0.00691550046654,3.01288199425,-1.24034440517,1.36803305149,0.485010653734,1.49948453903,0.0556715801358
2017/07/09/09:30:21.200850,220586,1499563823,999621248,,0.842811489642,-0.0167914014236,0.146719071725,0.698771341832,0.708785999832,0.0516242853189,0.0817064957197,0.00537743004148,-0.00305861525998,0.00423306158043,-0.0251916031361,-0.0155224289478,0.0182528766865,2.60633897781,-0.855430901051,1.05837929249,0.34162825346,1.29194653034,0.0665148943663
2017/07/09/09:30:21.210758,220587,1499563824,9607268,,0.843098276325,-0.0168166604,0.147207608266,0.698659406145,0.708841593791,0.0517444327904,0.0821044626784,0.0189163025178,0.00145120983522,0.014786021182,-0.0256697851422,-0.0404531201613,0.0405088645071,2.3541893959,-1.23078525066,1.06390893459,0.494703918695,1.14318943024,0.113811373711
2017/07/09/09:30:21.220848,220588,1499563824,19611928,,0.843279448241,-0.0172372000395,0.14740304254,0.698801122173,0.708650254169,0.0519077589539,0.0824463066276,0.0110946208671,-0.0203868616931,0.00772644190903,-0.0115946485699,-0.0380822257332,-0.0290595300245,2.41868638992,-1.23731267452,1.27357947826,0.4408031106,1.13387930393,0.0918693989515
2017/07/09/09:30:21.230869,220589,1499563824,29614782,,0.843237913186,-0.0166074491817,0.147217208842,0.698279257861,0.709190585265,0.0516550258769,0.0823805202421,0.0112144214459,-0.00896793716924,0.0123317317447,-0.0254976549666,-0.0393985930987,0.00349609841109,2.46164941788,-0.857436060905,0.843351304531,0.333152353764,1.17094492912,0.0677521079779
2017/07/09/09:30:21.240843,220590,1499563824,39617503,,0.843261665652,-0.0169867775774,0.146978045019,0.698485468202,0.708986809367,0.0517052572275,0.0823548494606,0.018078321449,0.0109570131926,0.0023711065523,-0.0128794817737,-0.0391197751851,0.00893390197336,2.3465628624,-1.23169529438,1.58802378178,0.44692209363,1.14335203171,0.101368039846
2017/07/09/09:30:21.251095,220591,1499563824,49614839,,0.843329790689,-0.0166590678133,0.146843412261,0.698649984399,0.708821807666,0.0520563192706,0.0821582856488,0.0289849002484,0.00372556736467,0.00281985169109,-0.0198509171353,-0.0621463776782,0.00160918589433,2.53488993645,-1.03470885754,0.766049206257,0.367028027773,1.2093988657,0.0562145039439
2017/07/09/09:30:21.260917,220592,1499563824,59614221,,0.843295776608,-0.0171728088709,0.146694381411,0.698902647679,0.708553357122,0.0517222918946,0.0825350452771,0.0178871946675,0.00436405899242,-0.00496150544692,0.00840334923611,-0.0422110432045,-0.00174184209804,2.01759147644,-1.20123696327,0.92678040266,0.385558903217,1.08201098442,0.0620292574167
2017/07/09/09:30:21.270641,220593,1499563824,69608910,,0.843633659105,-0.0167692241195,0.146937061425,0.698481410592,0.708932044469,0.0520694151949,0.0826308137693,0.0151650184594,-0.0106111936534,-0.00424890641969,-0.00579710065243,-0.0419137751631,-0.0238450295215,2.58118343353,-1.20967411995,0.79885327816,0.399050474167,1.33294415474,0.0790640041232
2017/07/09/09:30:21.280815,220594,1499563824,79612723,,0.843975870373,-0.0168465801254,0.147046467582,0.69870119795,0.708630177458,0.0524963323334,0.0830905690811,0.0199518047898,-0.00564191194452,0.00338835427377,-0.0107064351449,-0.0510804514317,0.00663225807584,2.31664514542,-0.69287776947,1.03877866268,0.394591659307,1.22575390339,0.101187340915
2017/07/09/09:30:21.290796,220595,1499563824,89610822,,0.843771805294,-0.0181373618542,0.147074532638,0.698819201646,0.708511890466,0.0518174789178,0.0835318703196,0.0093480162595,-0.00777341956959,0.0058072371185,-0.0169227957752,-0.0327914350242,0.0134851364239,2.08847761154,-1.51800560951,1.32488131523,0.521081268787,1.19173705578,0.11342099309
2017/07/09/09:30:21.301018,220596,1499563824,99606249,,0.844247376082,-0.0172474496816,0.14718045302,0.698532987846,0.708755636974,0.0523852164295,0.0835038983997,0.00817397942977,-0.0128427466594,-0.00156681969668,-0.0300113116969,-0.0180552746308,-0.0121006468732,2.09724283218,-0.747917771339,1.23584222794,0.310127824545,1.18278229237,0.0525189228356
2017/07/09/09:30:21.310549,220597,1499563824,109609692,,0.844457356538,-0.0171257803449,0.147207517492,0.698354415385,0.708906115214,0.0523336811408,0.0837521112726,0.00772541100102,0.0226967515697,-0.0150706828627,0.0118029640109,-0.000327497667114,0.0348316235242,2.33502459526,-0.914215326309,1.53549396992,0.376878023148,1.22256577015,0.0635408088565
2017/07/09/09:30:21.320896,220598,1499563824,119613323,,0.844519805444,-0.0167503783472,0.146935794653,0.698216581257,0.709038288889,0.0526639890138,0.0835752045102,0.0173641862469,0.00275769388376,0.00453436043673,-0.0172319731035,-0.0377708843373,0.0203099441761,1.70950758457,-1.03814065456,1.09675633907,0.454872429371,0.964929223061,0.125266373158
2017/07/09/09:30:21.330894,220599,1499563824,129605656,,0.844340545016,-0.0174262524557,0.146640022998,0.698546383299,0.708718838174,0.0523986012856,0.0836955517366,0.0185973738891,0.00273501032013,0.00130062570295,0.00931483119469,-0.0473228517827,0.012110239677,2.09529733658,-0.879102110863,0.983371019363,0.319255709648,1.16205275059,0.0193355083466
2017/07/09/09:30:21.340888,220600,1499563824,139612557,,0.845211809861,-0.0167852185959,0.147401752522,0.698407463987,0.708735884014,0.0530410247625,0.0843036811134,0.00912697002404,-0.0184042936371,-0.00799927945719,-0.00821569845354,-0.0341093780067,-0.0403156223375,2.77115416527,-0.816564083099,1.25370585918,0.343954205513,1.3365727663,0.0670002251863
