time,.header.seq,.header.stamp.secs,.header.stamp.nsecs,.header.frame_id,.pose.position.x,.pose.position.y,.pose.position.z,.pose.orientation.x,.pose.orientation.y,.pose.orientation.z,.pose.orientation.w,.twist.linear.x,.twist.linear.y,.twist.linear.z,.twist.angular.x,.twist.angular.y,.twist.angular.z,.wrench.force.x,.wrench.force.y,.wrench.force.z,.wrench.torque.x,.wrench.torque.y,.wrench.torque.z
2017/07/09/09:42:22.168581,292683,1499564544,968997189,,0.789817771184,0.503802659007,0.21771319148,0.624182416235,0.774837215023,0.0588279375632,0.0810115747306,0.0940642364431,-0.284834107108,-0.00529230147354,0.00205641715703,0.000250129749234,-0.405641929841,-0.346137672663,-0.138936012983,0.450151443481,-0.186149761081,0.0570758059621,0.111587814987
2017/07/09/09:42:22.178498,292684,1499564544,978992541,,0.79094525859,0.500962727005,0.21776225077,0.625313758115,0.773890398003,0.0587430129874,0.0813978759925,0.0922619768316,-0.301694663781,-0.00743683118859,-0.0193395267062,0.0109900800025,-0.422558614045,-0.753901064396,-0.26301497221,0.349564284086,-0.135773941875,-0.139993295074,0.124758854508
2017/07/09/09:42:22.188325,292685,1499564544,988993899,,0.791866260447,0.498135631892,0.218273974166,0.626648799632,0.77278214045,0.0586909237081,0.081697128437,0.10263705732,-0.288821584349,0.00192715425913,-0.0239507547361,-0.0276946572766,-0.373854162266,-0.394034594297,-0.0896810591221,0.516485095024,-0.194861292839,0.0157604888082,0.0723848193884
2017/07/09/09:42:22.198512,292686,1499564544,999003261,,0.792551670626,0.495886422434,0.217652348474,0.628383376009,0.771429376029,0.0587642038563,0.0811037539249,0.0840940665384,-0.28520077395,-0.0119758428988,0.00524957689502,0.0290786040505,-0.376067484101,-0.463690519333,-0.225190922618,0.54033267498,-0.129754394293,-0.00714275240898,0.131594628096
2017/07/09/09:42:22.208300,292687,1499564545,8989370,,0.79396164765,0.492257560504,0.217829908671,0.63028839822,0.769808223756,0.0584130957269,0.0819740443964,0.0981105755549,-0.287825884343,0.0015920853249,0.0333934295535,-0.00803637095442,-0.417882405996,-0.799357235432,-0.372633129358,0.495576769114,-0.0830337405205,-0.178278282285,0.130675047636
2017/07/09/09:42:22.218431,292688,1499564545,18994012,,0.794236247898,0.490161908485,0.217497282789,0.631096584053,0.769216062671,0.0581334738476,0.0815122674385,0.0975244633269,-0.275648975854,-0.00100745685828,0.0359372466675,-0.0160719064038,-0.415513724045,-0.865219771862,-0.371290385723,0.538388311863,-0.0934147387743,-0.195621103048,0.127079978585
2017/07/09/09:42:22.228359,292689,1499564545,28989177,,0.795453288554,0.487392921562,0.217785871304,0.632823031386,0.767737144285,0.0584864370401,0.0818170209377,0.113396693909,-0.28878700144,0.0153419672082,0.0253478030963,-0.0603950160995,-0.388862722287,-0.762666344643,-0.407919257879,0.636702954769,-0.091339610517,-0.100811511278,0.156374424696
2017/07/09/09:42:22.238306,292690,1499564545,39000886,,0.796428717551,0.48493167814,0.217596981846,0.634056682128,0.766722883391,0.0583759090238,0.0818559538349,0.0941435291002,-0.287905236019,-0.00543880763267,0.0107700852393,-0.0115203770686,-0.378603039469,-0.458907902241,-0.416353046894,0.715422153473,-0.124864265323,0.0307927578688,0.114057734609
2017/07/09/09:42:22.248436,292691,1499564545,49008265,,0.797545678368,0.481587610705,0.217782007855,0.63558382706,0.765411395763,0.0582677747496,0.0823617656577,0.106912302159,-0.276202370638,0.00815823700524,0.0321266363499,-0.0492344736535,-0.393579714622,-0.76939946413,-0.340010404587,0.682240664959,-0.163574889302,-0.0697917863727,0.126654803753
2017/07/09/09:42:22.258343,292692,1499564545,59001864,,0.798426781459,0.478552855702,0.217238365995,0.637530693588,0.763837826192,0.0580768787495,0.0820577002201,0.0921245579915,-0.2915350583,-0.00135793294114,0.00109776936574,-0.0111211407204,-0.410665733985,-1.32141828537,-0.452590554953,0.618782877922,-0.191696047783,-0.307432621717,0.0746932402253
2017/07/09/09:42:22.268276,292693,1499564545,69011115,,0.799657927865,0.475831965008,0.218235300528,0.638910235783,0.762563486256,0.0583907121774,0.082952786398,0.0953420797683,-0.296932319708,-0.00449212913996,0.000746747055111,-0.0149100622562,-0.401048667556,-1.00877737999,-0.442885696888,0.557756125927,-0.108440250158,-0.149290114641,0.125966325402
2017/07/09/09:42:22.278298,292694,1499564545,78996615,,0.799909917123,0.473519473864,0.218295960841,0.640013104834,0.761694188345,0.058028806591,0.0826912733482,0.0865544446271,-0.294695171004,0.0132559359757,0.0228908734119,-0.00804126771251,-0.413730134653,-1.0760692358,-0.297161310911,0.425578147173,-0.193280667067,-0.227928712964,0.109044231474
2017/07/09/09:42:22.288217,292695,1499564545,88988874,,0.800776175245,0.470869929312,0.217710399581,0.641718130327,0.760302818413,0.0579468204134,0.0823385178822,0.0982726969762,-0.299302096114,0.0152537384895,-0.00285129947556,-0.0326008774058,-0.405239082056,-1.11007022858,-0.387688696384,0.459473997355,-0.149007052183,-0.256579339504,0.104068249464
2017/07/09/09:42:22.298279,292696,1499564545,98997079,,0.802023170665,0.467817778103,0.218584058158,0.643137305351,0.759005664452,0.0580731783137,0.0831403256878,0.0876466046563,-0.302917891864,0.00475788530906,0.00483918689853,-0.00731966328457,-0.410023479029,-0.921991765499,-0.459204375744,0.298815667629,-0.0638972073793,-0.213009789586,0.141715049744
2017/07/09/09:42:22.308321,292697,1499564545,108995488,,0.802383948375,0.464362563458,0.217670341204,0.644907248758,0.757589637013,0.0572060141932,0.0829460929103,0.0910196518063,-0.322012369915,0.000631870817071,0.00659650124479,0.000973996714544,-0.448516140421,-1.05542337894,-0.246661961079,0.260808289051,-0.217977926135,-0.331801474094,0.0646440684795
2017/07/09/09:42:22.318259,292698,1499564545,118997997,,0.802951960001,0.461594210612,0.217728893063,0.646492811363,0.75629126072,0.0570145990908,0.0825827421716,0.0818653650199,-0.333317328633,-0.0115183287297,-0.0248382147904,0.015940008397,-0.427728737295,-1.08388137817,-0.35402905941,0.2466994524,-0.159563452005,-0.344408124685,0.0997228473425
2017/07/09/09:42:22.328197,292699,1499564545,128994335,,0.804277309183,0.458883930004,0.218291451528,0.647762495073,0.755094500178,0.0574998232822,0.083245516998,0.0822910329517,-0.301816263419,-0.0025935896708,-0.00150202223313,-0.00418192947957,-0.387078999717,-0.92138004303,-0.301657766104,0.341945171356,-0.142173841596,-0.23744264245,0.104861974716
2017/07/09/09:42:22.338504,292700,1499564545,138995258,,0.80554243967,0.454683951152,0.218140445285,0.649591792371,0.753475882458,0.0571438196214,0.0838998314477,0.0931361338083,-0.303404558247,0.00342744164707,0.00449102507548,-0.0337874054358,-0.408640065946,-0.706642508507,-0.320188343525,0.401411771774,-0.134418427944,-0.14639519155,0.134047746658
2017/07/09/09:42:22.348331,292701,1499564545,148996610,,0.806142960313,0.452636582754,0.218062817275,0.651061783663,0.752239383235,0.0573584012635,0.083453447905,0.0941290381289,-0.337760433613,-0.00475695079865,0.00345473203519,-0.0141536870067,-0.470183592917,-0.631072700024,-0.195307269692,0.540470480919,-0.173517495394,-0.0711869820952,0.0836259126663
2017/07/09/09:42:22.358336,292702,1499564545,158990899,,0.806759308343,0.449067258732,0.217253095128,0.652860051043,0.750738513051,0.0566659490703,0.0833930991767,0.0859674088647,-0.301624329722,-0.00765327864516,0.0260402990291,-0.0140213833721,-0.407391909232,-1.25231480598,-0.474684238434,0.604324817657,-0.0851783975959,-0.304247587919,0.135497897863
2017/07/09/09:42:22.368458,292703,1499564545,168995194,,0.808227395485,0.445461625042,0.217718537508,0.654164966838,0.749489561857,0.0568422508405,0.0842766358401,0.101935089913,-0.331252888289,0.00269649239926,0.0183497369148,-0.0408482774566,-0.432101660396,-1.13590347767,-0.204623550177,0.669143438339,-0.208148166537,-0.257814109325,0.102430045605
2017/07/09/09:42:22.378529,292704,1499564545,178995387,,0.808977586386,0.442177166271,0.217360025583,0.655712570152,0.748151376124,0.0565215744185,0.0843555296006,0.0927525754305,-0.331431576758,-0.0170717319182,0.0165849707316,-0.0110618344092,-0.45489294949,-1.34775519371,-0.370547682047,0.668493628502,-0.150857329369,-0.320969820023,0.100556880236
2017/07/09/09:42:22.388313,292705,1499564545,188988639,,0.809688332645,0.439807794569,0.21756992351,0.657340349518,0.746733067005,0.0569341799937,0.0839755362316,0.0842691544858,-0.326096161961,-0.00871525586071,0.0108330257124,-0.00107700976445,-0.441242489702,-1.35733413696,-0.386094033718,0.893851518631,-0.172335490584,-0.293108344078,0.107035830617
2017/07/09/09:42:22.398529,292706,1499564545,198987886,,0.810642415204,0.435802303557,0.217391838566,0.658881005482,0.74535070767,0.0563975914771,0.0845426215976,0.0770978623811,-0.3099432894,-0.00228621221353,0.0258071163105,-0.0025027576589,-0.44425562688,-1.53142988682,-0.368246585131,0.829145133495,-0.21583840251,-0.376090556383,0.0590866580606
2017/07/09/09:42:22.408279,292707,1499564545,208991940,,0.81130146203,0.433352506683,0.217308416945,0.660550331262,0.743889362669,0.0564646535959,0.0843422721491,0.0879348687393,-0.353921935096,-0.000266783588247,-0.0118387898441,-0.0173442637558,-0.472886626783,-2.07364606857,-0.524086177349,1.07878422737,-0.152663528919,-0.539051294327,0.103505954146
2017/07/09/09:42:22.418364,292708,1499564545,218994799,,0.811850837701,0.43024871769,0.217299570294,0.66192216327,0.74270630851,0.0562422222416,0.0841617579893,0.0777041342588,-0.332149524664,-0.00333622479722,-0.0033095307704,-0.00569559842461,-0.448536337121,-1.61185872555,-0.573927164078,1.20140206814,-0.161854371428,-0.342109829187,0.0662313401699
2017/07/09/09:42:22.428518,292709,1499564545,229003486,,0.812592941592,0.427165222653,0.217412117715,0.663691345025,0.741096416206,0.0561792309583,0.0844617927531,0.0807803716158,-0.337468813743,-0.005647140773,-0.0118229001687,-0.00963753274331,-0.433945984395,-2.27858376503,-0.903863668442,1.28324723244,0.115227073431,-0.548583865166,0.180051624775
2017/07/09/09:42:22.438238,292710,1499564545,238995772,,0.813314104604,0.423140455296,0.217141225542,0.665456175753,0.739530629561,0.0554220301171,0.0847993199884,0.0702734653638,-0.351747120474,-0.0278269438678,-0.0226767024749,0.0337239311282,-0.466049791916,-2.03565073013,-0.659511268139,1.37307476997,-0.0592966936529,-0.466073095798,0.120075643063
2017/07/09/09:42:22.448353,292711,1499564545,248988358,,0.814017434038,0.420167241843,0.216897671025,0.66690119829,0.738242311291,0.0553491940409,0.0847204122881,0.0531191479805,-0.331353377939,-0.0267635826801,-0.0134658807587,0.0552822977687,-0.445270485498,-2.46064090729,-0.453897118568,1.53953492641,-0.179084151983,-0.600770056248,0.0649918317795
2017/07/09/09:42:22.458064,292712,1499564545,258992720,,0.814773435539,0.416769201443,0.216523686266,0.668742875288,0.73659808825,0.054989491965,0.0847489168746,0.0697331116237,-0.334331514807,-0.0182980255964,0.0220329579385,0.0170326744154,-0.452803805333,-2.67738580704,-0.409431934357,1.61023104191,-0.214488446712,-0.710220336914,0.0778179168701
2017/07/09/09:42:22.468194,292713,1499564545,269023233,,0.815334895183,0.413258915368,0.216390366538,0.67045114801,0.735068836383,0.0547081074493,0.0847117871905,0.0626764918786,-0.323933393584,-0.013104061106,0.0204205356526,0.0264947953611,-0.42822328694,-3.22450232506,-0.413600236177,1.73489665985,-0.208551898599,-0.900989711285,0.0736555308104
2017/07/09/09:42:22.478437,292714,1499564545,278994563,,0.816005274085,0.409538401899,0.216597717378,0.672363714335,0.733309032364,0.0543445085563,0.0850386564423,0.0704590470973,-0.351712791425,-0.0135906223633,0.00278977287806,0.0151462582072,-0.462724721463,-3.15697026253,-0.536352157593,1.76131606102,-0.166476845741,-0.850492656231,0.0801059007645
2017/07/09/09:42:22.488433,292715,1499564545,288994941,,0.816271882942,0.407438601602,0.216000000615,0.673430289975,0.732390607811,0.0541790885561,0.0846183697358,0.0703976775074,-0.344131460809,-0.000747190618878,-0.00300949919615,-0.00334870268487,-0.447692837975,-3.09673261642,-0.581754088402,1.83847725391,-0.15729367733,-0.829659819603,0.0985748395324
2017/07/09/09:42:22.498194,292716,1499564545,298994475,,0.817445027881,0.403123181642,0.216176507163,0.674868462774,0.730999224242,0.05397618598,0.0853185997133,0.0679669665719,-0.34927892333,-0.00896313547783,-0.00525543188213,-0.000589961443323,-0.48102629531,-2.91295742989,-0.631897628307,1.74093711376,-0.13591067493,-0.742081582546,0.0744556486607
2017/07/09/09:42:22.508264,292717,1499564545,308999075,,0.818096269035,0.400104381467,0.216073128028,0.67689251999,0.729139795632,0.0539616656739,0.0852045388729,0.0607670451943,-0.343120232156,-0.0275255768363,0.00836410773458,0.0217897371327,-0.440069851298,-2.29082942009,-0.538951396942,1.74118793011,-0.156766235828,-0.491100847721,0.0808929726481
2017/07/09/09:42:22.518373,292718,1499564545,318994428,,0.818158876994,0.397491231423,0.215535975472,0.678121485846,0.728090697762,0.0536474424218,0.0845998710928,0.0494617845985,-0.306078887681,-0.0185265542287,0.0135334552643,0.0281208853146,-0.413391666485,-2.28565645218,-0.423785150051,1.74390792847,-0.171182572842,-0.492933452129,0.0988143011928
2017/07/09/09:42:22.528291,292719,1499564545,328994498,,0.819526359729,0.39352070431,0.215902823548,0.6801067335,0.726124126189,0.0538679019293,0.0854215052319,0.056542337024,-0.335426383364,-0.0159691770866,0.0165515895573,0.0255837752568,-0.47108565347,-1.73327243328,-0.34957331419,1.5184725523,-0.225728005171,-0.346486181021,0.0882739424706
2017/07/09/09:42:22.538290,292720,1499564545,338994358,,0.819532783694,0.390757843623,0.21559726584,0.681130506551,0.725239162314,0.0533460854235,0.085109257201,0.0625312739324,-0.350444420634,-0.0092056621563,-0.00260649910716,0.011877603784,-0.452727003729,-1.75018835068,-0.349149167538,1.36954414845,-0.199088394642,-0.417148649693,0.0836047977209
2017/07/09/09:42:22.548311,292721,1499564545,349008897,,0.820453636515,0.386958450932,0.215528934621,0.68329054427,0.723166885312,0.0532188722144,0.0855069572594,0.0685920928765,-0.395516726104,-0.0182519199307,-0.00583363305362,0.0102652601494,-0.520771560426,-1.5280700922,-0.28307056427,1.15113019943,-0.275481909513,-0.365780413151,0.055494889617
2017/07/09/09:42:22.558149,292722,1499564545,358987769,,0.821098075562,0.383274181052,0.215133842116,0.685061966741,0.721509509398,0.0527547534947,0.0856216418783,0.0529682353641,-0.376802124799,-0.0253344480858,-0.0133081414274,0.0364508197848,-0.485750823994,-1.59486448765,-0.281888216734,1.10776090622,-0.267849445343,-0.442810595036,0.0530787706375
2017/07/09/09:42:22.568351,292723,1499564545,368990703,,0.821580758078,0.380323013101,0.215282862308,0.686676058323,0.71997937941,0.0530486164925,0.0853904469958,0.0561574166296,-0.325120103229,-0.0135584843289,0.0405930556114,0.00515337809757,-0.472102213315,-2.06897449493,-0.402647435665,1.19340646267,-0.179840087891,-0.603876650333,0.103447496891
2017/07/09/09:42:22.578355,292724,1499564545,378995056,,0.821825627352,0.376911604486,0.21416996295,0.688331727276,0.718495738776,0.052546947936,0.0848653336071,0.064951121475,-0.339478606084,-0.0130515642295,0.0332413866954,-0.0155637425191,-0.474754647872,-1.99850928783,-0.383375346661,1.35684561729,-0.221934512258,-0.547302186489,0.0748461931944
2017/07/09/09:42:22.588398,292725,1499564545,389000513,,0.822215089285,0.374033576199,0.214379306555,0.689303353902,0.71755442552,0.0520989913654,0.0852187057769,0.0672641851681,-0.330273939198,-0.0150228106398,0.00500373878258,-0.034605036379,-0.428950611146,-1.42418110371,-0.299800395966,1.4046715498,-0.203060314059,-0.317099958658,0.0691869780421
2017/07/09/09:42:22.598310,292726,1499564545,398994994,,0.823378045154,0.369955815304,0.214311571018,0.691463541908,0.715372714505,0.0524260528393,0.0858577808804,0.0674687124597,-0.34338442524,-0.0266738350089,0.0116879657214,-0.0247571369538,-0.433518398642,-0.981589198112,-0.416170716286,1.29673862457,-0.18407317996,-0.13223028183,0.110662609339
2017/07/09/09:42:22.608567,292727,1499564545,409023791,,0.824347771073,0.366980243662,0.214447811095,0.693183384061,0.713653948148,0.0529489373344,0.0859723699211,0.073780906679,-0.373799717542,-0.0210929889944,0.0260101679121,-0.0331124045266,-0.511226014158,-0.225671380758,0.118355467916,1.20122396946,-0.434205710888,0.147894591093,-0.00821676850319
2017/07/09/09:42:22.618275,292728,1499564545,418987824,,0.825453768088,0.36333520132,0.214512487369,0.694340079206,0.712410231144,0.0530463334044,0.0868884542491,0.0807272682425,-0.360458655703,-0.0155696007267,0.0162215353101,-0.0551391865992,-0.463695056,-0.284482210875,0.11034719646,1.02700996399,-0.456297427416,0.106497354805,0.0118976086378
2017/07/09/09:42:22.628278,292729,1499564545,429003338,,0.825489021287,0.360883890288,0.213889510766,0.695534771679,0.711330376431,0.0527123319393,0.0863822146865,0.0795248804615,-0.326703847831,-0.000780615010748,0.0327146715078,-0.0817383196343,-0.441920326667,-1.46456003189,-0.039636656642,1.2989885807,-0.351979374886,-0.294971287251,0.0463243573904
2017/07/09/09:42:22.638434,292730,1499564545,439006127,,0.826344985444,0.357186652639,0.21373666157,0.697020339094,0.709832576005,0.0529104855974,0.086607398329,0.0681674463431,-0.319671751168,-0.0224009933655,0.0576563426823,-0.0460785580113,-0.450373276452,-2.19001817703,-0.410919964314,1.33599424362,-0.153870970011,-0.549528956413,0.119750246406
2017/07/09/09:42:22.648242,292731,1499564545,448986831,,0.827227832065,0.353814760667,0.213944214364,0.699004547594,0.707802474733,0.0531825513483,0.0870627097955,0.0735356466317,-0.347828557792,-0.0240733676823,0.0335453635723,-0.0576634493972,-0.480957050981,-1.75435352325,-0.43431070447,1.63228237629,-0.188813298941,-0.347084671259,0.09392388165
2017/07/09/09:42:22.658300,292732,1499564545,459001740,,0.827395433117,0.350570641107,0.212968051228,0.700688396652,0.706198526416,0.0527860206977,0.0867931339654,0.0725009906343,-0.340523001884,-0.0120968814561,0.019102249397,-0.0655366163914,-0.411396445061,-1.88722157478,-0.557379066944,1.7650551796,-0.154190093279,-0.414408773184,0.0744902342558
2017/07/09/09:42:22.668360,292733,1499564545,468996456,,0.828741054057,0.34771379465,0.212918290028,0.702125745881,0.704670551208,0.0539617041219,0.0868733890209,0.0702618925238,-0.321702456589,-0.0276898938637,0.0568320556422,-0.0635016000161,-0.457464615392,-1.5128390789,-0.512302875519,1.88314723969,-0.109060637653,-0.240103051066,0.142211779952
2017/07/09/09:42:22.678334,292734,1499564545,479001224,,0.829420440647,0.344453809835,0.212875478158,0.703608431844,0.703125963953,0.0536658299237,0.0875730104116,0.0735708696666,-0.338244065258,-0.0218159718731,0.0402258145458,-0.0751099391851,-0.441501219172,-0.315773904324,-0.0978674292564,1.65809392929,-0.319540351629,0.182470321655,0.043651714921
2017/07/09/09:42:22.688286,292735,1499564545,488996381,,0.830168764478,0.340947912611,0.212574992733,0.70470274384,0.701969517191,0.0536992214014,0.0880297300868,0.089122248946,-0.362904977981,-0.0228772701481,0.0364900284005,-0.0993053642884,-0.482851400162,0.140365183353,0.134829208255,1.18147146702,-0.454187572002,0.249260485172,0.0124869942665
2017/07/09/09:42:22.698191,292736,1499564545,499001242,,0.831106392874,0.337868375125,0.212447803524,0.706876015678,0.699712997113,0.0545312278864,0.088058874144,0.0692680829786,-0.322373396284,-0.0382868921178,0.0249190154379,-0.0562072783599,-0.428712970453,0.226178318262,-0.00118431448936,1.08541607857,-0.384152531624,0.261285692453,0.0271757692099
2017/07/09/09:42:22.708424,292737,1499564545,508994590,,0.831477387637,0.335803166352,0.21214263983,0.707791855011,0.698798837905,0.0549915993874,0.0876743869085,0.0833556565815,-0.318433708263,-0.0201320582749,0.0684272972139,-0.107334532964,-0.440240295118,0.13767427206,0.00481143593788,1.00279808044,-0.392910838127,0.211876124144,0.0458945631981
2017/07/09/09:42:22.718414,292738,1499564545,519000353,,0.832175863894,0.331616081899,0.2116373919,0.709533274943,0.697000584228,0.0547364953088,0.0880717515196,0.0788911324679,-0.331175484607,-0.0237589593682,0.0703258774042,-0.0934911629584,-0.449380138572,-0.422454714775,-0.201376333833,0.915197432041,-0.327536314726,-0.0070492438972,0.0671210959554
2017/07/09/09:42:22.728447,292739,1499564545,528989960,,0.83284072903,0.328411508178,0.211408717943,0.710724780388,0.695745772659,0.0547393992021,0.0883838477594,0.0739361192573,-0.344101867239,-0.0464044243994,0.0385528493511,-0.0641514871362,-0.452781525371,0.121510997415,0.0355126857758,1.04392504692,-0.493931025267,0.213116154075,-0.0123594924808
2017/07/09/09:42:22.738345,292740,1499564545,538992530,,0.833806216447,0.325379940174,0.211622496612,0.712404341908,0.693917215973,0.055412914766,0.0888164392661,0.06674438483,-0.331256003818,-0.0342053368223,0.0404363033909,-0.0716945963162,-0.430927761923,-0.206989228725,-0.217712134123,1.18719649315,-0.342039912939,0.119836866856,0.0761412829161
2017/07/09/09:42:22.748225,292741,1499564545,548991143,,0.834803519406,0.321632426731,0.211013136409,0.71414660426,0.692041738791,0.0557156457828,0.0892671619891,0.0810058565051,-0.337011594936,-0.0160276761704,0.061620070464,-0.110651745847,-0.464012916326,-0.491125285625,-0.00502780079842,1.38256037235,-0.483422011137,0.0361611507833,-0.00820218026638
2017/07/09/09:42:22.758390,292742,1499564545,558993972,,0.834714472908,0.318299465615,0.210146860168,0.715717686978,0.690508458211,0.0551322817785,0.0889195883488,0.0707607424256,-0.344375721445,-0.0259069827974,0.0304904444729,-0.0860369477694,-0.437265685091,-0.395532101393,-0.0719081833959,1.40761828423,-0.439822584391,0.0590766407549,0.0173907727003
2017/07/09/09:42:22.768415,292743,1499564545,568988425,,0.83565478943,0.315058970206,0.2101815263,0.716687022106,0.689388226089,0.0554822774727,0.0895840552862,0.0565929582354,-0.361853852728,-0.0466344631808,0.0210503813564,-0.0331005187311,-0.470828650173,-0.738382697105,-0.148423463106,1.21811401844,-0.440200895071,-0.112246200442,0.00243879109621
2017/07/09/09:42:22.778264,292744,1499564545,578996018,,0.835731391837,0.312089904082,0.209780092651,0.718621190741,0.687428201414,0.0555027607937,0.0891375098609,0.0453330133147,-0.331356408075,-0.0391137740978,0.0208345864596,-0.0278898109175,-0.423390558525,-0.598741292953,-0.101467132568,1.16127085686,-0.435936510563,-0.0789428502321,0.0356983318925
2017/07/09/09:42:22.788523,292745,1499564545,589009283,,0.836190222223,0.309336794975,0.20924689467,0.719813025278,0.686177693836,0.0554282515978,0.0892025226475,0.0309764228442,-0.327165435926,-0.0562020293689,0.0318520480948,0.0154614993115,-0.42748209244,-1.10776424408,-0.29115998745,1.03047156334,-0.283793389797,-0.285376042128,0.104594893754
2017/07/09/09:42:22.798238,292746,1499564545,599000002,,0.837054976585,0.305023457538,0.209387904391,0.721414368945,0.6843882182,0.0554094901154,0.0900214611912,0.0430534425817,-0.328044460688,-0.0358935470681,0.0294165820097,-0.0218135884699,-0.429301575279,-0.367451608181,-0.111801490188,0.862463951111,-0.406817018986,-0.0624661073089,0.0212940648198
2017/07/09/09:42:22.808336,292747,1499564545,608986992,,0.837119490174,0.30149672287,0.208286718663,0.723303082045,0.682458615165,0.0549685283273,0.0897850265085,0.0350494817759,-0.364522953234,-0.0440603529144,0.0115623056068,0.00259273702227,-0.475089201395,-0.352755635977,-0.161686167121,0.999622344971,-0.399620562792,0.0321299545467,0.0416943430901
2017/07/09/09:42:22.818457,292748,1499564545,618986789,,0.837143471826,0.298121529443,0.207820964767,0.724778341183,0.680982935009,0.0545203540257,0.0893651463112,0.0311362929424,-0.381691836253,-0.0489470570898,-0.00121167746327,0.0117022547908,-0.484572673486,-0.321800231934,-0.0670648664236,0.915735244751,-0.472547590733,0.0338563323021,-0.0301856994629
2017/07/09/09:42:22.828119,292749,1499564545,629000647,,0.836995047139,0.295341392285,0.207242685278,0.726085390139,0.679656320072,0.0541824072624,0.0890593035927,0.0109865179525,-0.36596222285,-0.0632700886285,-0.00792748180039,0.063267934526,-0.456733761491,-1.10832929611,-0.162249520421,0.878939688206,-0.389059484005,-0.276426583529,0.061158567667
2017/07/09/09:42:22.838119,292750,1499564545,639006664,,0.837469463294,0.291751724651,0.206815692171,0.727576050853,0.678026005337,0.0541172271175,0.0893596779378,0.0144117864428,-0.312843098254,-0.0493377308023,0.0253732025864,0.0348337371186,-0.406003199243,-1.09906339645,0.0587253272533,0.928630709648,-0.529048740864,-0.231460630894,-0.00519885122776
2017/07/09/09:42:22.848397,292751,1499564545,648989019,,0.836799472651,0.288918783794,0.205281540308,0.72905231043,0.676646762618,0.0527911199034,0.088571919677,0.00784048112207,-0.355405116326,-0.0635510396172,0.00965590147949,0.0673482487909,-0.467553070056,-1.01442050934,-0.00122115015984,1.00663101673,-0.456581890583,-0.194342106581,-0.00194498896599
2017/07/09/09:42:22.858316,292752,1499564545,658991897,,0.83767200596,0.286267803284,0.205751372427,0.729865119707,0.675645076146,0.0535401705047,0.0890734991886,0.00652589854724,-0.33545907328,-0.0649486173254,0.011977183405,0.0682128631931,-0.434895162106,-1.0314040184,0.0864341706038,1.03871917725,-0.525394022465,-0.155292138457,-0.0123294368386
2017/07/09/09:42:22.868178,292753,1499564545,668988419,,0.837615967401,0.282081563963,0.205031572561,0.731898909948,0.673504770743,0.053008208214,0.0889125371694,0.0147346454787,-0.344834581541,-0.0569379877072,0.00837134896491,0.0347070410582,-0.430903099037,-1.40927958488,-0.0728085562587,1.13820827007,-0.440588504076,-0.274806469679,0.0155047774315
2017/07/09/09:42:22.878342,292754,1499564545,678996602,,0.837789300272,0.278742038363,0.203813376358,0.733104159029,0.672273222057,0.0524025141563,0.0886621871491,0.0157265787319,-0.335753423669,-0.0689740243063,0.0343753025389,0.0381298717247,-0.431436756452,-1.59775185585,-0.108150675893,1.40214657784,-0.428308784962,-0.281144678593,0.0230716988444
2017/07/09/09:42:22.888039,292755,1499564545,688988468,,0.838174018447,0.275747309504,0.203484699492,0.734608902141,0.670591259292,0.0527081126036,0.0887636114791,0.0042667481958,-0.340821288085,-0.0827525117973,0.0340186471462,0.0685177717043,-0.447292323402,-1.37181901932,-0.061728194356,1.42581665516,-0.482892811298,-0.135650798678,-0.0171177238226
2017/07/09/09:42:22.898109,292756,1499564545,698989463,,0.837925316568,0.272694056621,0.203347296871,0.735963269746,0.669162172087,0.0523894643646,0.0885177781943,-0.00753100007979,-0.330052212456,-0.0787007130378,0.0392203254038,0.0839463418483,-0.450988780265,-0.948577463627,-0.0638489201665,1.4654610157,-0.47843387723,0.0441564880311,-0.0518750026822
2017/07/09/09:42:22.908276,292757,1499564545,708994363,,0.838118956305,0.270472954168,0.202540812606,0.737244381065,0.667805049682,0.0525114152605,0.0880323206313,0.0152535743779,-0.348342338985,-0.0664787914681,0.012795609179,0.0327020587883,-0.45720462716,-0.889806747437,-0.110751569271,1.53203201294,-0.446499049664,0.0939667150378,-0.00961787998676
2017/07/09/09:42:22.918092,292758,1499564545,718991071,,0.838540962746,0.26649029763,0.201271899905,0.738834257376,0.666033791011,0.0520404411822,0.0884009153885,0.00508170717221,-0.338887792401,-0.0701669458623,0.0321057580627,0.0450278554662,-0.44283567768,-1.32385158539,-0.315754950047,1.42183411121,-0.313015550375,-0.0728620588779,0.0297189205885
2017/07/09/09:42:22.928358,292759,1499564545,728992002,,0.838446406389,0.262511435367,0.200763014186,0.740223962217,0.664532991397,0.0514413327987,0.0884204636085,0.0142284880986,-0.336934508016,-0.0767154050514,0.0216822232483,0.029383023759,-0.417743340758,-1.64903926849,-0.330524176359,1.16174423695,-0.271976113319,-0.242472499609,0.0556498877704
2017/07/09/09:42:22.938477,292760,1499564545,738994708,,0.838483067624,0.259905322397,0.199997798865,0.741317494706,0.663371602228,0.0513980096966,0.0880041703512,0.0147369227797,-0.349254883127,-0.068799548932,0.00458414510528,0.0251249056233,-0.435164684749,-1.94308567047,0.0958576649427,0.839949905872,-0.523449718952,-0.481950253248,-0.0376778095961
2017/07/09/09:42:22.948294,292761,1499564545,748993187,,0.838540592816,0.255965041085,0.19954127795,0.743367804962,0.661065966032,0.0508896382158,0.0883534935462,0.0207839354013,-0.351303630283,-0.0647082990582,0.0157025706678,-0.00137155362937,-0.441955659926,-2.23310089111,-0.055988445878,0.636652290821,-0.495314508677,-0.635731816292,-0.0176397040486
2017/07/09/09:42:22.958476,292762,1499564545,758992900,,0.838926955414,0.25273710345,0.19858023168,0.744467998452,0.659820176324,0.0509707306237,0.0883556382788,0.0279402180433,-0.329974983472,-0.0726856069366,0.0292564115215,-0.01769334794,-0.427088824759,-2.43149065971,0.0738637447357,0.426715612411,-0.483949959278,-0.727050960064,-0.0173145234585
2017/07/09/09:42:22.968524,292763,1499564545,768991442,,0.839911919254,0.251258228621,0.198372006221,0.745432977431,0.65861642961,0.0521398887317,0.088518398143,0.037787786315,-0.325284565141,-0.0790304222391,0.0493476207718,-0.0366655280975,-0.424129971524,-2.51304197311,-0.100003428757,0.436390340328,-0.433210015297,-0.715544581413,5.47841191292e-05
2017/07/09/09:42:22.978409,292764,1499564545,778995712,,0.839982620314,0.246759416929,0.196816795834,0.747352800621,0.656496690464,0.0515329156179,0.0884321515154,0.048463513734,-0.326510596169,-0.0652159593741,0.0450741107619,-0.0800656323115,-0.43031574834,-2.82189416885,0.0192694216967,0.546792864799,-0.500467598438,-0.79342341423,0.0103553310037
2017/07/09/09:42:22.988293,292765,1499564545,788992384,,0.840521511946,0.244442457193,0.196472224911,0.748605700643,0.654997824228,0.0521530849601,0.0885856136769,0.0430276707224,-0.322632873929,-0.0774168873386,0.0645512973985,-0.064097467461,-0.408728104754,-2.486068964,-0.0976428538561,0.519467830658,-0.468020111322,-0.638745009899,-0.0240107104182
2017/07/09/09:42:22.998236,292766,1499564545,798995113,,0.841150573247,0.241216255578,0.195693823811,0.749848817808,0.653510403532,0.0529603654028,0.0885782287299,0.0580582202143,-0.312021673077,-0.0746227669444,0.0819897106865,-0.10788194572,-0.421465302695,-2.16329693794,0.117953509092,0.405482947826,-0.519614517689,-0.522133767605,-0.0138815119863
2017/07/09/09:42:23.008348,292767,1499564545,808994271,,0.841726488485,0.237053665543,0.195089994052,0.751328326581,0.651723525792,0.052794381817,0.0893025467455,0.0528316882229,-0.325673754698,-0.0738863211201,0.0460020023775,-0.100190433072,-0.404986701669,-2.40134692192,0.0753500983119,0.175467848778,-0.562485635281,-0.663190126419,-0.067356467247
2017/07/09/09:42:23.018519,292768,1499564545,818994966,,0.842308599427,0.234471974651,0.194042162863,0.752094953026,0.650776002999,0.0532355010788,0.089497245647,0.0558758482568,-0.354470306964,-0.0816083765488,0.0367438666913,-0.109384704624,-0.471522293982,-2.09152770042,0.0576166957617,0.106077350676,-0.543354034424,-0.561650276184,-0.011546432972
2017/07/09/09:42:23.028485,292769,1499564545,828987534,,0.842775000909,0.231110184474,0.1930303669,0.753791947757,0.648739347128,0.0533889446843,0.0899142901364,0.0505958831679,-0.322756110162,-0.100490286317,0.0577739656433,-0.0817362142291,-0.407158092596,-2.13328671455,0.0262206494808,-0.0215556249022,-0.504619657993,-0.631643712521,-0.0295285061002
2017/07/09/09:42:23.038260,292770,1499564545,838995389,,0.843535562799,0.228168491875,0.192489797051,0.755139882204,0.647096940985,0.0543288171579,0.0898759528382,0.0579130410517,-0.327863224541,-0.0868651329933,0.0543376335659,-0.115697008129,-0.419980251873,-2.94704651833,0.303015053272,-0.0467535480857,-0.629597425461,-0.963707089424,-0.0444173291326
2017/07/09/09:42:23.048359,292771,1499564545,848988316,,0.843961543754,0.224136360306,0.191549420796,0.756259815852,0.645692786779,0.0543773347016,0.0905263580359,0.06502484513,-0.335651686259,-0.0810563808488,0.0460370767446,-0.143652932948,-0.433146205531,-2.71504187584,-0.0134266912937,0.155154749751,-0.507286727428,-0.84576433897,-0.0110357701778
2017/07/09/09:42:23.058389,292772,1499564545,858994964,,0.844323265444,0.222290171565,0.190301221591,0.757555611067,0.644175658635,0.055030996427,0.0901044193966,0.0551179246902,-0.317767631331,-0.101049658043,0.0611751987194,-0.118235358086,-0.403893543036,-2.67406964302,0.010261669755,0.325755387545,-0.511775016785,-0.786092281342,-0.0471770055592
2017/07/09/09:42:23.068419,292773,1499564545,868992864,,0.84510257602,0.219140989054,0.189667657945,0.758413116746,0.643010046073,0.0553526818534,0.0910148647614,0.0579389890178,-0.317758627963,-0.102708734211,0.0599265293443,-0.122233382401,-0.410969465436,-2.41939163208,0.106459878385,0.443237960339,-0.52142059803,-0.721673727036,-0.0189391672611
2017/07/09/09:42:23.078392,292774,1499564545,878996097,,0.84541766515,0.216153156562,0.18858108157,0.760018980848,0.641132071688,0.0556807192549,0.0906668236284,0.0598972405152,-0.287004414209,-0.0911012892452,0.0625155039274,-0.128906611851,-0.360845915418,-2.65895700455,0.149466842413,0.494678646326,-0.502688407898,-0.813211321831,-0.0205592922866
2017/07/09/09:42:23.088315,292775,1499564545,888995634,,0.845988125363,0.21308647681,0.18781820585,0.761087794246,0.639751134954,0.0561469966097,0.0911667129274,0.0497093505009,-0.336231660926,-0.101030144537,0.0497623118998,-0.10351553045,-0.419424774843,-2.28857350349,0.190556287766,0.337666451931,-0.572990953922,-0.718636035919,-0.0344379395247
2017/07/09/09:42:23.098309,292776,1499564545,898996822,,0.846077380471,0.210018062,0.186343460159,0.762469355892,0.638115829702,0.056193209604,0.0910548867671,0.0477175421264,-0.342058189218,-0.10244594007,0.0673600340442,-0.102863767691,-0.440350027164,-2.47920799255,0.0392571762204,0.193771854043,-0.504441082478,-0.831728518009,-0.0361232049763
2017/07/09/09:42:23.108784,292777,1499564545,908990129,,0.8465057454,0.205798228858,0.185027481959,0.764161407559,0.636036380562,0.0562124806904,0.091406907913,0.0416436148365,-0.31401432859,-0.106526157353,0.0663580499185,-0.0925794981426,-0.398627582394,-2.4755012989,0.273723483086,0.0357652381063,-0.620032072067,-0.850827932358,-0.0676671713591
2017/07/09/09:42:23.118352,292778,1499564545,918995695,,0.847313510113,0.203552736924,0.184771332002,0.765432780473,0.634379771043,0.0572669404571,0.0916267548288,0.0375732508295,-0.332739263667,-0.114402122,0.067122393115,-0.0744165819837,-0.443198855863,-2.20933127403,0.353412210941,-0.116139523685,-0.693478941917,-0.763460993767,-0.095623165369
2017/07/09/09:42:23.128103,292779,1499564545,928992335,,0.848003985653,0.201113120429,0.183992689612,0.765967174037,0.633615529693,0.0579240397703,0.092035071829,0.0444059424093,-0.319423992448,-0.112924895512,0.0635944621823,-0.0874904088019,-0.411264483047,-1.89049124718,0.171550214291,-0.311256676912,-0.619830429554,-0.627107083797,-0.111232623458
2017/07/09/09:42:23.138386,292780,1499564545,938994946,,0.847766568822,0.197712030439,0.182195762829,0.767414586592,0.63196578073,0.0574350420621,0.0916259800209,0.0308693851373,-0.335697199675,-0.122752111999,0.0504434259739,-0.0609515136404,-0.423983127832,-2.95492625237,-2.11614394188,-0.978872895241,-0.0665752142668,-1.0895229578,0.114494502544
2017/07/09/09:42:23.148429,292781,1499564545,948988374,,0.847935664383,0.195032121774,0.180365089599,0.768434843126,0.630784379943,0.0574816277716,0.0911856367989,0.021857966942,-0.318514687009,-0.124192826412,0.0585723008763,-0.0338958857979,-0.396192066394,-3.25150990486,-1.55046796799,-0.875230848789,-0.254923015833,-1.1367982626,0.0513146109879
2017/07/09/09:42:23.158372,292782,1499564545,958994711,,0.847346729156,0.191470740455,0.17889462771,0.770356108986,0.628547112044,0.0571471161296,0.0906322260918,-0.00189777292173,-0.311616965871,-0.127967144116,0.0443330925891,0.011653838961,-0.391184594521,-3.7651848793,-1.16160368919,-0.679309308529,-0.185392200947,-1.27070188522,0.150098323822
2017/07/09/09:42:23.168388,292783,1499564545,968995152,,0.847781513801,0.188301331939,0.178605643793,0.771332866147,0.627255214146,0.0575711906995,0.0910058455849,-0.00769324923993,-0.297683583717,-0.137143812508,0.0833427450369,0.0233443230132,-0.387780231451,-3.9125828743,-1.3300062418,0.0206028483808,0.0972130820155,-1.35127806664,0.227600038052
2017/07/09/09:42:23.178573,292784,1499564545,979008924,,0.847243694835,0.186422656236,0.1768525604,0.772038310722,0.626546830061,0.0571843587187,0.0901435834493,-0.00194341597729,-0.316295518453,-0.12024758068,0.0813295243242,0.00431543749903,-0.382674556005,-4.59765052795,-0.60242331028,-0.260037600994,0.102966532111,-1.60338795185,0.239079415798
2017/07/09/09:42:23.188439,292785,1499564545,988996272,,0.847750193846,0.182840502769,0.176180506086,0.773520514639,0.624636344408,0.0576982613287,0.0903679219469,-0.0229239649761,-0.288942985866,-0.13495820015,0.100815254095,0.0600862615948,-0.371200100636,-4.00634765625,-1.21740221977,-0.258589178324,0.158063128591,-1.4749045372,0.197496056557
2017/07/09/09:42:23.198347,292786,1499564545,998994313,,0.847083761475,0.180179693753,0.174412770284,0.775004304968,0.622968198673,0.0570609944987,0.089571165165,-0.0261573974493,-0.300676682506,-0.152891353843,0.097472804506,0.081539929286,-0.380626656168,-3.06640458107,0.646519422531,-0.515118718147,-0.937891662121,-1.03413820267,-0.261712491512
2017/07/09/09:42:23.208259,292787,1499564546,8991680,,0.84689455545,0.177913810546,0.17288564568,0.776053693118,0.621755173241,0.0570422610364,0.0889232838028,-0.0220991476348,-0.268304897072,-0.15272285454,0.137835865351,0.0787757398333,-0.381452839297,-1.59638309479,2.88583445549,-0.583888351917,-2.22299480438,-0.461768865585,-0.664074718952
2017/07/09/09:42:23.218159,292788,1499564546,18994274,,0.846717941538,0.175210789264,0.171217360063,0.777372339151,0.620210812611,0.0570393215258,0.088189058517,-0.0201593827115,-0.25380901794,-0.145509074263,0.145732350371,0.0671683153337,-0.36380611948,-1.7557914257,3.37243461609,-1.18262529373,-2.61874389648,-0.475057810545,-0.784582257271
2017/07/09/09:42:23.228101,292789,1499564546,28993354,,0.846475392427,0.173259409176,0.169355164198,0.778271850874,0.619188597704,0.0569360805268,0.0875025105028,-0.0253379137482,-0.27742440321,-0.156498265327,0.119830249075,0.08308179274,-0.380579891216,-2.24568676949,3.06605243683,-0.926222145557,-2.19515419006,-0.583818376064,-0.582210242748
2017/07/09/09:42:23.238374,292790,1499564546,38995209,,0.845951597873,0.169337383995,0.168186971176,0.779331110003,0.61794187597,0.056181185954,0.0873758161536,0.000117474160052,-0.2828618876,-0.131899505437,0.0796361503539,0.0072717953799,-0.37954642935,-4.22693395615,0.764696538448,-0.766613721848,-1.07149040699,-1.27600717545,-0.234359458089
2017/07/09/09:42:23.248273,292791,1499564546,48988306,,0.846319886895,0.166465141358,0.167420189897,0.780791468877,0.61601112662,0.0565855353802,0.0877100404453,-0.021493460345,-0.30861253109,-0.143236159734,0.0419017297881,0.0536439758838,-0.386412823929,-5.23431825638,-0.491646438837,-0.618682026863,-0.467313796282,-1.69353282452,-0.0551470927894
2017/07/09/09:42:23.258396,292792,1499564546,58995568,,0.845945387661,0.163234836369,0.16556277577,0.781410735662,0.615298961235,0.055949342005,0.0876020640427,-0.0182245537612,-0.279879189702,-0.137521688734,0.00541113337728,0.0424080846186,-0.292464843027,-5.23131608963,-1.4315559864,-0.665260016918,-0.112581349909,-1.66262149811,0.0592706128955
2017/07/09/09:42:23.268024,292793,1499564546,68987741,,0.845628368143,0.161809058778,0.163949415265,0.781482721493,0.615333791954,0.0560307258792,0.0866581689406,-0.0261339444304,-0.267540106086,-0.149148381397,0.00824792611934,0.0666660583937,-0.203352891116,-4.80881071091,-0.322159469128,-0.941115617752,-0.384895354509,-1.56094622612,-0.0385440699756
2017/07/09/09:42:23.278358,292794,1499564546,79041121,,0.845388303419,0.158921734551,0.162687915849,0.780932140944,0.616101575147,0.0554389992278,0.0865468526667,-0.0334140386155,-0.269312287108,-0.160987578038,0.0222141167434,0.0921335060747,-0.0477253690032,-4.31822443008,-0.177201837301,-0.648504257202,-0.600701093674,-1.45161616802,-0.0933035761118
2017/07/09/09:42:23.288610,292795,1499564546,89043016,,0.845061409314,0.156979263197,0.161264718157,0.781595486983,0.615348694003,0.0553961442401,0.0859403672331,-0.0414020391388,-0.260403601804,-0.169912840289,0.0429126576757,0.130271529857,0.0688698622862,-3.56465220451,1.03225946426,-0.866333007812,-1.1259496212,-1.34942245483,-0.438851177692
2017/07/09/09:42:23.298373,292796,1499564546,99068938,,0.844947988417,0.15407091211,0.159522541035,0.782338261557,0.61443516642,0.0551140596396,0.0858994249114,-0.030373749277,-0.257850104835,-0.149685752349,0.0572983584627,0.0804765646306,-0.125254047854,-3.48292446136,0.894991159439,-1.22933840752,-1.08773005009,-1.35367488861,-0.385698467493
2017/07/09/09:42:23.308180,292797,1499564546,109047511,,0.844563594442,0.151969734017,0.157912628835,0.783077564098,0.613584601102,0.0548662056364,0.0854000314733,-0.0217460603596,-0.247241194436,-0.167282664648,0.0715917633281,0.0534796968191,-0.262973347912,-2.91029167175,0.992479085922,-0.261664181948,-0.957713484764,-0.923960626125,-0.332176923752
2017/07/09/09:42:23.318360,292798,1499564546,119039541,,0.845250226841,0.149248109268,0.156990485017,0.784246924219,0.611938381428,0.0555942603599,0.086008472865,-0.00294740285943,-0.267635763909,-0.144479070899,0.0213524355067,-0.009453845362,-0.310753081286,-3.37476825714,-0.270888268948,-0.118365764618,-0.484786838293,-0.982368052006,-0.210364222527
2017/07/09/09:42:23.328489,292799,1499564546,129040031,,0.845076550408,0.146603525859,0.155868002902,0.785182012085,0.610733997733,0.0554204127445,0.0861496939201,-0.00347392236479,-0.265677628115,-0.137535425961,0.0132226465674,-0.0116155560946,-0.289995742629,-3.41003513336,0.0821906477213,0.38443377614,-0.540860116482,-1.00915360451,-0.226307079196
2017/07/09/09:42:23.338359,292800,1499564546,139042623,,0.844957611622,0.144609738779,0.154383236158,0.785838938088,0.609960741664,0.0552336882036,0.0857571962055,-0.00263507135647,-0.240427967567,-0.136835236672,0.0414696008101,-0.00632345129957,-0.246666507071,-3.04633164406,0.347426891327,-0.358205467463,-0.675944745541,-0.886393427849,-0.29593911767
2017/07/09/09:42:23.348711,292801,1499564546,149035560,,0.844482887167,0.143537221345,0.152333621088,0.78652762164,0.609257010934,0.0551295535928,0.0845040078661,-0.0170463107139,-0.231389021981,-0.155518224146,0.0512629975715,0.0437169401073,-0.284865732701,-3.46735739708,1.00117754936,-0.567011833191,-0.845336794853,-1.17246544361,-0.325057774782
2017/07/09/09:42:23.358343,292802,1499564546,159037991,,0.844247870788,0.140048208183,0.150985704993,0.787720195524,0.607692710799,0.0547581863835,0.0848999636641,-0.0336169885779,-0.217840540398,-0.174040163925,0.071937445602,0.0866293674003,-0.292614807209,-3.23537564278,0.367753386497,-0.812975287437,-0.733241558075,-1.12617838383,-0.28194668889
2017/07/09/09:42:23.368306,292803,1499564546,169035678,,0.844001056162,0.138740780519,0.149315044555,0.788260157445,0.60708115467,0.0548180338067,0.0842222001556,-0.0294390007834,-0.220847995115,-0.158889642215,0.0654000233125,0.0695816493454,-0.269486380858,-3.38928771019,1.00597000122,-0.371074080467,-0.796374797821,-1.17045640945,-0.272874444723
2017/07/09/09:42:23.378358,292804,1499564546,179040189,,0.843672450003,0.135646981691,0.148063798659,0.789188620823,0.605891663923,0.0543784540391,0.0843776990006,-0.00463481891492,-0.239022096852,-0.123820204769,0.0474991630739,-0.0180357948598,-0.27882894016,-3.39024996758,1.00385630131,-0.58930182457,-0.930859684944,-1.09929740429,-0.366358757019
2017/07/09/09:42:23.388473,292805,1499564546,189043121,,0.843949586166,0.13378676803,0.147031253052,0.789788665159,0.605066836849,0.054844485699,0.0843805055666,-0.0211689135482,-0.255763323475,-0.141283356795,0.0506230399616,0.0201683280999,-0.31763085176,-2.42714190483,0.907630205154,-0.295800894499,-0.868424415588,-0.700818300247,-0.407317399979
2017/07/09/09:42:23.398337,292806,1499564546,199036721,,0.843082737203,0.131817496342,0.144663930239,0.790706631039,0.604068878735,0.0543749584339,0.0832296658011,-0.0181067954454,-0.241912714513,-0.147915992937,0.0501059762816,0.0176266061505,-0.272126866087,-2.66539907455,1.36772418022,-1.28401362896,-0.82381439209,-0.715510249138,-0.33436435461
2017/07/09/09:42:23.408251,292807,1499564546,209037940,,0.843610479523,0.129710348017,0.144105572687,0.791409638296,0.603034126376,0.0550880986689,0.0835818654019,-0.0122954855741,-0.225572393433,-0.149840366309,0.0718870719636,0.00940347353231,-0.250506571759,-2.20921969414,1.10977721214,-0.73207205534,-0.714756548405,-0.571459710598,-0.318326920271
2017/07/09/09:42:23.418381,292808,1499564546,219035469,,0.843525553094,0.127207009713,0.142721805767,0.791927811438,0.602361500228,0.0549232758991,0.0836325192596,-0.00936187332897,-0.237588410664,-0.144103140161,0.0572184723053,0.000493174940618,-0.241566455128,-2.72435641289,0.95240020752,-0.751259922981,-0.791845560074,-0.764106929302,-0.317631065845
2017/07/09/09:42:23.428587,292809,1499564546,229039186,,0.843575992601,0.12452029283,0.141786126529,0.792724183804,0.601248837492,0.0550205580752,0.0840294116121,-0.000483208894886,-0.233221615764,-0.129391246098,0.0434272661537,-0.031213544074,-0.215455720256,-3.73022603989,0.608600437641,-0.528239965439,-0.709565162659,-1.13077270985,-0.288496315479
2017/07/09/09:42:23.438480,292810,1499564546,239043062,,0.843595089864,0.122805535842,0.140030842926,0.793432607343,0.600356886665,0.0553815274762,0.0834816905283,-0.00696430725654,-0.209782672961,-0.143196634167,0.0369652456449,-0.00711811904819,-0.165891814634,-4.81749391556,0.349609196186,-0.422254055738,-0.635929822922,-1.5726981163,-0.252151995897
2017/07/09/09:42:23.448406,292811,1499564546,249035165,,0.843327293002,0.120717695845,0.138696723109,0.793602553313,0.600137096704,0.0550749820421,0.0836492611297,-0.0143835502047,-0.19569700501,-0.160124071654,0.0620717046338,0.016958204199,-0.125624946938,-4.98972845078,0.221611440182,-0.240192383528,-0.615021169186,-1.63534092903,-0.241076052189
2017/07/09/09:42:23.458594,292812,1499564546,259045515,,0.843568476142,0.118312782131,0.137114957599,0.794036305031,0.599503816585,0.0555655590523,0.0837495602415,0.00964674605431,-0.236599029786,-0.146165709162,0.0235656175407,-0.0537539111104,-0.140371836394,-4.39139461517,-0.0327734649181,-0.162947297096,-0.521087408066,-1.48467671871,-0.225065916777
2017/07/09/09:42:23.468246,292813,1499564546,269043962,,0.84362062074,0.116681280152,0.135435738597,0.793710024504,0.599945605582,0.0557252887534,0.0835724807398,0.0126239857599,-0.226565770528,-0.155713919653,0.00953015495155,-0.0565338361888,-0.0622852102971,-2.66005921364,0.729056119919,-0.843760728836,-0.642134606838,-0.822473883629,-0.26148891449
2017/07/09/09:42:23.478771,292814,1499564546,279043341,,0.844260913394,0.113992660903,0.134781455962,0.793948131521,0.599466393623,0.0561989879713,0.0844279640975,0.0139019242692,-0.221511772888,-0.146326445593,-0.0187728363358,-0.0556099373356,-0.0272589298061,-3.28216028214,0.325964659452,-0.538038730621,-0.684623003006,-0.999612390995,-0.311125546694
2017/07/09/09:42:23.488316,292815,1499564546,289069258,,0.844320171913,0.11129863172,0.133195025564,0.793820681747,0.599564128904,0.0560602138424,0.0850225439877,0.0189441964854,-0.228766433077,-0.135474034302,-0.0262415199578,-0.0674719065989,-0.0172764553515,-3.13292956352,0.48484018445,-0.415853917599,-0.782039046288,-0.942999064922,-0.323171615601
2017/07/09/09:42:23.498276,292816,1499564546,299049385,,0.844317592664,0.108964296152,0.131735963162,0.793705538388,0.599685019255,0.0559891618037,0.0852913229736,0.02295094088,-0.230043771578,-0.138193677842,-0.0309752369954,-0.0807118473421,0.0204610214025,-2.86062407494,0.683803677559,-0.413463383913,-0.847626745701,-0.838621795177,-0.352631658316
2017/07/09/09:42:23.508416,292817,1499564546,309069605,,0.844321406119,0.107810426639,0.129713555088,0.79293678247,0.600734348341,0.0561495267636,0.0849513529821,0.0129521008131,-0.246890602228,-0.147252975118,-0.0632445711828,-0.0616846551355,0.0906835178889,-2.93467736244,1.15737175941,-0.94588971138,-0.910502135754,-0.90796238184,-0.33174225688
2017/07/09/09:42:23.518219,292818,1499564546,319036892,,0.844554571703,0.104791987949,0.128675425333,0.793196001924,0.600282570796,0.0565417806757,0.0854632363547,0.0112919669765,-0.242346831303,-0.16445284969,-0.0566729943273,-0.0464071688464,0.102440039879,-2.99337744713,0.602909624577,-0.979921877384,-0.805037379265,-0.952821433544,-0.306694686413
2017/07/09/09:42:23.528401,292819,1499564546,329042116,,0.844395776701,0.102666456913,0.126908109758,0.792625192002,0.601025398131,0.0560107433957,0.0858869747315,0.0179637068207,-0.237585926593,-0.152385507573,-0.0632336101559,-0.0608608542392,0.105884106877,-3.07411909103,0.827507615089,-1.05063772202,-0.844923853874,-1.00774633884,-0.30260309577
2017/07/09/09:42:23.538343,292820,1499564546,339043740,,0.844403352573,0.0993831097901,0.125224549248,0.791849557898,0.601959854914,0.055539681111,0.0867983556968,0.00706792991163,-0.245814823749,-0.156416402752,-0.101714466416,-0.0364145499531,0.138345272207,-3.4826977253,-0.0300564169884,-0.746409714222,-0.591148674488,-1.12570977211,-0.194815665483
2017/07/09/09:42:23.548431,292821,1499564546,349041484,,0.84507496195,0.0975647137954,0.124708126583,0.791172008398,0.602681514408,0.0560320682856,0.0876484605769,0.0122355798352,-0.265258255497,-0.140715320093,-0.130303265603,-0.0598007157083,0.148546051201,-2.98448109627,0.621437013149,-0.397051870823,-0.621883392334,-0.961480200291,-0.215155884624
2017/07/09/09:42:23.558327,292822,1499564546,359042961,,0.84500207323,0.0959987053399,0.122762873412,0.790653737281,0.603386404564,0.0558747814895,0.0875758146118,0.00156393799541,-0.266126733303,-0.141699958078,-0.156164155066,-0.0270418893261,0.183800989084,-2.53982377052,1.62376284599,-0.160552367568,-0.890052318573,-0.85216152668,-0.291140556335
2017/07/09/09:42:23.568220,292823,1499564546,369049595,,0.845027752562,0.0931319815659,0.120973651935,0.789791044797,0.604451759518,0.0553109015784,0.0883678682593,-0.0087557485539,-0.250647856458,-0.16690326589,-0.152263820769,0.0111868614775,0.225449178371,-2.5747563839,1.10981464386,-0.179235875607,-0.90717202425,-0.842994749546,-0.329118907452
2017/07/09/09:42:23.578510,292824,1499564546,379052915,,0.844948431951,0.0900932535454,0.119779463976,0.789123933437,0.605231331285,0.0547830343377,0.0893155779074,0.00172936930783,-0.253213546875,-0.153850194286,-0.168700629164,-0.0123754757412,0.25384003447,-3.36691260338,0.640511631966,0.237743407488,-0.76701515913,-1.07476401329,-0.261554062366
2017/07/09/09:42:23.588505,292825,1499564546,389048800,,0.844770927002,0.0890287106117,0.118015346517,0.787760774174,0.60707517597,0.0543687133653,0.0890883628756,0.0136293251209,-0.262533471994,-0.13964851528,-0.190078087911,-0.0425913625975,0.272603095182,-4.34897565842,1.39250719547,-0.321616262197,-0.694567918777,-1.37112677097,-0.231208056211
2017/07/09/09:42:23.598411,292826,1499564546,399048723,,0.844692805335,0.0855219767155,0.116842801892,0.787466474795,0.607343120967,0.0540801355919,0.0900345679312,-0.00677398294898,-0.251769712335,-0.15352929538,-0.163998274026,0.00974623333266,0.27384037925,-3.93584775925,0.994620084763,-0.00399701297283,-0.619158327579,-1.22884356976,-0.288660764694
2017/07/09/09:42:23.608069,292827,1499564546,409042765,,0.844169704872,0.0840264577897,0.114993556382,0.78666989072,0.60846351914,0.0538708119891,0.0895576045101,-0.0345816342803,-0.240150387113,-0.177573301634,-0.107263761223,0.0706902706251,0.270324046243,-2.92531847954,1.13994622231,-0.163521945477,-0.6563834548,-0.793508052826,-0.309712052345
2017/07/09/09:42:23.618261,292828,1499564546,419043454,,0.844352381444,0.0819487292333,0.113589023342,0.785815115396,0.609546815605,0.0539288303889,0.0896602769032,-0.0243291443516,-0.228742775278,-0.17766159358,-0.0660947329405,0.0440552757527,0.25524182,-2.23451137543,1.3096960783,0.119984567165,-0.660934448242,-0.576979398727,-0.278810739517
2017/07/09/09:42:23.628647,292829,1499564546,429041210,,0.843818504456,0.0803944518689,0.112066488071,0.785002137727,0.6106623522,0.0536909127949,0.089333203533,-0.0203435676769,-0.212633325459,-0.161888023461,-0.00916642247321,0.0257952092985,0.231708775039,-2.4659307003,1.07194530964,0.50910025835,-0.515078306198,-0.702670454979,-0.132039740682
2017/07/09/09:42:23.638416,292830,1499564546,439051881,,0.843781373212,0.0781610478179,0.110623219625,0.784330689131,0.611543127721,0.0537132829755,0.0891922432508,-0.0148106174909,-0.195410593159,-0.147427858946,0.00271379627534,0.017838661165,0.260093892748,-3.50270867348,1.54406988621,0.169236019254,-0.657066106796,-1.16023731232,-0.138715088367
2017/07/09/09:42:23.648430,292831,1499564546,449074116,,0.843100792556,0.0751275814455,0.108570096001,0.783697955315,0.61244188505,0.0528889022465,0.0890798310048,-0.0204380061082,-0.202252882482,-0.148237547354,-0.0046690910144,0.0352327539,0.265315691512,-4.04256105423,0.960372745991,-0.269060492516,-0.661946952343,-1.38345932961,-0.137167930603
2017/07/09/09:42:23.658352,292832,1499564546,459040384,,0.843414305455,0.0745088229868,0.107530600179,0.782978770735,0.613337267606,0.0537051568144,0.0887547005834,-0.0333052618478,-0.217268929798,-0.163315703674,-0.0346654088569,0.0669771549036,0.251602627255,-3.64543437958,1.43383395672,-0.32461643219,-0.705849587917,-1.23144364357,-0.110534369946
2017/07/09/09:42:23.668251,292833,1499564546,469048650,,0.84254815121,0.0719022282407,0.106189637329,0.782343266638,0.614238374047,0.052893767458,0.088614233387,-0.0386101321048,-0.187750471103,-0.15694664772,-0.00682498906056,0.0769381439331,0.267541593092,-3.24949193001,0.290763258934,0.00365173816681,-0.298598051071,-0.957897186279,-0.0533609837294
2017/07/09/09:42:23.678567,292834,1499564546,479036759,,0.84237508512,0.0692264197619,0.104636448645,0.78158210465,0.61517599097,0.0528093335993,0.0888768142432,-0.0481162366927,-0.215201592869,-0.163228549557,-0.040556038184,0.0918125202004,0.258223455156,-2.53987932205,-0.0138749629259,0.0142948776484,-0.324048906565,-0.661296069622,-0.0990660041571
2017/07/09/09:42:23.688420,292835,1499564546,489064543,,0.841156762702,0.068007168531,0.10270907336,0.780928503253,0.616257227539,0.0518461128269,0.0876908370184,-0.0595489645415,-0.218439914778,-0.16020303243,-0.0316357495125,0.112700599782,0.259797256482,-2.38586306572,0.836532473564,-0.366623163223,-0.583963215351,-0.651092648506,-0.185153603554
2017/07/09/09:42:23.698295,292836,1499564546,499042056,,0.840803617939,0.0661932850976,0.101326914331,0.780068126182,0.617390266589,0.0517230715904,0.0874511355032,-0.0729011297348,-0.20344521918,-0.162556588989,-0.0231873765672,0.151088373322,0.25302570784,-2.54472970963,0.971054971218,0.0335958637297,-0.564599990845,-0.743570387363,-0.140741378069
2017/07/09/09:42:23.708072,292837,1499564546,509040010,,0.840741240951,0.0650422371868,0.100310770729,0.778991485789,0.618769069279,0.0517185875529,0.0873057367701,-0.0640696468172,-0.180898971567,-0.149895856332,-0.00444180979141,0.133931158218,0.29120943344,-1.85639870167,1.25669789314,0.29864487052,-0.716187953949,-0.516019463539,-0.200915783644
2017/07/09/09:42:23.718350,292838,1499564546,519038463,,0.839321201483,0.0618264322471,0.0986578027023,0.778484755519,0.619563122993,0.0501828433215,0.0870902077614,-0.047708610713,-0.195161457022,-0.138729846828,-0.021561558448,0.090560590071,0.264649258907,-2.01503586769,0.525017678738,0.276584178209,-0.567480444908,-0.432192921638,-0.208646357059
2017/07/09/09:42:23.728376,292839,1499564546,529052109,,0.839018329734,0.0597913296409,0.0969394564966,0.777713822442,0.620599066553,0.0500036416404,0.0867043528201,-0.0618216911482,-0.216154273278,-0.138292048187,-0.0431367879032,0.115835274725,0.245146795895,-1.32791960239,-0.0152605473995,-0.316236525774,-0.463562965393,-0.180534899235,-0.214247077703
2017/07/09/09:42:23.738398,292840,1499564546,539043704,,0.838767360221,0.0589102616877,0.096010235615,0.776883214452,0.621683882921,0.0503677366185,0.086166768107,-0.0598450666112,-0.212967729018,-0.149374946867,-0.0331208412823,0.114880378722,0.246320481599,-1.9747377634,0.805912137032,-0.0525569133461,-0.599212646484,-0.455890595913,-0.2397826612
2017/07/09/09:42:23.748293,292841,1499564546,549036492,,0.839084759581,0.0570445674501,0.0953564942564,0.776182703808,0.622475261377,0.0505232936281,0.0866738489064,-0.0479880738218,-0.198964981864,-0.125401577192,-0.0269698862018,0.0936823265328,0.264912989814,-1.20051562786,1.35499227047,0.666519880295,-0.60167068243,-0.287268936634,-0.219471648335
2017/07/09/09:42:23.758348,292842,1499564546,559047845,,0.838337661423,0.0545225651779,0.0938712810149,0.77574839728,0.623113609444,0.049796392452,0.0863954463035,-0.0535002740807,-0.211419111334,-0.121806621845,-0.0289196983558,0.0944044745051,0.244936577544,-1.43461155891,1.07887136936,0.046602781862,-0.712757825851,-0.28136280179,-0.278879523277
2017/07/09/09:42:23.768512,292843,1499564546,569044046,,0.837145836951,0.0523480745371,0.0927446514054,0.774871468663,0.624353550489,0.0489177702466,0.0858131854588,-0.0721659926863,-0.191422350938,-0.139390237443,-0.0236234429684,0.148774474427,0.254875365661,-1.62991452217,1.01971745491,0.0570426061749,-0.77447783947,-0.317465931177,-0.30353808403
2017/07/09/09:42:23.778785,292844,1499564546,579049291,,0.836571765196,0.0501087689213,0.0912220155299,0.774235226114,0.625206867562,0.0485829253013,0.0855329571977,-0.0583052327963,-0.19522398152,-0.121411697953,-0.0489303505531,0.118510164473,0.269325755811,-1.5781545639,0.226701140404,0.335450291634,-0.571183204651,-0.323949694633,-0.229465097189
2017/07/09/09:42:23.788428,292845,1499564546,589039470,,0.836366480033,0.0485380339377,0.0905182154024,0.773328812632,0.62636027595,0.0484164699363,0.0853885103736,-0.0455685736002,-0.197064124143,-0.107673356522,-0.0323580291057,0.0839475182421,0.262415768898,-0.895820319653,0.74153226614,0.180023193359,-0.57883810997,-0.145333558321,-0.235931813717
2017/07/09/09:42:23.798393,292846,1499564546,599049211,,0.835207484992,0.0463037136533,0.0886417014351,0.772973863388,0.626954346258,0.0478553644613,0.084554824343,-0.0576334574031,-0.200185707211,-0.115953434077,-0.0254885708332,0.103093780877,0.256507557688,-1.27559804916,-0.209375336766,-0.227473959327,-0.333365857601,-0.172020450234,-0.158476412296
2017/07/09/09:42:23.808127,292847,1499564546,609041267,,0.835225825764,0.0450451415221,0.0881899110908,0.771660462436,0.628560932325,0.0474372415126,0.0848586659423,-0.0471842946343,-0.201472634642,-0.116313090992,-0.0220982886726,0.0816624281226,0.264947246598,-0.97186511755,0.589723229408,0.0850555971265,-0.428035140038,-0.0907402187586,-0.197423309088
2017/07/09/09:42:23.818166,292848,1499564546,619036549,,0.834435077168,0.0428328721754,0.0868512701417,0.771114273229,0.629322246733,0.0468313792602,0.0845169172729,-0.0726417616579,-0.196720088049,-0.124172696972,-0.0282015760285,0.143674465747,0.267903579176,-0.567831873894,0.563782691956,-0.235406056046,-0.512554585934,0.0832265615463,-0.2287568748
2017/07/09/09:42:23.828737,292849,1499564546,629060885,,0.833874099454,0.0413893638595,0.0856634256432,0.770263496742,0.630465796401,0.0465848215825,0.0838861106124,-0.0745643641687,-0.185825984084,-0.124678969305,-0.0305091819829,0.158752562384,0.287466586472,-0.251852303743,0.374431788921,0.0129793845117,-0.40683478117,0.183201670647,-0.210891842842
2017/07/09/09:42:23.838328,292850,1499564546,639048576,,0.833133661355,0.0395489312858,0.0846003025546,0.769329657978,0.631699072245,0.0461547130412,0.0834140392509,-0.0555182267123,-0.198985347609,-0.107715771274,-0.0483922362518,0.107126659614,0.278284611731,-0.190949469805,0.564041733742,-0.25875762105,-0.495033621788,0.21372847259,-0.246778964996
2017/07/09/09:42:23.848223,292851,1499564546,649048619,,0.832925622886,0.0385602699498,0.0838988362769,0.768233990023,0.633088536621,0.0460245423724,0.0830492797768,-0.0691860846213,-0.207544649003,-0.115919767764,-0.0223981917273,0.131879644833,0.258982685055,-0.148544803262,1.11713266373,0.200275033712,-0.558364212513,0.137841627002,-0.255065560341
2017/07/09/09:42:23.858206,292852,1499564546,659037292,,0.832163082625,0.0357547394632,0.0826954367832,0.767910568227,0.633530982422,0.0451776549875,0.0831314200874,-0.0478893372616,-0.170844918934,-0.104635254472,-0.0158104888888,0.0960380224908,0.305287932061,-0.450354248285,0.291714280844,-0.190659075975,-0.428209125996,0.118210360408,-0.211137369275
2017/07/09/09:42:23.868448,292853,1499564546,669048609,,0.832281474384,0.0338822552443,0.0824436968813,0.767028702474,0.634551183066,0.0454478585498,0.0833442127846,-0.0535541069675,-0.181923561914,-0.0982678348873,-0.0514859962055,0.112297240915,0.293205710453,-0.38548374176,0.200507506728,0.706210613251,-0.476011782885,0.107073619962,-0.209412500262
2017/07/09/09:42:23.878557,292854,1499564546,679049366,,0.831566270402,0.0325916502476,0.0813700612842,0.76609798108,0.635759972398,0.0449690390382,0.0829513496577,-0.0633742314887,-0.207093293818,-0.0953883985026,-0.0499347860421,0.112857741583,0.263402743532,-0.340789139271,0.500096201897,0.51023632288,-0.354165166616,0.127669662237,-0.153745934367
2017/07/09/09:42:23.888454,292855,1499564546,689048792,,0.831220918218,0.0302843845609,0.0806114711498,0.76497025031,0.637144082075,0.0443785459904,0.0830570856314,-0.0502490047008,-0.184424408348,-0.0900016762075,-0.0492255005337,0.0912400123472,0.288422062714,-1.08265435696,0.152284696698,0.510837733746,-0.419489920139,-0.168227508664,-0.153823435307
2017/07/09/09:42:23.898411,292856,1499564546,699040225,,0.829943986568,0.0282118260791,0.0788424968509,0.764721620197,0.637610549389,0.0436331422142,0.0821570435841,-0.0625911103437,-0.195805120275,-0.0983016104728,-0.0371314309049,0.11733219315,0.25966965199,-1.23862445354,0.577397286892,0.181223005056,-0.494120389223,-0.202994421124,-0.15780338645
2017/07/09/09:42:23.908046,292857,1499564546,709043638,,0.829552650061,0.0264871493141,0.0785408432432,0.763887483619,0.638630496143,0.0434229433028,0.0821063320344,-0.0445759311028,-0.179121951092,-0.0882380706642,-0.0347639837544,0.0845416762921,0.275272640351,-0.772399842739,0.931765913963,0.396287888288,-0.542645454407,-0.00850614905357,-0.164754226804
2017/07/09/09:42:23.918268,292858,1499564546,719051409,,0.829302600379,0.0255973900438,0.0774705645922,0.763113275664,0.639626429284,0.043272459544,0.0816312055055,-0.0473569942857,-0.157552851914,-0.0927566013643,-0.0258577758192,0.0908797201782,0.293873541083,-0.950427651405,0.79039722681,0.389638155699,-0.528390526772,-0.0645648762584,-0.14778894186
2017/07/09/09:42:23.928593,292859,1499564546,729049485,,0.828900147896,0.0235489625641,0.0770003202589,0.762082885558,0.640844412199,0.0428007384664,0.0819524964864,-0.0526857771991,-0.172277844034,-0.0920388344287,-0.0325543518456,0.0979716208766,0.245725417896,-0.566583037376,0.664209723473,0.323327511549,-0.453659892082,-0.00553881376982,-0.153929725289
2017/07/09/09:42:23.938425,292860,1499564546,739050795,,0.828240403554,0.0217341798457,0.0756256972768,0.761465482964,0.641671121646,0.0422581903243,0.0815029769457,-0.0516673926947,-0.195482081515,-0.0785609873325,-0.0388653598266,0.0803066306103,0.212002820309,-1.28135085106,0.542658150196,0.0573971793056,-0.333210885525,-0.264142364264,-0.0772641524673
2017/07/09/09:42:23.948517,292861,1499564546,749048829,,0.827061916412,0.0202168162009,0.0747651919912,0.760608442361,0.642851648215,0.0415970155206,0.0805372218045,-0.0621974118901,-0.177336134528,-0.0897229972889,-0.0315169671112,0.121261199123,0.277415979474,-1.42511069775,0.0386965572834,0.293909966946,-0.312363296747,-0.339508473873,-0.0978116691113
2017/07/09/09:42:23.958329,292862,1499564546,759042357,,0.827302348991,0.0188535594141,0.0741648883111,0.759927450499,0.643604768464,0.0420269845439,0.08072734703,-0.0516452652399,-0.164758723418,-0.0811864665861,-0.0173987982051,0.0950528434513,0.263586228877,-0.682935774326,0.206303924322,0.285731166601,-0.307079434395,-0.120520912111,-0.0935320928693
2017/07/09/09:42:23.968240,292863,1499564546,769035504,,0.826518651215,0.0169544780154,0.0735389586071,0.759556481043,0.644132015468,0.0413785013488,0.0803474852185,-0.0459593071554,-0.168181036988,-0.0755984135831,0.00560666508682,0.0668958434207,0.202822012508,-0.601416289806,0.318189918995,0.219477668405,-0.419759094715,-0.0446077659726,-0.124750681221
2017/07/09/09:42:23.978768,292864,1499564546,779042370,,0.826437917331,0.0161418475895,0.0725079513504,0.758867341295,0.64497419751,0.0417836715227,0.0798922252561,-0.0440383952425,-0.166448046039,-0.0846867117531,0.00301401777531,0.0665640926897,0.208887697568,0.539247572422,0.246362045407,-0.449866831303,-0.342343479395,0.426863729954,-0.160738140345
2017/07/09/09:42:23.988530,292865,1499564546,789045963,,0.826090729809,0.0133356477472,0.0715914632514,0.758678691142,0.645173408512,0.0412964348493,0.080327585706,-0.0318386176629,-0.149839477446,-0.0765275723234,0.021317855292,0.0368763981462,0.167356473753,-0.123321861029,-0.374681830406,-0.0837733894587,-0.299525350332,0.185335338116,-0.133699119091
2017/07/09/09:42:23.998229,292866,1499564546,799042684,,0.82603340436,0.0129491755736,0.0707228123304,0.75867283286,0.645227739691,0.0418871734085,0.0796376877892,-0.0281783546538,-0.153419465752,-0.0779988378137,0.0181197058597,0.0284975671354,0.0888619480046,-0.36472812295,0.234834104776,-0.00179310515523,-0.288284689188,0.100722312927,-0.104613021016
2017/07/09/09:42:24.008132,292867,1499564546,809041328,,0.82552316481,0.0113792773513,0.0698194095735,0.75886193929,0.645055182243,0.0415544128438,0.079407806492,-0.0236127166981,-0.145919559525,-0.0746276430687,0.0280547157627,0.0103953526626,0.0348635228428,-0.667766690254,-0.146845310926,0.156987428665,-0.158199965954,0.0937456414104,-0.0472950711846
2017/07/09/09:42:24.018276,292868,1499564546,819035277,,0.825410489714,0.010443252384,0.0693673701112,0.758227471562,0.645800701031,0.0416051480394,0.0793824135041,-0.0253781004103,-0.139595058199,-0.0783365870207,0.0225947087015,0.0194373686375,0.0180914822593,0.843277573586,0.345947057009,0.146976232529,-0.386566638947,0.59789699316,-0.187711775303
2017/07/09/09:42:24.028523,292869,1499564546,829035233,,0.825136148173,0.00889529394119,0.0690113434453,0.757450347004,0.646713699808,0.0414334708561,0.0794583525917,-0.0379584573191,-0.153934235656,-0.072269513669,0.0135704489366,0.0395030116413,0.0564486100174,-0.568782746792,0.36771863699,0.808098614216,-0.36270660162,0.0857081785798,-0.136286228895
2017/07/09/09:42:24.038397,292870,1499564546,839034885,,0.824751201442,0.00795058839881,0.0683782564491,0.756609277289,0.64775863378,0.0414694806789,0.0789394455061,-0.043209433744,-0.130159148294,-0.06782739429,-0.00634477361802,0.0726191487237,0.235448369971,-0.7873955369,0.630136728287,0.742516756058,-0.438015937805,-0.0549156330526,-0.144333213568
2017/07/09/09:42:24.048255,292871,1499564546,849043083,,0.8237366416,0.00665693410523,0.0672165234149,0.755805438808,0.648837227634,0.0409183698649,0.0780645739931,-0.0409297599125,-0.105578703793,-0.0702535976909,0.00133551933277,0.0803164294772,0.353942159729,0.922447741032,0.333661556244,-0.273666709661,-0.401142001152,0.553248167038,-0.158524245024
2017/07/09/09:42:24.058429,292872,1499564546,859045043,,0.823379275822,0.00577041533578,0.0664459584423,0.754519388143,0.650354120498,0.0405697331308,0.078064765557,-0.0536281525065,-0.131360233321,-0.0748596884718,-0.000552415804417,0.0965741289184,0.338096239877,0.0898542106152,0.40499150753,-0.137838676572,-0.375383257866,0.249206677079,-0.155875012279
2017/07/09/09:42:24.068611,292873,1499564546,869039761,,0.823195101572,0.00354111225806,0.0666405168389,0.754429804951,0.650421747811,0.0409353240257,0.0781762024102,-0.034217338557,-0.100535221431,-0.0635800039397,0.0303784399318,0.0503586451482,0.295003657396,0.239177078009,-0.42256706953,0.471430927515,-0.19944241643,0.363816559315,-0.138301879168
2017/07/09/09:42:24.078558,292874,1499564546,879043264,,0.823702632045,0.0038692875511,0.065777052455,0.753804241963,0.651120807932,0.0417065071067,0.0779834953142,-0.0297051492773,-0.136019101079,-0.056676577779,0.018655047578,0.019242618461,0.176342443286,2.01301860809,0.448527157307,-0.107475474477,-0.269303649664,0.941916406155,-0.137867227197
2017/07/09/09:42:24.088243,292875,1499564546,889036941,,0.822505227743,0.00177586568747,0.0647348157476,0.753917393913,0.651096647371,0.0409293116519,0.0775016798918,-0.0126378580333,-0.109643596778,-0.0615947851317,0.0396425005247,-0.0148152252528,0.106957343383,0.0143176726997,-0.18297855556,0.310918986797,-0.234978079796,0.355867981911,-0.139951527119
2017/07/09/09:42:24.098278,292876,1499564546,899038245,,0.822980632458,0.0018572157157,0.0646097773206,0.753282221324,0.651785142131,0.0416535099349,0.0775048943187,-0.0095031476585,-0.10700465397,-0.0392929357553,0.0100095464641,-0.0231602988066,0.0654874674185,-0.439336597919,0.764889359474,0.686791419983,-0.395337700844,0.178329512477,-0.122496679425
2017/07/09/09:42:24.108354,292877,1499564546,909036010,,0.823141175664,0.000267386504431,0.0647058619096,0.753039931543,0.651993832158,0.0419700933159,0.0779321217266,-0.00681436387584,-0.114264069306,-0.0303499471483,0.00288439980071,-0.0389805026036,0.0639542388104,-0.651794075966,0.426908612251,0.390719771385,-0.374746978283,0.160776302218,-0.163348913193
2017/07/09/09:42:24.118259,292878,1499564546,919039862,,0.82266511947,-0.000590648257664,0.0636942527724,0.751938799227,0.653308495077,0.0416999026621,0.0776992316301,-0.0212060463863,-0.112967609827,-0.0539313157303,-0.00582409899871,0.0146134171516,0.146794542447,0.0696281045675,0.0746784955263,0.0282060727477,-0.209940135479,0.422946691513,-0.119983181357
2017/07/09/09:42:24.128358,292879,1499564546,929035826,,0.821784066498,-0.00234371197329,0.0628568703532,0.75129980489,0.654133849459,0.040822633304,0.0774016974939,-0.0182027147276,-0.100128564729,-0.0558887044829,-0.0198766364714,0.0155169476817,0.267116225861,0.455981463194,-0.486065387726,-0.473265647888,-0.0731818377972,0.56388348341,-0.120643258095
2017/07/09/09:42:24.138383,292880,1499564546,939035763,,0.821761682118,-0.00336916075789,0.062716979004,0.75031807649,0.655230430537,0.041035239253,0.0775369339778,-0.0217626169132,-0.0859754689065,-0.0531410620238,-0.00781002575072,0.0325437168693,0.343038895794,1.72301483154,-0.529754340649,-0.448486745358,-0.167271494865,0.954918920994,-0.180604636669
2017/07/09/09:42:24.148449,292881,1499564546,949040342,,0.821345986029,-0.00456365641136,0.0624525710829,0.749010382666,0.656750712883,0.0406957292277,0.0774971316125,-0.0361011750639,-0.107417542414,-0.0579207664598,-0.033393242419,0.0608434123062,0.362947899516,0.723780453205,-0.480788528919,0.346337646246,-0.162565991282,0.543806612492,-0.1606220752
2017/07/09/09:42:24.158338,292882,1499564546,959043642,,0.821215448268,-0.0046701991497,0.0614394723979,0.748323736466,0.657585388769,0.0408071686848,0.076992317166,-0.0447688676844,-0.0942697435823,-0.0725718393179,0.0123871335963,0.0733039582786,0.299725173128,1.36348474026,0.340239971876,-0.186816424131,-0.313629150391,0.700084447861,-0.17437659204
2017/07/09/09:42:24.168388,292883,1499564546,969039831,,0.821464909803,-0.00492168351014,0.0613116673428,0.74782087831,0.658105276902,0.0413860901971,0.0771269733316,-0.0328032687487,-0.0859987142924,-0.0652463892932,0.000201014379923,0.0462178171239,0.214730465121,1.63595569134,0.108204215765,0.390517026186,-0.238884419203,0.804870247841,-0.149621814489
2017/07/09/09:42:24.178422,292884,1499564546,979042811,,0.820868849533,-0.00656852775237,0.0606847345518,0.747744126695,0.658226098967,0.0408088532627,0.0771476579532,-0.0122965847751,-0.0970279475409,-0.0437597379233,0.0116931973965,-0.0267175032189,0.10213918501,1.0116443634,-0.0681952089071,0.440839648247,-0.177210852504,0.742149293423,-0.155039802194
2017/07/09/09:42:24.188307,292885,1499564546,989040420,,0.821101030761,-0.00673063805712,0.0598695649008,0.747993288413,0.657919128865,0.041356965603,0.0770588201221,-0.00695257660982,-0.0782941350818,-0.0539586118827,0.0187150376969,-0.0315800337202,0.0195822511796,-0.206192582846,0.0617678761482,1.07465231419,-0.118842951953,0.338736742735,-0.0963224470615
2017/07/09/09:42:24.198356,292886,1499564546,999040365,,0.821037512077,-0.00775593531774,0.0599437544382,0.747839857933,0.658066198678,0.0414940383737,0.0772183257047,-0.0121613852207,-0.0949295096072,-0.0358362955278,0.0180202437906,-0.0346511488522,-0.0240405836769,0.212847948074,0.122913450003,0.231261238456,-0.177030712366,0.509668469429,-0.125810548663
2017/07/09/09:42:24.208352,292887,1499564547,9039003,,0.821228064957,-0.0077495922936,0.0598765042758,0.747313481229,0.658645766877,0.0420720326968,0.0770600974073,-0.0150855856729,-0.0812839361067,-0.0446923719182,0.0125037863172,-0.00731787378866,0.0496308569185,0.617352604866,0.602452874184,-0.0554938986897,-0.271486878395,0.522069096565,-0.153183862567
2017/07/09/09:42:24.218298,292888,1499564547,19040276,,0.820805029337,-0.00818090681631,0.0590197984033,0.74602405414,0.660149301652,0.042056353352,0.0766959797842,-0.0321720218814,-0.086094205655,-0.0626345710795,-0.00734476446513,0.0342868608915,0.181048073104,0.242733851075,0.594116508961,-0.375730454922,-0.382249504328,0.385491490364,-0.152958959341
2017/07/09/09:42:24.228792,292889,1499564547,29045633,,0.820325841576,-0.00908582839116,0.0581976449261,0.745518441212,0.660756425312,0.0421632964081,0.0763246792153,-0.0295828573599,-0.0728203685482,-0.0495688737231,0.00445634016336,0.0228952175429,0.271665406381,-1.22467339039,0.858011782169,0.197738274932,-0.446916520596,-0.254093259573,-0.154646530747
2017/07/09/09:42:24.238514,292890,1499564547,39043872,,0.820145651704,-0.010170600169,0.0584193503793,0.745550501559,0.660684730405,0.0423541786155,0.0765262058915,-0.0154953721637,-0.0488002206194,-0.0376923329817,0.042266383739,-0.0090288216256,0.255952606953,-0.709993541241,0.016576051712,0.752435326576,-0.234184712172,0.0302502792329,-0.10238148272
2017/07/09/09:42:24.248405,292891,1499564547,49035228,,0.819999206223,-0.00970078713,0.0574700126253,0.744913233984,0.661442023234,0.0426561337446,0.0760209049473,-0.00556548060754,-0.0286662496051,-0.0374230239478,0.0597091507678,-0.0384696438909,0.164015746137,0.0213759541512,0.539136946201,0.860124468803,-0.278830975294,0.361623883247,-0.16998283565
2017/07/09/09:42:24.258360,292892,1499564547,59040232,,0.819606324512,-0.0105019408357,0.0568415774118,0.744834527322,0.661555127145,0.0430028320768,0.0756114878204,0.00978461902823,-0.0183955243594,-0.0486883243896,0.0950954706341,-0.0764403501677,0.0788360268449,0.434801906347,-0.738176941872,0.602861046791,0.0495140403509,0.631739795208,-0.079409301281
2017/07/09/09:42:24.268189,292893,1499564547,69042825,,0.820447270433,-0.0104952828824,0.0569210202076,0.745009817307,0.661229883187,0.0441412922252,0.0760720712045,0.00986549325362,-0.044333261194,-0.0485228545951,0.102695616948,-0.0928121245174,0.0191477285054,1.58900678158,-0.107944458723,0.553718566895,-0.00338985770941,0.90382617712,-0.0502631105483
2017/07/09/09:42:24.278577,292894,1499564547,79049759,,0.81992969587,-0.0112109979256,0.0558643086602,0.745531331706,0.660695006037,0.0443251732877,0.0755011354501,0.0123429284449,-0.0260559950332,-0.0319140643166,0.104789668741,-0.0814687367062,-0.0308847731236,0.234286040068,-0.0675008744001,0.249414265156,-0.268570363522,0.495329171419,-0.120936065912
2017/07/09/09:42:24.288223,292895,1499564547,89037812,,0.819841758827,-0.0114390915582,0.0557787582074,0.745443361339,0.66078567286,0.0441962926491,0.0756516840108,0.0139484573093,-0.012467061705,-0.041421860432,0.103828345323,-0.0772588947876,-0.0455490422929,0.71541684866,0.369137614965,-0.0821324214339,-0.415484964848,0.571853041649,-0.12372995913
2017/07/09/09:42:24.298177,292896,1499564547,99039797,,0.821041694363,-0.0119756574816,0.0564494652121,0.745636610207,0.660362058421,0.0455510400865,0.0766361537686,0.022118241604,-0.030506581605,-0.0237160562304,0.0421612637154,-0.0932696796791,-0.0454013155853,1.01018226147,0.0174600630999,0.833864331245,-0.409241080284,0.579140067101,-0.179993629456
2017/07/09/09:42:24.308449,292897,1499564547,109037608,,0.820645735272,-0.0125323749083,0.0554364723781,0.745793176064,0.660228661974,0.0454731457365,0.0763075714539,0.0228830118533,-0.0515067234443,-0.00813680154467,0.00837654695408,-0.0962299735061,-0.0501011415282,0.288354456425,0.151216983795,0.0918569117785,-0.455954760313,0.38162958622,-0.176477253437
2017/07/09/09:42:24.318269,292898,1499564547,119041448,,0.821183247569,-0.0124029295858,0.0555935838676,0.74598178447,0.659930382637,0.0461189933862,0.0766557614298,0.0197626059762,-0.0334585274835,-0.0257450824165,0.00804039792971,-0.0782313956283,-0.0241928163796,1.14067351818,0.170343443751,0.20360955596,-0.379629075527,0.673701524734,-0.164764136076
2017/07/09/09:42:24.328382,292899,1499564547,129042804,,0.821826397188,-0.0120818303958,0.0555017760152,0.745357480984,0.66054729424,0.0466140406477,0.0771143879499,0.00373239980062,0.00330104581991,-0.0466923926646,0.0456375142856,-0.0264543401824,0.00613569065546,1.78718578815,-0.141676574945,0.41462007165,-0.1435290277,0.821729838848,-0.1132697016
2017/07/09/09:42:24.338596,292900,1499564547,139042837,,0.820962183828,-0.0130214794794,0.0547525939824,0.74593621332,0.659977232982,0.0464610053187,0.0764891664717,0.0197525739825,-0.031648679116,-0.0197850222906,0.0125332733055,-0.0833960200216,-0.00639983654871,1.41554784775,-0.511912345886,0.184572726488,-0.0658459961414,0.810899138451,-0.074321642518
2017/07/09/09:42:24.348474,292901,1499564547,149035050,,0.821292663679,-0.0128640814979,0.0543609872329,0.74561127151,0.660303761156,0.0465439752723,0.0767882358533,-0.00294324163673,-0.0399896384339,-0.0273831602102,0.00761045303897,-0.0308959077155,-0.0210590103855,1.06284737587,-0.496255636215,-0.138379275799,0.0195195972919,0.61821937561,-0.00904799625278
2017/07/09/09:42:24.358394,292902,1499564547,159038381,,0.821672434921,-0.0136331816199,0.0549732547209,0.745779351521,0.660016677146,0.047235839876,0.0772005191999,0.00191179962281,-0.0314696187153,-0.0225487895597,0.00123928022503,-0.0276255811115,0.0312284926425,0.792572796345,-0.479496985674,0.858308136463,-0.0229156389832,0.482704102993,0.0260569229722
2017/07/09/09:42:24.368262,292903,1499564547,169035448,,0.821630171891,-0.0129300430446,0.0543680377026,0.745377482257,0.660512142742,0.0473988230088,0.0767428811847,0.0189924674679,-0.00918019216849,-0.00255021833085,0.0123849964404,-0.0543952332631,0.0565687926975,0.79743885994,0.0971637964249,0.157372236252,-0.188268885016,0.510271549225,-0.0151437269524
2017/07/09/09:42:24.378623,292904,1499564547,179044725,,0.821927263822,-0.0126068655067,0.0547260773284,0.745157208303,0.660724798704,0.0476153183048,0.0769172071461,0.0125388922599,0.028051752922,-0.0256523082993,0.0394802508479,-0.0128598030817,0.0674163560709,1.55004155636,-0.139569476247,0.16249114275,-0.103756651282,0.750438630581,-0.0408961698413
2017/07/09/09:42:24.388474,292905,1499564547,189036040,,0.821080340031,-0.0139287369364,0.0541786715887,0.745452586779,0.660453598726,0.0468344578578,0.0768636347791,-0.00740025503756,-0.0118278138253,-0.0239965259487,0.0301577264205,-0.00381749482632,-0.00301477058178,1.07117414474,-0.545225203037,0.000804825685918,-0.0822640359402,0.636660516262,-0.0692007467151
2017/07/09/09:42:24.398018,292906,1499564547,199035397,,0.821710779444,-0.0137050102263,0.0542145461664,0.745601769029,0.660199957117,0.0476354113221,0.077103088335,-0.00284478345356,-0.0264398599961,-0.0134976025539,0.0155025338387,-0.0201302763004,-0.0287148480253,1.64427733421,-0.469232290983,-0.0388173609972,-0.0882169008255,0.810763955116,-0.0842755362391
2017/07/09/09:42:24.408301,292907,1499564547,209041698,,0.821323400548,-0.0141264219699,0.053663888718,0.745522792302,0.660336857324,0.0472005302669,0.0769617499802,-0.00442486860087,-0.012950942119,-0.011849362538,0.0110337287913,-0.00269843083058,-0.0190985984092,0.889356255531,-0.372299969196,0.0623356029391,-0.104998663068,0.606413185596,-0.0714657977223
2017/07/09/09:42:24.418168,292908,1499564547,219043074,,0.822096744524,-0.0129047047931,0.0538727765452,0.745686186479,0.66008522091,0.0483423282895,0.0768285866512,-0.000444675543907,0.000715903755198,-0.0243071415345,0.0318401675335,-0.00476719001635,-0.0106844143454,1.44495296478,0.272658109665,0.800110340118,-0.0999847725034,0.750565290451,-0.0686990916729
2017/07/09/09:42:24.428742,292909,1499564547,229040567,,0.821479649228,-0.0137095987223,0.0536565181725,0.745466569947,0.66038479499,0.0475250527767,0.0768952859178,0.00917120755789,0.00723612746742,-0.0122509970531,0.0116058494094,-0.0177018725017,0.00848502722271,0.136926591396,0.216227680445,0.680458664894,-0.0718782246113,0.35498893261,-0.020087249577
2017/07/09/09:42:24.438402,292910,1499564547,239036700,,0.821452044259,-0.0140657718128,0.0533703492194,0.745841940661,0.659968389476,0.0477028194075,0.0767200460318,0.00886058423438,0.00443802517543,-0.010415977836,0.00162650754653,-0.0146906761242,0.0338661532608,0.329836845398,-0.443558782339,0.86373436451,-0.0104909166694,0.458319038153,-0.053672157228
2017/07/09/09:42:24.448455,292911,1499564547,249045390,,0.821468409008,-0.0140016743095,0.0532846112184,0.74562702305,0.660202997552,0.0475896808805,0.0768606973365,-0.00270237090904,-0.032710108603,-0.00987986219888,0.0053763304155,-0.0143713198144,-0.046446318333,0.667550563812,0.0232342630625,0.374690890312,-0.159722283483,0.610790491104,-0.0710130035877
2017/07/09/09:42:24.458292,292912,1499564547,259042955,,0.820881269535,-0.014067277336,0.0527428694536,0.745646121087,0.660270122492,0.0472826502259,0.0762861615222,-0.00780956228916,0.00952558969573,-0.009941842937,0.0101593877501,0.0194004636896,-0.00115977646001,0.397075235844,-0.285196393728,0.178637132049,0.0316062346101,0.49951967597,-0.0113927051425
2017/07/09/09:42:24.468158,292913,1499564547,269035922,,0.82137599163,-0.0134215852132,0.0533152547907,0.745362946585,0.660561484855,0.0474790467352,0.076409048587,-0.00448412970713,0.02125619917,-0.000664956903309,0.0204381167122,0.0238271942099,0.0347484022244,0.880845665932,-0.523530364037,0.797936618328,0.0472947992384,0.579210937023,-0.0242751352489
2017/07/09/09:42:24.478605,292914,1499564547,279042352,,0.820707475391,-0.0139384989903,0.0528598722839,0.74557370061,0.660398289451,0.0470459586505,0.0760304808798,-0.0149638505384,0.0162036368512,-0.0116755301304,0.0127166035179,0.054779800014,0.0183821168817,1.3259100914,-0.564132094383,-0.233165934682,0.0381307303905,0.662912130356,-0.0595732890069
2017/07/09/09:42:24.488349,292915,1499564547,289047130,,0.821127091566,-0.012714504722,0.0531459272089,0.74529885938,0.660706359027,0.0473422711525,0.0758645286705,-0.0154767019355,0.0233318898404,-0.0101204408715,0.023502834721,0.0571847464168,0.016701688469,2.1890103817,0.0110928863287,-0.185508340597,-0.0283863842487,0.861726224422,-0.0643474534154
2017/07/09/09:42:24.498259,292916,1499564547,299041924,,0.820920885778,-0.0133594463453,0.0531708470979,0.745316581938,0.660705247509,0.0470619446005,0.0758745146487,-0.0195495295475,0.000451337119334,-0.00173788429924,0.010279625896,0.0471494864682,-0.0268843480834,1.6825530529,-0.109903566539,-0.418783605099,-0.0843843817711,0.634667217731,-0.0667128115892
2017/07/09/09:42:24.508407,292917,1499564547,309041498,,0.820360406602,-0.0128797858828,0.0524705320606,0.745278616263,0.660842170555,0.0467500893771,0.0752451918694,-0.0186711690724,0.0148996474596,-0.00543605375774,0.00351337198906,0.049641973771,0.0236173234858,1.93858516216,-0.343644320965,-0.473238319159,0.00259292125702,0.723117232323,-0.0654060766101
2017/07/09/09:42:24.518083,292918,1499564547,319042636,,0.82089332234,-0.0128759440106,0.0529940893878,0.745172197603,0.660871301037,0.0469693907383,0.075903858398,-0.0122181591258,-0.00067389373031,-0.0207093941884,0.0174577302196,0.0222211790755,-0.00781405337697,2.71981239319,-0.4258685112,-0.0717832073569,0.164363056421,0.970437645912,-0.027386713773
2017/07/09/09:42:24.528320,292919,1499564547,329067306,,0.820851647886,-0.0130385941672,0.0527833657149,0.745660910526,0.660316136869,0.0473093662588,0.0757246972127,0.00642280438618,0.00229615968008,0.00199072168275,0.00105765698281,-0.0200053955025,-0.00513894630088,2.56020545959,-0.649103879929,0.0065251449123,0.093169555068,1.02723646164,-0.0775786563754
2017/07/09/09:42:24.538300,292920,1499564547,339043292,,0.820497955641,-0.013650724809,0.0524690636185,0.745822566733,0.660161546379,0.0469444917778,0.0757076371706,0.0202425417616,-0.00336466734892,0.0135750604231,-0.0102974784427,-0.0440514934649,-0.00687165821312,1.9047267437,-0.743494927883,-0.310915708542,0.197354644537,0.876931667328,-0.0118433311582
2017/07/09/09:42:24.548329,292921,1499564547,349040609,,0.821106907353,-0.0139712713564,0.0531233768032,0.745625448963,0.660278304147,0.0474035302305,0.076342362113,-8.97470342127e-05,-0.000878756465579,-0.000612778666678,-0.00503188429741,9.91328863958e-05,0.013399918074,2.09599494934,-1.11950230598,-0.361716419458,0.27009883523,0.895697772503,-0.0025208517909
2017/07/09/09:42:24.558249,292922,1499564547,359051876,,0.821060315628,-0.0133586853846,0.0531565882235,0.745377782558,0.660614922375,0.0470540018545,0.0760644891783,0.0139498868733,0.00312681336353,0.00205198882099,-0.00539768150592,-0.0198368399647,-0.00202393805079,2.98857188225,-0.478170156479,-0.643974900246,0.0382168665528,1.1302741766,-0.0812419429421
2017/07/09/09:42:24.568280,292923,1499564547,369042576,,0.820720773661,-0.0135521292647,0.0531652498622,0.745634220214,0.66034597646,0.0470687778422,0.0758770793574,-0.00690899956789,-0.00541499072804,-0.00781494190449,-0.0258053061154,0.0299449472293,0.0227476633613,1.5414942503,-0.604662775993,0.170785650611,0.0542024746537,0.595296442509,-0.0447581633925
2017/07/09/09:42:24.578344,292924,1499564547,379039515,,0.82131034783,-0.0131336473954,0.0532227181892,0.745289450451,0.660684326342,0.0473136683419,0.0761660866819,-0.0056541592773,-0.0160476486645,0.00889216952467,-0.00724740671808,0.00652500952617,-0.0331104152998,0.75293636322,0.402114093304,0.0384606868029,-0.136352837086,0.236995980144,-0.067226305604
2017/07/09/09:42:24.588617,292925,1499564547,389037330,,0.82049222167,-0.0134555797012,0.052909394355,0.745462968513,0.660599643922,0.0465922374958,0.0756454653707,-0.00871301053663,-0.0231393853822,0.00582653733746,-0.0214507378361,0.0100427207261,-0.00618702664117,1.52603280544,0.172686010599,-0.350315243006,-0.00890140235424,0.583224654198,-0.0385650210083
2017/07/09/09:42:24.598367,292926,1499564547,399059734,,0.820929784884,-0.0138099947516,0.0531997877433,0.745627985677,0.66032638836,0.0470472666142,0.0761217611075,-0.00655668013707,-0.0112039501325,-0.00142151124732,-0.00358614472531,0.0050113881121,0.00425365428055,3.47126746178,-0.167931735516,-1.03022348881,0.0725857466459,1.27086687088,-0.066786877811
2017/07/09/09:42:24.608123,292927,1499564547,409043818,,0.820747767212,-0.0134883507478,0.0528738381845,0.745330883295,0.660692224238,0.0469556207751,0.0759132986712,-0.00725690057438,0.0199852451421,-0.0119856457614,0.0238320925061,0.0158765302656,0.015745951378,2.15693378448,-0.767125546932,-0.367404073477,0.249072924256,0.772441089153,0.0205541029572
2017/07/09/09:42:24.618417,292928,1499564547,419042971,,0.820856226229,-0.0135513863202,0.0530931195047,0.745482801633,0.660523365823,0.0465553361531,0.0761372205153,0.00747318519775,-0.00112659593369,0.00114136287746,-0.0188004025861,-0.0201001482468,0.00977468226852,2.4301109314,-0.670334875584,-0.0622536092997,0.182628750801,0.954682588577,-0.0388442575932
2017/07/09/09:42:24.628769,292929,1499564547,429041602,,0.820805501936,-0.0137789870253,0.0528561895016,0.745407399325,0.660567380526,0.0470884469506,0.0761657598976,0.00513009595803,-0.00553546972772,0.000274408677432,-0.00686109534592,-0.00836930323924,-0.0145746268603,1.95118200779,-1.04254066944,-0.217859834433,0.274290204048,0.79885840416,-0.00507330521941
2017/07/09/09:42:24.638373,292930,1499564547,439042807,,0.820961226146,-0.0139063261721,0.0530562228895,0.745713792337,0.660208955501,0.04717269399,0.0762221223551,0.00707970949559,-0.0104820234462,0.00890822749871,-0.00186464058891,-0.0273588353891,-0.0234368223222,1.65138483047,-0.934769868851,-0.456014364958,0.386288553476,0.644549131393,0.0671418756247
2017/07/09/09:42:24.648712,292931,1499564547,449037219,,0.820714358717,-0.0143238609894,0.0531205516283,0.745777308948,0.660166472001,0.0467509467893,0.0762284965021,0.0017490785602,0.00843383882725,-0.00266684019194,0.017137518505,-0.00305813336133,0.0144437241759,1.38196516037,-1.22837162018,-0.227233305573,0.297620892525,0.575754106045,0.00410731881857
2017/07/09/09:42:24.658299,292932,1499564547,459043443,,0.820828336477,-0.0132951630928,0.053205012826,0.745306117824,0.660711829729,0.0471877864506,0.075841819605,-0.00285420435271,0.000129285485118,-0.00387247857163,0.00064226217877,0.0152761360858,0.00201181075731,1.31901431084,-0.742293715477,-0.394276380539,0.274888724089,0.55584359169,0.00129649788141
2017/07/09/09:42:24.668217,292933,1499564547,469041717,,0.820528867431,-0.0127504254402,0.0524544219877,0.745268298807,0.66083422653,0.0468686321754,0.0753433418212,-0.00030041118086,-0.00420779107774,0.0048803773748,0.00351457898468,-0.00151717412531,-0.012157225111,1.60390770435,-0.403922080994,-0.834042191505,0.205472543836,0.677068769932,-0.00512632727623
2017/07/09/09:42:24.678545,292934,1499564547,479050149,,0.820823305623,-0.0141942961508,0.0532674189257,0.745533446216,0.660417584848,0.0469453901974,0.0763192278245,-0.011044189638,0.0178822167404,-0.0099001358547,0.0182834952037,0.0355814434452,0.017429146035,1.74445152283,-1.32161355019,-0.133968889713,0.379334330559,0.663006484509,0.0288358107209
2017/07/09/09:42:24.688542,292935,1499564547,489043173,,0.820691529161,-0.0136808288097,0.0531668766665,0.745452611954,0.660549440051,0.0469130578902,0.0759868776798,0.00163540806907,0.000253618515134,0.000143936933515,0.00539996402473,-0.00680316507983,-0.00428953028652,1.83787441254,-1.20095014572,-0.159505546093,0.503729641438,0.754073262215,0.0837520211935
2017/07/09/09:42:24.698642,292936,1499564547,499042893,,0.821096065203,-0.0125558079535,0.0529508650229,0.745236352146,0.660791508702,0.047421611221,0.0756872000817,-0.00688425124224,-0.0280997598987,-0.000312517026616,-0.0196790210857,-0.00165419415668,-0.02340791056,2.4333126545,-0.13648237288,-0.34492456913,0.147029533982,0.912492752075,-0.0284459590912
2017/07/09/09:42:24.708219,292937,1499564547,509041079,,0.820789389362,-0.0140028691628,0.0530314526363,0.745545791263,0.660422928508,0.046905436967,0.07617682465,0.00158228091498,-0.00070467025362,-0.00575366170259,-0.00334057660233,-0.00454843201463,0.0153135177255,3.46057629585,-1.01283311844,-0.872660040855,0.392553955317,1.32929575443,0.0124108269811
2017/07/09/09:42:24.718354,292938,1499564547,519041678,,0.820777846981,-0.0134572475691,0.0526230470821,0.745586029793,0.660403682505,0.0470346533539,0.0758695571024,0.000872991190257,0.00110652108508,-0.00530841511241,0.00333278379422,-0.00656477794815,-0.0119641983542,1.70562922955,-0.723344087601,-0.476291596889,0.254749149084,0.72900223732,0.00480560958385
2017/07/09/09:42:24.728451,292939,1499564547,529036373,,0.821277568588,-0.0130695934277,0.0530940603037,0.745259221357,0.660717768101,0.0473345800732,0.0761587908774,0.00720739158156,0.00151890421993,0.0077619350623,0.00383725374192,-0.0172039662314,-0.0243327238043,1.91476225853,-1.01363801956,-0.028658118099,0.326562076807,0.759862065315,0.00992634892464
2017/07/09/09:42:24.738546,292940,1499564547,539038823,,0.820287361287,-0.0140346930663,0.0529693036502,0.745675578975,0.66033161479,0.047040785879,0.0756125247104,0.00884212055428,0.0153173193156,0.00684411628909,0.0215282521534,-0.0182756503727,0.00821671635436,1.68999731541,-1.48505008221,-0.261620432138,0.444296061993,0.740327775478,0.0574776083231
2017/07/09/09:42:24.748451,292941,1499564547,549042859,,0.820228244993,-0.0134253535415,0.0525800496964,0.745687811665,0.660359085048,0.0466993717864,0.0754634680068,0.000212991829791,0.00616848458191,0.000374859565432,0.0174561894347,0.00277945664442,-0.00179020168791,1.39237833023,-0.942229986191,-0.528405070305,0.283389300108,0.662708938122,-0.00555767118931
2017/07/09/09:42:24.758609,292942,1499564547,559082790,,0.82077303751,-0.0140665062608,0.0531172078494,0.745887211201,0.660045472397,0.047033351835,0.0760270106589,-0.00285848701366,-0.0124166527714,0.0046680015969,-0.00673088563369,-0.00274343223996,-0.000374559385464,1.76706016064,-1.04348087311,-0.213659197092,0.30430278182,0.768842041492,0.0170958861709
2017/07/09/09:42:24.768291,292943,1499564547,569043002,,0.820795547292,-0.013231072157,0.053076379729,0.745529225374,0.660459412464,0.0472377809964,0.0758164272973,0.000241861977477,-0.00779745150324,-0.00130622712141,-0.00939639596626,-0.00499744387737,-0.00747984041319,2.26445889473,-0.0866589471698,-0.257577687502,0.104360371828,0.911265730858,-0.0498666465282
2017/07/09/09:42:24.778647,292944,1499564547,579054519,,0.820714907089,-0.013424285231,0.052745206684,0.745553994653,0.660439796363,0.0470056541538,0.0758879760842,0.00307875319836,-0.0147551108755,-0.00321499269509,-0.0201853352386,-0.0115283709755,-0.00436395885468,1.6935762167,-0.467652350664,-0.219828635454,0.287016063929,0.724367797375,0.0337486863136
2017/07/09/09:42:24.788194,292945,1499564547,589036794,,0.821233581339,-0.0130075989123,0.0530255571427,0.745590288128,0.660362312455,0.0476758359512,0.0757875530948,-0.0116812183818,0.00715815086504,-0.0135565999263,0.00423606043922,0.030960833333,0.015325515384,2.08257436752,-0.201508238912,-0.0643903911114,0.0698507204652,0.838939130306,-0.0630863010883
2017/07/09/09:42:24.798331,292946,1499564547,599054068,,0.82120954101,-0.0127164492993,0.0529787862285,0.745167810071,0.660841567792,0.0473920915301,0.0759430495325,0.00916867081738,0.000637136956513,5.32860917043e-05,-0.0131686599295,-0.0143120723667,0.00150763446785,1.86209392548,-0.0511528402567,0.0475267618895,0.099530339241,0.796431422234,-0.0621261373162
2017/07/09/09:42:24.808289,292947,1499564547,609041044,,0.821440434985,-0.013200203911,0.0530371176855,0.745692811255,0.660200698298,0.0478917878885,0.0760502850871,0.00412116582696,-0.00975348244239,-0.00706785102533,-0.00449771751693,-0.01360448045,-0.0145352190777,2.03451275826,-0.923254549503,0.148791864514,0.351125985384,0.889517784119,0.00825874507427
2017/07/09/09:42:24.818529,292948,1499564547,619043619,,0.820963764431,-0.0130718293873,0.0527041525551,0.745508231269,0.660481123588,0.0472044477212,0.0758544831208,-0.000973885839801,-0.00920378087462,-0.00442666254788,-0.0100424228761,0.000462320639532,-0.00499837640375,3.28092813492,-0.31929937005,-0.659330308437,0.121694669127,1.32001471519,-0.0958344489336
2017/07/09/09:42:24.828335,292949,1499564547,629034119,,0.820863346574,-0.0135842075322,0.0531916294077,0.745873824612,0.660049524235,0.0472094525159,0.0760140178453,-0.00474552968261,0.0132127681334,-0.00496220018156,0.0167701525314,0.0172333758156,0.00539216030254,1.80315351486,-0.449219673872,0.254317045212,0.223753288388,0.816079676151,-0.00441607087851
2017/07/09/09:42:24.838638,292950,1499564547,639040353,,0.820992914711,-0.0129431666766,0.0527025930503,0.745183225076,0.660849267028,0.0473019038801,0.0757808499762,-0.00647396911613,-0.00657102135054,0.00261998141173,-0.000601282627617,0.00873607268388,-0.0133945399104,1.20337224007,-0.461993694305,-0.224192559719,0.168575972319,0.607129275799,-0.0268552787602
2017/07/09/09:42:24.848599,292951,1499564547,649035903,,0.820690422877,-0.0138123744181,0.0524996335728,0.745981180669,0.659960133301,0.0473176848416,0.075668601429,-0.00110274496462,-0.00755004758901,-0.000713949067882,-0.000864135230198,-0.0018023573639,0.00981606108279,1.43757021427,-1.25600099564,-0.330340147018,0.35457777977,0.650692164898,0.0431022793055
2017/07/09/09:42:24.858241,292952,1499564547,659041872,,0.820382573348,-0.0132649596535,0.0525833529868,0.745480120454,0.660597226781,0.0469464085064,0.0752776773397,-0.00265915952732,-0.00446483163597,-0.00104062810639,-0.0128784943789,0.00886810728357,0.00815534250646,1.52695953846,-0.27021253109,-0.263748407364,0.124447405338,0.69650554657,-0.0422692224383
2017/07/09/09:42:24.868095,292953,1499564547,669040719,,0.820889063894,-0.0133929985906,0.0527929967049,0.745233181389,0.660796535173,0.0469916550396,0.0759422729256,-0.00495173043609,-0.00893693407347,3.77226826353e-05,0.00214396532148,0.00490369717243,-0.00933286095822,1.49200069904,-0.419507801533,-0.0807739272714,0.2191760391,0.677030920982,-0.00982663035393
2017/07/09/09:42:24.878514,292954,1499564547,679043263,,0.82085531794,-0.0132313389626,0.0529135449687,0.745382807899,0.660629225511,0.0471183047738,0.075850915919,0.00874981075919,0.00879713423322,0.00254954531161,0.00356901723063,-0.01020002098,0.000410322654547,3.05981063843,-0.217466637492,-0.741740345955,0.183201029897,1.24411916733,-0.0305655859411
2017/07/09/09:42:24.888401,292955,1499564547,689043273,,0.820786721538,-0.013907660564,0.052651993486,0.745517338474,0.660453816256,0.0469763480634,0.0761437939067,0.00600484137777,0.00718095352714,0.000523628172985,0.00579256262621,-0.0158302893736,0.00245336995744,1.81788182259,-1.13821744919,0.16320040822,0.445997536182,0.791906058788,0.0671276077628
2017/07/09/09:42:24.898380,292956,1499564547,699037992,,0.820447215048,-0.0133627849082,0.0522297017435,0.74574666565,0.660270717161,0.0472702619217,0.0752994891713,0.00177268051536,-0.000215587885539,0.0058318783323,-0.0119759836053,-0.00960692737663,0.0125161906968,0.973500490189,-0.637815356255,-0.306410610676,0.262530684471,0.548305988312,0.0191743075848
2017/07/09/09:42:24.908551,292957,1499564547,709043217,,0.821169183803,-0.0140665504073,0.0533400592316,0.74563396655,0.660274522895,0.0472277139113,0.0764008205586,-0.0175636584702,-0.0304909100034,-0.00795121745686,-0.00244333796206,0.0209887165506,-0.0574339222751,2.20160889626,-0.563098907471,0.367141991854,0.230270683765,0.870001852512,-0.0298176184297
2017/07/09/09:42:24.918445,292958,1499564547,719042755,,0.820851983449,-0.0138759232585,0.0528196598649,0.745654538145,0.660296596209,0.0472305885116,0.0760064884514,-0.000797929478386,0.00982923993324,-0.0105960959209,0.00675349544126,0.0162842583818,0.0154425011169,1.84565734863,-0.487983494997,0.429647386074,0.140115201473,0.760408580303,-0.032456740737
2017/07/09/09:42:24.928661,292959,1499564547,729036818,,0.820357374842,-0.0135238574711,0.0523764163173,0.7456772136,0.660366666941,0.0468771527037,0.0753915835124,-0.00391603582514,0.00242837358705,-0.00605410001534,0.00413868033271,0.0128091689191,0.0135098902631,1.15124928951,-0.615031540394,0.0997492298484,0.228666394949,0.542711019516,-0.00287909805775
2017/07/09/09:42:24.938234,292960,1499564547,739038106,,0.820340419283,-0.0138773418269,0.0520301387726,0.74543807828,0.660625181784,0.0467057038029,0.0755977372384,-0.00363716566953,0.000424698087767,0.00750114420042,-0.0105011064001,0.00831350608607,0.0131211324992,2.12438440323,-0.672702789307,-0.80955439806,0.235887244344,0.885516345501,-0.0244949162006
2017/07/09/09:42:24.948162,292961,1499564547,749043317,,0.820665254222,-0.0133940375921,0.0523459361519,0.745728031363,0.660268462521,0.0469875548736,0.0756797880977,-0.00629475660442,-0.0124753665995,-0.0043073373969,-0.00682255743487,0.0103242697526,-0.0184297222659,1.42394769192,-0.68703097105,-0.316060125828,0.392830789089,0.606763660908,0.0768834874034
2017/07/09/09:42:24.958443,292962,1499564547,759039246,,0.820559199402,-0.0133960645113,0.0521503540027,0.745594007475,0.660435804939,0.0471653159752,0.0754291491506,9.16375191197e-05,0.0153884307749,-0.00174147809183,-0.0015160387759,0.0102890391802,0.0227763093988,1.10690617561,-0.704822659492,0.0412008352578,0.294407218695,0.482034146786,0.0238961577415
2017/07/09/09:42:24.968013,292963,1499564547,769036208,,0.8209507313,-0.013168409855,0.0528306214769,0.745521748897,0.660469367036,0.0474225397833,0.0756877787324,0.00447177178601,0.00489074019015,-0.000163256788781,0.00221214355574,-0.00868207914494,0.00370319038087,1.26513385773,-0.550101101398,0.255803614855,0.295764118433,0.574971318245,0.0390379801393
2017/07/09/09:42:24.978655,292964,1499564547,779048434,,0.820519140724,-0.0140062902307,0.0522256002489,0.745760005803,0.660232236185,0.0469593579233,0.0756982612115,-0.00340631949752,0.00872090263032,-0.0145878156142,0.00711796958396,0.0105540606948,0.0106006690803,2.66877174377,-0.874916553497,-0.576008796692,0.299239903688,1.08015072346,-0.0103839747608
2017/07/09/09:42:24.988604,292965,1499564547,789043145,,0.820702358932,-0.0144556231776,0.0526586741361,0.746014330203,0.659894483668,0.0471118105305,0.0760418757288,-0.00533960247699,-0.0182708148596,-0.00254368874607,0.0126763229863,-0.00227183537617,-0.0349641431991,2.60770463943,-1.10740935802,-0.348787903786,0.366300314665,1.10303747654,0.0101274102926
2017/07/09/09:42:24.998471,292966,1499564547,799042672,,0.820882060092,-0.0138448165586,0.0525688701475,0.745529788853,0.660436829036,0.0472659768699,0.0759898428548,-0.000133801820177,-0.00570463590873,0.00517271874786,-0.009917448924,0.000193662902939,0.00666200516675,2.78861856461,-0.532327115536,-0.336676627398,0.134483829141,1.1402630806,-0.0565239712596
2017/07/09/09:42:25.008452,292967,1499564547,809040903,,0.82065494089,-0.0127534246489,0.0518714865229,0.745356107865,0.660729444563,0.0471318206339,0.0752294160488,0.0138019641192,0.0254743852355,0.00092111695834,0.0217794907292,-0.0155265810475,0.0134982718115,2.43530297279,-0.35895973444,-0.458962857723,0.266113817692,0.956154286861,-0.0103334859014
2017/07/09/09:42:25.018099,292968,1499564547,819071172,,0.820585733768,-0.0133321538282,0.0518587981139,0.745543961566,0.660496231396,0.0470810929523,0.0754473350758,-0.0055299601149,0.0159828018954,-0.00695104983083,0.0180481283595,0.020161643718,0.00537565911885,2.04890012741,-0.732453644276,-0.664562880993,0.253034472466,0.88918453455,-0.00851980596781
2017/07/09/09:42:25.028559,292969,1499564547,829039688,,0.820816873132,-0.013426801108,0.0527438369867,0.74567001581,0.660296598363,0.0475634690508,0.0756461904139,-0.00598995532175,-0.00737412122585,-0.00855776154277,-0.00696523405142,0.0122439836301,-0.0050972208154,1.14374184608,-0.684821426868,0.646650671959,0.32951682806,0.501380205154,0.0313762351871
2017/07/09/09:42:25.038409,292970,1499564547,839039573,,0.820496336747,-0.0133630914577,0.0522725403366,0.745561894614,0.660472025193,0.0471362525613,0.0754475906246,-0.00262878129371,-0.00201912351057,0.00220606498967,0.00709790269651,-0.0042077355847,-0.00379467807606,1.20516753197,-0.566473245621,0.0232457593083,0.276863515377,0.568777501583,0.0247041657567
2017/07/09/09:42:25.048331,292971,1499564547,849034994,,0.82120428653,-0.0134258654784,0.052595014646,0.745461183861,0.660487075562,0.047293852812,0.0762085156581,0.00368163543807,0.00444356440557,0.00335421849543,-0.0160804537685,-0.00399642293248,0.0288070338729,1.28113996983,-0.868878185749,0.419686585665,0.304568082094,0.538408339024,0.0382855534554
