time,.header.seq,.header.stamp.secs,.header.stamp.nsecs,.header.frame_id,.pose.position.x,.pose.position.y,.pose.position.z,.pose.orientation.x,.pose.orientation.y,.pose.orientation.z,.pose.orientation.w,.twist.linear.x,.twist.linear.y,.twist.linear.z,.twist.angular.x,.twist.angular.y,.twist.angular.z,.wrench.force.x,.wrench.force.y,.wrench.force.z,.wrench.torque.x,.wrench.torque.y,.wrench.torque.z
2017/07/09/09:32:43.279834,234794,1499563966,79316560,,0.784728805178,0.58082148923,0.246179170472,0.587567861942,0.799494044029,0.0800209589856,0.0957597373558,0.0539004446415,-0.254330573793,-0.0649845604204,-0.0610498172855,0.128719164902,-0.310842528507,1.58017671108,1.6221985817,0.881264567375,-0.63315474987,0.895951926708,-0.282963216305
2017/07/09/09:32:43.289998,234795,1499563966,89316736,,0.785485022474,0.577981479153,0.245729316229,0.589593987636,0.798069132132,0.0795492035322,0.0955851154654,0.0622986214972,-0.263376365336,-0.0664744278465,-0.0798217147064,0.105183074954,-0.313758484504,2.23964262009,1.68193042278,1.11511027813,-0.679745912552,1.18221437931,-0.27005147934
2017/07/09/09:32:43.300095,234796,1499563966,99315441,,0.786768235758,0.574829302254,0.245600315254,0.591118610609,0.796919233148,0.0789460147453,0.0962603282013,0.0611979141653,-0.257661145233,-0.0547313296204,-0.0571637325452,0.0975559382186,-0.30590983783,1.45777523518,1.09899020195,0.944915652275,-0.376892417669,0.923485577106,-0.206380426884
2017/07/09/09:32:43.309730,234797,1499563966,109318529,,0.786684534303,0.573385153555,0.244502155638,0.591595686064,0.796763858723,0.0783444426315,0.0951001891291,0.0686989943842,-0.245566020566,-0.0428179452361,-0.0368114178816,0.0738203410406,-0.293906144561,1.68531501293,1.25007236004,1.00725877285,-0.454722344875,0.997157335281,-0.217861235142
2017/07/09/09:32:43.320168,234798,1499563966,119318538,,0.787158384481,0.570837551388,0.244605120973,0.592968928297,0.795766786987,0.0777097126619,0.0954163055311,0.062652192117,-0.254572410501,-0.0485787212287,-0.0380053620655,0.0901687315778,-0.319823978365,2.28974747658,1.6722548008,1.07679522038,-0.697952389717,1.20301163197,-0.318156778812
2017/07/09/09:32:43.329883,234799,1499563966,129313065,,0.788122289887,0.567663274818,0.243995327575,0.594617127,0.794614738548,0.0770171093336,0.0953218465544,0.0480844201147,-0.233328865119,-0.0468999828179,-0.00877824931429,0.106247317486,-0.318868648387,1.82597315311,1.59184896946,0.960969150066,-0.629082381725,1.02581417561,-0.301090061665
2017/07/09/09:32:43.340195,234800,1499563966,139317779,,0.788915975679,0.564993233043,0.243488833277,0.595548355214,0.793953507737,0.0766879998212,0.0952834447172,0.0738872370771,-0.306425096931,-0.0445230769677,-0.0800853664319,0.0893650927982,-0.379159758597,2.06474804878,1.96997046471,0.83561360836,-0.845043957233,1.04874134064,-0.387095034122
2017/07/09/09:32:43.350334,234801,1499563966,149313696,,0.789893143242,0.561774312146,0.243570672744,0.597625271988,0.792410477834,0.0760668094346,0.0956216994368,0.0684708389407,-0.297909909023,-0.0521849250717,-0.0742139522369,0.102138206475,-0.338495716594,1.83518767357,1.79374706745,0.536366045475,-0.717121601105,0.975696086884,-0.339510142803
2017/07/09/09:32:43.359942,234802,1499563966,159319293,,0.78991869181,0.559743892315,0.242305459666,0.598778646227,0.791706744987,0.0749841112342,0.0950891467363,0.0794261226078,-0.28526391442,-0.0255698518788,-0.0411707228859,0.0505487243531,-0.360585125826,0.850803792477,1.15492761135,0.325211882591,-0.42111158371,0.611137211323,-0.222000956535
2017/07/09/09:32:43.370251,234803,1499563966,169310757,,0.79089658953,0.557668676967,0.242219267414,0.599433152526,0.791208106093,0.0751443710606,0.09498922046,0.0688404534867,-0.264777695899,-0.0468695518223,-0.0153001979516,0.0841968142171,-0.366691937471,1.43666434288,1.39286327362,0.284040361643,-0.571563899517,0.848231136799,-0.282076328993
2017/07/09/09:32:43.380154,234804,1499563966,179318845,,0.791531465858,0.554204070478,0.242295316359,0.601423800962,0.789744247099,0.0742949687404,0.0952559364542,0.0674809091147,-0.280418858607,-0.0405104274303,-0.0373782176176,0.0800974845001,-0.351809880621,1.68343889713,1.10836589336,0.256245553493,-0.450239807367,0.957101523876,-0.254210352898
2017/07/09/09:32:43.390112,234805,1499563966,189328881,,0.792551930504,0.551759639142,0.242292467236,0.60254486298,0.788860663388,0.0742818626566,0.0955026006709,0.0647734395531,-0.277420058057,-0.0550476288137,-0.0397327829669,0.095599082141,-0.335297990903,1.56944870949,1.18156647682,0.312103748322,-0.412226855755,0.970384716988,-0.237203508615
2017/07/09/09:32:43.400008,234806,1499563966,199315248,,0.793114149642,0.548966623902,0.240980531808,0.60403990212,0.787864682647,0.0733858871412,0.0949713117351,0.0849211863647,-0.297231618163,-0.0504257001865,-0.0631806774517,0.0628323293128,-0.352112961386,1.40530407429,1.14265429974,0.382029742002,-0.437083929777,0.907339155674,-0.265435129404
2017/07/09/09:32:43.410019,234807,1499563966,209320216,,0.793237286222,0.546785446629,0.240610125434,0.604962040311,0.787252786472,0.0726848928531,0.0947147629788,0.0746549941867,-0.280762694433,-0.0354963102052,-0.0401775555675,0.0632150793414,-0.343705395172,0.928058505058,0.841943502426,0.269666045904,-0.312877953053,0.680431544781,-0.219953909516
2017/07/09/09:32:43.419980,234808,1499563966,219316135,,0.79422142436,0.543315638018,0.240065900561,0.606465017483,0.786145776872,0.0719764520585,0.0948387601338,0.0645050840695,-0.291965840488,-0.0579616730919,-0.0414047865914,0.109286965898,-0.371697700134,1.24110651016,1.38640761375,0.426474899054,-0.586246430874,0.811336815357,-0.328325271606
2017/07/09/09:32:43.430115,234809,1499563966,229312267,,0.794799811846,0.541453192175,0.239510842477,0.607872433657,0.785126953929,0.071658364532,0.0945084620941,0.0721058136927,-0.279209619776,-0.044256596355,-0.0410757403212,0.0721125371826,-0.344524782743,1.21688818932,1.13023149967,0.574794232845,-0.499227017164,0.83573371172,-0.283333837986
2017/07/09/09:32:43.440076,234810,1499563966,239319476,,0.796024397509,0.537786878358,0.239209197061,0.609919154922,0.783562018884,0.0712832874723,0.0945932341638,0.0711618255887,-0.265072910887,-0.0469705270271,-0.0199127375137,0.071063234645,-0.344669630864,1.56368303299,1.44669866562,0.724814355373,-0.593953847885,0.997748672962,-0.33315217495
2017/07/09/09:32:43.449917,234811,1499563966,249314502,,0.796418637961,0.535380986735,0.238578013034,0.611062321564,0.782749431458,0.070702620267,0.0943785261827,0.0812422417185,-0.292184757549,-0.0359121720859,-0.0186813687784,0.0656862765635,-0.390524798037,1.23077714443,1.1252887249,0.575860083103,-0.43991497159,0.828651845455,-0.273114621639
2017/07/09/09:32:43.460049,234812,1499563966,259328420,,0.796796962361,0.532293585805,0.23792405878,0.611877710697,0.782211169637,0.0695489476725,0.0944155555192,0.0727374673868,-0.306520089292,-0.0365565133791,-0.0135737193961,0.0823213279982,-0.398758686728,1.11360538006,1.00642478466,0.433680176735,-0.382001549006,0.743424057961,-0.273838043213
2017/07/09/09:32:43.469933,234813,1499563966,269311556,,0.797632471682,0.529173438041,0.237793311382,0.614072753301,0.780529487163,0.0692311800654,0.0943155184987,0.0591980825564,-0.303517288635,-0.0449190178528,-0.0294452626326,0.102345916838,-0.391880196845,0.39155125618,0.906014919281,0.203070163727,-0.338753342628,0.448861479759,-0.242317825556
2017/07/09/09:32:43.479872,234814,1499563966,279311120,,0.798138003563,0.526424417404,0.237323720995,0.614988552116,0.779889970789,0.0686357713219,0.0940736154484,0.0750597380473,-0.33015537544,-0.0443409192867,-0.0626313062257,0.0766414952428,-0.412387948768,0.457749962807,0.693132102489,0.0710262134671,-0.315166026354,0.458159714937,-0.258725315332
2017/07/09/09:32:43.489873,234815,1499563966,289312235,,0.799710758811,0.523259231446,0.237917730233,0.61698256418,0.778204043437,0.0690491386395,0.0946741713918,0.0734757427458,-0.305320880393,-0.0351071329904,-0.0401683818642,0.0574209627233,-0.384289218013,1.29316532612,0.982922673225,0.300026983023,-0.400045514107,0.845439255238,-0.279331892729
2017/07/09/09:32:43.500318,234816,1499563966,299318427,,0.800054549339,0.520929829323,0.236757985321,0.617630767032,0.777793812927,0.0682300146477,0.0944123153457,0.0723221376672,-0.297237660223,-0.0538403526338,-0.0196752631132,0.0773426551298,-0.374153844188,1.20537495613,1.00100457668,0.427520483732,-0.416972070932,0.852579116821,-0.24990285933
2017/07/09/09:32:43.510137,234817,1499563966,309315862,,0.800820672191,0.517382299566,0.236397804789,0.619849143022,0.776099612762,0.0675601319154,0.0942977175822,0.0816622337125,-0.300575986886,-0.0375505212077,-0.0147287887957,0.0446805753216,-0.399915169781,1.12473583221,0.831743717194,0.503164410591,-0.316339224577,0.806101441383,-0.232903569937
2017/07/09/09:32:43.520038,234818,1499563966,319310449,,0.801774775566,0.514755517642,0.235882603282,0.621316824586,0.77494627212,0.0675623897709,0.0941222731504,0.0934317792253,-0.328461443393,-0.0386165452124,-0.0434669526648,0.0386712955843,-0.435358388536,1.18688774109,1.14640021324,0.380684524775,-0.47027605772,0.746821343899,-0.309735834599
2017/07/09/09:32:43.530022,234819,1499563966,329340349,,0.802998768264,0.511228852982,0.235610092719,0.623173620991,0.773415960065,0.0671203070354,0.0947483783501,0.095244786912,-0.329717200196,-0.0460192657608,-0.0218874409322,0.0400849721551,-0.428066349115,1.02547264099,0.952137649059,0.277320802212,-0.360096156597,0.641772806644,-0.254216194153
2017/07/09/09:32:43.540074,234820,1499563966,339315381,,0.804098643329,0.508443151693,0.235761207286,0.624247693781,0.772529507239,0.0674013789721,0.0947102495386,0.108985115277,-0.322710049936,-0.0259419468792,0.0219257281048,0.000143949812865,-0.440288147457,1.1275331974,1.15062558651,0.528086960316,-0.451499342918,0.695329248905,-0.308515697718
2017/07/09/09:32:43.549934,234821,1499563966,349311226,,0.80480394004,0.504400047354,0.234448691934,0.626149134156,0.771106899911,0.0659567562578,0.094768755455,0.108575329086,-0.314121326649,-0.014336831891,0.0108753783393,-0.0227009656126,-0.40539488193,0.923040568829,0.922679722309,0.656493008137,-0.368718385696,0.623998761177,-0.262657731771
2017/07/09/09:32:43.560033,234822,1499563966,359317789,,0.805646391324,0.502202594513,0.234396891783,0.627304811935,0.770174372084,0.0663103584402,0.0944618752274,0.0933889077948,-0.325364109281,-0.0459632039628,-0.00356643732897,0.0374187621219,-0.415299840419,1.13071906567,0.955004513264,0.721187114716,-0.35469442606,0.694666922092,-0.274193227291
2017/07/09/09:32:43.570232,234823,1499563966,369316197,,0.806613704967,0.499832799692,0.234800895138,0.628842846776,0.768885704162,0.066911137851,0.0943098490348,0.106342212867,-0.32746368798,-0.0215773927332,0.0356992343532,0.00428967289046,-0.441444874739,1.20797920227,0.937583565712,0.664838433266,-0.387184917927,0.691830813885,-0.323020040989
2017/07/09/09:32:43.580272,234824,1499563966,379318571,,0.808245865556,0.496033150686,0.234690029836,0.631169509717,0.766902758204,0.0670986707362,0.094778572727,0.106318519202,-0.308266925301,-0.0294004170146,0.0785083972076,0.00433261707893,-0.442221754441,0.732853770256,0.877113342285,0.527803182602,-0.366285353899,0.516481280327,-0.297438204288
2017/07/09/09:32:43.590023,234825,1499563966,389312144,,0.809481722195,0.493080569748,0.234837015913,0.633022233229,0.765319602147,0.0675012900916,0.0949333168221,0.10879936607,-0.294469999053,-0.00678602391044,0.0910587369091,-0.0268047000818,-0.435991631217,0.525006532669,0.70260488987,0.517806649208,-0.281597286463,0.43599075079,-0.272343099117
2017/07/09/09:32:43.599947,234826,1499563966,399318630,,0.810313841472,0.489625249744,0.234264707484,0.634588683308,0.764073486751,0.0669623909843,0.0948944047583,0.104210352546,-0.289018270511,-0.0168498987746,0.0873206846555,-0.012213073582,-0.430898191567,0.62918651104,0.777350902557,0.495821297169,-0.319488406181,0.461273133755,-0.276670157909
2017/07/09/09:32:43.610014,234827,1499563966,409310881,,0.811895303588,0.486769214379,0.234293016452,0.636433483078,0.762439019569,0.0675157956504,0.0952931287888,0.11059948004,-0.321703634997,-0.0170267673552,0.0314969951691,-0.0257126925754,-0.421503198116,0.693470001221,0.875777006149,0.727055311203,-0.377900928259,0.496390253305,-0.305814653635
2017/07/09/09:32:43.620168,234828,1499563966,419319282,,0.812127395935,0.484351696717,0.233965750016,0.637294478332,0.761821458604,0.0670864620155,0.0947798486584,0.106809569215,-0.316117657161,-0.0146516923065,0.0252601698324,-0.0271963343495,-0.42230614611,0.549338161945,0.527689158916,0.71921890974,-0.227676391602,0.439438343048,-0.24102294445
2017/07/09/09:32:43.630095,234829,1499563966,429323073,,0.813212036199,0.481066689193,0.233918844082,0.639131419069,0.760270042003,0.0669957907151,0.0949318514419,0.112508933094,-0.324894339645,-0.0095689556931,0.0344761324193,-0.0393636348004,-0.452020518021,0.140312209725,0.442739397287,0.625128865242,-0.226933956146,0.271166622639,-0.2522534132
2017/07/09/09:32:43.639812,234830,1499563966,439312921,,0.814178798966,0.478054080395,0.233475327508,0.640283066391,0.759301529855,0.0669360293001,0.0949649916246,0.110423136418,-0.318264010654,-0.00472140572512,0.0221273419198,-0.0453410012505,-0.419668019376,0.32237136364,0.499253302813,0.661164581776,-0.265819847584,0.327732026577,-0.273656070232
2017/07/09/09:32:43.649890,234831,1499563966,449311743,,0.815330955806,0.474428115287,0.233754940472,0.642311602645,0.757520201754,0.0666292155645,0.0957052593981,0.112936787507,-0.331946533454,-0.00615977723021,0.00440876493132,-0.0423743353209,-0.425349345958,-0.409137755632,0.335349559784,0.446809083223,-0.166326582432,0.0212330520153,-0.242305397987
2017/07/09/09:32:43.659979,234832,1499563966,459311843,,0.816624726599,0.471319253304,0.233696727675,0.643551312066,0.756404401204,0.0669659660097,0.0959669212473,0.115192155161,-0.349051980887,0.0049342557809,0.00675744302083,-0.0553000230085,-0.461456900488,-0.301452338696,0.296056807041,0.579258918762,-0.174771845341,0.0955522060394,-0.256787568331
2017/07/09/09:32:43.669968,234833,1499563966,469315806,,0.817373931016,0.46765429321,0.233743600029,0.646006748251,0.754339888169,0.0666303110435,0.0959531968292,0.0931147561226,-0.332222504193,-0.0189193943025,0.0206743995156,0.00770976927137,-0.441695274381,-0.0180350095034,0.355676174164,0.539217114449,-0.155943930149,0.217532590032,-0.257085263729
2017/07/09/09:32:43.680300,234834,1499563966,479314728,,0.818226373059,0.465420439089,0.233557540188,0.647022021997,0.753450179962,0.0667325230786,0.0960317641717,0.0920379762268,-0.320111586618,-0.0106647291846,0.031539699258,0.00444943403152,-0.419757406192,0.184718638659,0.538450598717,0.645869851112,-0.293787419796,0.264360547066,-0.319277703762
2017/07/09/09:32:43.689928,234835,1499563966,489313671,,0.819154525679,0.461841811666,0.233475080608,0.64872866905,0.752016931303,0.0664763186086,0.0959299121745,0.091325737454,-0.330488031215,-0.00709462531385,0.0347572452942,0.0045787158366,-0.448749676009,0.508727490902,0.754344522953,0.711341679096,-0.470019608736,0.325964689255,-0.393980443478
2017/07/09/09:32:43.700179,234836,1499563966,499312651,,0.81977775115,0.458860453669,0.233480745139,0.650427951222,0.750573573647,0.0662929769952,0.0958542227149,0.0949914120096,-0.355930686637,-0.00573263189158,0.00506386459816,0.00414570358712,-0.453460275551,0.880931854248,1.06925320625,0.828071713448,-0.549854397774,0.484043002129,-0.407171308994
2017/07/09/09:32:43.710212,234837,1499563966,509338489,,0.821104677047,0.455736983053,0.233809238571,0.651589101234,0.749471704084,0.0666145264884,0.0963655166109,0.0859438250868,-0.340747300308,-0.00124415718496,0.0204332672901,0.0021262847899,-0.465498166627,1.10221803188,1.08952236176,0.877553701401,-0.586387872696,0.563681423664,-0.424766898155
2017/07/09/09:32:43.720111,234838,1499563966,519315513,,0.821947198675,0.451746092088,0.233473077229,0.653473529926,0.747845761313,0.0660719409638,0.0966103596434,0.0916427416694,-0.327742957335,0.0141694720922,0.0290216231866,-0.0310672824869,-0.440240521735,1.16298294067,0.92945176363,0.940705418587,-0.429339230061,0.65767878294,-0.351093173027
2017/07/09/09:32:43.730086,234839,1499563966,529319091,,0.822917512916,0.448206865583,0.23391474431,0.655254315941,0.746259916409,0.0660567878459,0.0968215853127,0.0999847187472,-0.363728467765,0.00148584871572,-0.00534907481645,-0.0237221718875,-0.446901693896,1.09139931202,0.89838540554,0.852028131485,-0.467714250088,0.607337713242,-0.410753041506
2017/07/09/09:32:43.740085,234840,1499563966,539313958,,0.823703132497,0.445182795475,0.233757126405,0.657064477198,0.744706636465,0.066046949153,0.0965199405162,0.0930654797848,-0.367665733848,-0.00371857919862,-0.011727327807,0.000492878506862,-0.460215695156,0.727194130421,0.736474871635,0.727390289307,-0.413626998663,0.456331789494,-0.365485131741
2017/07/09/09:32:43.750049,234841,1499563966,549310854,,0.8244255647,0.442373065924,0.234345631989,0.657851672753,0.743940087548,0.0657910832422,0.0972412266505,0.0955161669255,-0.348263310146,0.0199064555997,0.00522385503027,-0.0358506254073,-0.43467768261,0.799294710159,0.769316792488,0.716072797775,-0.346651792526,0.513067364693,-0.362542867661
2017/07/09/09:32:43.759711,234842,1499563966,559348049,,0.824743602747,0.438791017966,0.233695036359,0.659383949502,0.742684411831,0.064845847063,0.0970962804692,0.0853615338207,-0.362073012308,0.00438031766711,-0.0146252073742,-0.00472348055857,-0.441657604619,0.673586905003,0.74788415432,0.769081413746,-0.37727445364,0.462289631367,-0.360438108444
2017/07/09/09:32:43.769956,234843,1499563966,569316576,,0.826033597248,0.435227081872,0.234177752173,0.661334422599,0.740886397335,0.0655447789034,0.097097938643,0.0782306133041,-0.364312322035,0.00845170143561,-0.0084378694135,0.0033279646202,-0.441851816309,0.721470892429,0.878884792328,0.720692515373,-0.499669849873,0.473883509636,-0.419461131096
2017/07/09/09:32:43.780115,234844,1499563966,579312271,,0.826979385291,0.432549486649,0.234404362795,0.661861460888,0.740347768264,0.0655335856034,0.0976214001956,0.0922238954627,-0.369240313938,0.0115087338381,-0.00457062237773,-0.0232143079401,-0.434867385143,1.03540873528,0.793047785759,0.720193564892,-0.454689592123,0.588735222816,-0.414074361324
2017/07/09/09:32:43.790106,234845,1499563966,589311406,,0.827917969969,0.426900078419,0.233514446587,0.664770470748,0.737826146539,0.0646987229819,0.0975031996927,0.0963071742359,-0.373817155664,0.00993724141994,0.00853088021669,-0.0322431071885,-0.417337477707,0.585434317589,0.818122982979,0.770018339157,-0.480406433344,0.469298481941,-0.404164642096
2017/07/09/09:32:43.800079,234846,1499563966,599318344,,0.828434900275,0.424639564759,0.233574247918,0.665230179929,0.737405178205,0.0645437549741,0.0976550795489,0.0880389581519,-0.364259572523,0.000258829889612,0.00355575607413,-0.0151919925465,-0.386670399723,1.05818390846,0.833990693092,0.7494789958,-0.463634729385,0.641935110092,-0.41340893507
2017/07/09/09:32:43.810119,234847,1499563966,609313079,,0.829675918037,0.420638410135,0.234182951387,0.6664854119,0.73618268521,0.0645895207385,0.0982875553283,0.0670982909356,-0.344789739705,-0.0101066594758,-0.0262978587427,0.0232113816549,-0.30071922078,1.13792157173,0.867892920971,0.811112940311,-0.442154526711,0.719141840935,-0.383504867554
2017/07/09/09:32:43.820026,234848,1499563966,619311061,,0.829864616087,0.416858431509,0.233969156556,0.667450637125,0.735420779976,0.0637221753616,0.098007182125,0.076776636449,-0.345660429986,0.0137768272794,-0.0315680720059,-0.00835106724953,-0.257765001035,0.830053627491,0.670476198196,0.573134124279,-0.436629831791,0.516172647476,-0.397960036993
2017/07/09/09:32:43.830192,234849,1499563966,629319219,,0.830745682038,0.413162747278,0.233851618232,0.668202888739,0.734705749563,0.063458970048,0.0984140242074,0.0786933125122,-0.383487140338,0.015007183592,-0.0508179093699,-0.00411932225455,-0.281771769989,0.993473887444,0.635659456253,0.699346125126,-0.412345588207,0.650636017323,-0.371539771557
2017/07/09/09:32:43.840068,234850,1499563966,639316568,,0.831487829427,0.410668742194,0.234336725036,0.668207194771,0.734634831117,0.0634393746012,0.0989255048834,0.0766927306681,-0.375005239099,0.010289354905,-0.0588050686388,-0.00631584078966,-0.233579138809,1.01820647717,0.756863236427,0.724880337715,-0.515772938728,0.627126216888,-0.432948410511
2017/07/09/09:32:43.850477,234851,1499563966,649316507,,0.832506666286,0.406940732583,0.234005411077,0.669396020014,0.733558392484,0.0634647821257,0.0988598737372,0.0684329057546,-0.349451405544,-0.00235835226407,-0.0498095474806,0.0121405340744,-0.18571026591,1.26117730141,0.686038672924,0.848807632923,-0.441143214703,0.770316302776,-0.369979083538
2017/07/09/09:32:43.860071,234852,1499563966,659311089,,0.833040493939,0.403997165037,0.23450882497,0.669922316335,0.733040022093,0.063205440768,0.0993050267785,0.0681627358112,-0.33644016434,0.00257496199033,-0.055973918954,0.0029857849407,-0.149171937438,1.5868127346,0.638276934624,0.865997493267,-0.427448928356,0.917130529881,-0.327360153198
2017/07/09/09:32:43.869884,234853,1499563966,669318691,,0.834214029742,0.399773650739,0.235030359846,0.670325982904,0.732575980774,0.0631774945553,0.100020563976,0.0767679091753,-0.360210856944,0.0195887507073,-0.0692110269868,-0.0290285241651,-0.138814740248,1.27083456516,0.600947618484,0.664060473442,-0.47917932272,0.735096156597,-0.356405079365
2017/07/09/09:32:43.880200,234854,1499563966,679313329,,0.834300623261,0.397209137359,0.233913388751,0.669955785831,0.733048407375,0.062376088784,0.0995414538022,0.078433429261,-0.369222989263,0.00100583051733,-0.0853550306831,-0.0142597682552,-0.116477517109,1.37477231026,0.470816373825,0.740911364555,-0.444293618202,0.804161846638,-0.316900551319
2017/07/09/09:32:43.890028,234855,1499563966,689317221,,0.834847840014,0.393506810629,0.234131537596,0.670808021401,0.732274510387,0.0619920675343,0.0997377733117,0.0653334605705,-0.372218814391,-0.0097677707305,-0.0852647548221,0.023745951781,-0.140643102019,1.23006343842,0.533263742924,0.668279767036,-0.395434379578,0.722223162651,-0.267712086439
2017/07/09/09:32:43.900102,234856,1499563966,699325767,,0.835819680428,0.389991859357,0.234357316167,0.670627211583,0.732333835255,0.06147673616,0.100831085169,0.0608086857812,-0.361275992316,0.00939663910607,-0.0859203680548,0.00839906484878,-0.0848195553883,1.0148884058,0.41822129488,0.661089301109,-0.346135526896,0.629039406776,-0.224376007915
2017/07/09/09:32:43.910052,234857,1499563966,709312098,,0.836299638748,0.385384021793,0.233764242584,0.671371530136,0.731746180198,0.0605455390335,0.100707666004,0.0499433278514,-0.355301860077,-0.00933047345327,-0.090286942098,0.0440594465567,-0.0485624673024,0.936350405216,0.532932221889,0.616928339005,-0.359024226665,0.571743428707,-0.209590449929
2017/07/09/09:32:43.920087,234858,1499563966,719318720,,0.836879888793,0.382284987212,0.234241155875,0.671781967106,0.731351337688,0.0605432909676,0.100840068684,0.051018028141,-0.379888067938,-0.0169656474279,-0.10350488237,0.0533745810625,-0.107072317759,1.2070119381,0.571577370167,0.724015176296,-0.399141669273,0.674144744873,-0.250069051981
2017/07/09/09:32:43.930363,234859,1499563966,729315370,,0.83729610828,0.379502990628,0.23421543951,0.672061484559,0.731103705735,0.060223036091,0.100964936273,0.0467577639055,-0.383333104478,-0.0146368905931,-0.102772493312,0.0576312600175,-0.132290540875,1.27872145176,0.552054584026,0.75384247303,-0.40156942606,0.679170846939,-0.228770792484
2017/07/09/09:32:43.940050,234860,1499563966,739312392,,0.837827914567,0.375938201628,0.23410380165,0.672480191597,0.730721875474,0.0599008240748,0.101132704347,0.047259083905,-0.351400916837,-0.000827326594306,-0.08901867879,0.0305948039744,-0.0691401315919,1.03959167004,0.613549411297,0.790124475956,-0.421593517065,0.590866744518,-0.231936603785
2017/07/09/09:32:43.950230,234861,1499563966,749339422,,0.83790614079,0.372356074593,0.234429898778,0.672927710244,0.730346021294,0.0591290194309,0.101324947705,0.0406190236947,-0.347129897803,-0.0110235820238,-0.084529350302,0.0448705295742,-0.0827989808729,1.73552691936,0.721297442913,0.913349330425,-0.441753953695,0.847916603088,-0.234061405063
2017/07/09/09:32:43.960140,234862,1499563966,759316265,,0.83811617265,0.368518522392,0.233439212353,0.673890372977,0.729567801328,0.0581353017199,0.101108234918,0.0439656917195,-0.356850661241,-0.00769059761422,-0.0587231281429,0.0331625773837,-0.178240135617,1.04690849781,0.425382077694,1.03750526905,-0.320347130299,0.616367518902,-0.200825273991
2017/07/09/09:32:43.969953,234863,1499563966,769311355,,0.83920405876,0.365562894474,0.23399791555,0.675052951328,0.728340514363,0.0586092993622,0.101924276149,0.0497848183649,-0.354156144814,-0.00784413363636,-0.0408438296599,0.0108252707797,-0.296808968893,0.966603279114,0.220457583666,1.14359736443,-0.249132856727,0.617121517658,-0.196332201362
2017/07/09/09:32:43.980246,234864,1499563966,779322179,,0.839559658186,0.362198608188,0.233741366568,0.677015549788,0.726582659391,0.0586085574119,0.101452557459,0.0459362186014,-0.370874066651,-0.0163216183012,-0.00957914778996,0.023609530234,-0.425716640591,0.494758337736,0.471994757652,1.12751448154,-0.387570291758,0.445713043213,-0.235197365284
2017/07/09/09:32:43.990106,234865,1499563966,789315693,,0.839837188466,0.35821055921,0.233097122808,0.678367922077,0.725358826919,0.0577108675473,0.101690659722,0.0460097866075,-0.366555803072,-0.0193160837186,0.0214520839179,0.0130928706011,-0.481384643053,0.0811918601394,0.356985062361,1.11623847485,-0.364331305027,0.312485635281,-0.142589047551
2017/07/09/09:32:44.000082,234866,1499563966,799331806,,0.840114227769,0.354861853734,0.233095901213,0.678979755805,0.724816051513,0.0572740174471,0.101724478868,0.0363061667996,-0.355967058283,-0.0144806452897,-0.0215632658529,0.0326355506981,-0.316508429241,0.0840207114816,0.277937680483,0.959794461727,-0.384010672569,0.266738533974,-0.155264019966
2017/07/09/09:32:44.010211,234867,1499563966,809323266,,0.840284229585,0.351102468362,0.232922973395,0.679368503702,0.724489491231,0.0564511892492,0.10191504553,0.0346912882461,-0.344292307856,-0.0192902373561,-0.0296413351981,0.0437654240282,-0.188138127536,0.727480590343,0.502732038498,0.866560637951,-0.447811692953,0.507230579853,-0.247875913978
2017/07/09/09:32:44.020121,234868,1499563966,819318211,,0.840960894353,0.347727039785,0.233118597145,0.680506121955,0.723380873749,0.0565603823032,0.102139378444,0.0251536322348,-0.366095753596,-0.0154324800089,-0.0718587778753,0.0638231140318,-0.187159889988,1.58603560925,0.531440556049,0.665185391903,-0.413891613483,0.790641009808,-0.194391518831
2017/07/09/09:32:44.030044,234869,1499563966,829309577,,0.840904036523,0.344245106086,0.232370305276,0.681539700378,0.722533448076,0.0557554308868,0.101687684343,0.0176892713989,-0.375814643705,-0.0248217056518,-0.0484881295566,0.0814216900022,-0.239192110065,2.81312942505,0.644152760506,0.774287104607,-0.475746184587,1.22749698162,-0.2419013381
2017/07/09/09:32:44.040124,234870,1499563966,839318520,,0.841265039162,0.339485240598,0.232337396833,0.682771689483,0.721390101265,0.055076414946,0.101910403563,0.0246779912113,-0.400488634577,-0.0286032426126,-0.0816779123341,0.0683019017011,-0.277333487209,2.37976503372,0.486261963844,0.846305191517,-0.361270368099,1.08999466896,-0.202506676316
2017/07/09/09:32:44.050094,234871,1499563966,849316127,,0.841417777939,0.337070946304,0.231731146649,0.683311384247,0.720917201749,0.0545779051818,0.101907765395,0.0216505774665,-0.391529120116,-0.0319280575001,-0.0690266730352,0.0787019183961,-0.291008362826,2.09965157509,0.290540218353,1.02346849442,-0.25462564826,0.963350951672,-0.147035777569
2017/07/09/09:32:44.059951,234872,1499563966,859311340,,0.841688243412,0.333662363893,0.231675164689,0.684760669771,0.719578757348,0.0545026995812,0.101679362938,0.01382666096,-0.376582430072,-0.0326099932356,-0.0380581265252,0.0794627119973,-0.314222207359,2.12413477898,0.213733077049,1.24281728268,-0.293135374784,0.998572409153,-0.157619923353
2017/07/09/09:32:44.069866,234873,1499563966,869314881,,0.841953424316,0.32973093184,0.231708642315,0.68598798316,0.718409502677,0.0539230973298,0.101983199584,0.0267788420546,-0.381731314049,-0.019275629698,-0.0203833703197,0.0417984281923,-0.387849619237,1.75609636307,0.270316451788,1.37145876884,-0.308264255524,0.865630805492,-0.156114116311
2017/07/09/09:32:44.080294,234874,1499563966,879318338,,0.842217962146,0.326084231595,0.231306287299,0.687270647611,0.717192270238,0.053355025783,0.102213236263,0.0226738918726,-0.373918423479,-0.007181693432,-0.0353879035619,0.0269338042229,-0.384143307344,1.40016949177,0.307820886374,1.24593114853,-0.341246783733,0.679408192635,-0.178540065885
2017/07/09/09:32:44.089824,234875,1499563966,889312264,,0.842180873568,0.323307081482,0.231091448699,0.688711873088,0.715921476087,0.0532222602679,0.101487866053,0.0239305118466,-0.371590741844,-0.0142632587038,-0.0155851010187,0.0284063437462,-0.417190734587,2.32820916176,0.565958023071,1.23575758934,-0.493184894323,1.05144917965,-0.217821106315
2017/07/09/09:32:44.100222,234876,1499563966,899311311,,0.842371769243,0.319456095974,0.231062655841,0.690707203071,0.713992824197,0.0529979640872,0.101631798292,0.0299924406191,-0.357718340674,-0.0147331435053,0.0126347901096,0.0113167895113,-0.428803561669,1.9438239336,0.711084008217,0.906735002995,-0.555005431175,0.894103705883,-0.266352593899
2017/07/09/09:32:44.110151,234877,1499563966,909317737,,0.842803522413,0.315099427955,0.230888227693,0.692372070942,0.712374293588,0.0527716617466,0.101778843234,0.0101301416611,-0.36901367769,-0.0362904603783,0.0183548936721,0.0611368580588,-0.479241905557,2.0364844799,0.529734313488,0.665046691895,-0.475871145725,0.963100135326,-0.229782700539
2017/07/09/09:32:44.119842,234878,1499563966,919316585,,0.842906420118,0.311861830131,0.230338881722,0.693997459782,0.710844925381,0.052250191847,0.10167072011,0.0286753318472,-0.383461724343,-0.0123161850225,0.01396590026,-0.00285047447661,-0.480175266373,1.35679912567,0.524340391159,0.497168987989,-0.446496248245,0.723508298397,-0.216319710016
2017/07/09/09:32:44.130073,234879,1499563966,929319659,,0.843442119245,0.308427421633,0.230461642714,0.695486645697,0.709327630268,0.0524070711327,0.10201047736,0.028703346284,-0.371545217741,-0.0248645389862,0.0169776437842,0.00564267691169,-0.48536688997,1.53008377552,0.371691703796,0.523959159851,-0.402282774448,0.85587310791,-0.237397700548
2017/07/09/09:32:44.140192,234880,1499563966,939317304,,0.843326001444,0.305059077743,0.229585069723,0.697090731259,0.707847223677,0.0518107759009,0.101648727615,0.0343706057132,-0.380781180465,-0.00827786449044,0.0026458221955,-0.0288842328329,-0.492140299817,1.27526652813,0.380011320114,0.956371128559,-0.449627846479,0.866679728031,-0.260509431362
2017/07/09/09:32:44.150100,234881,1499563966,949316540,,0.84408490526,0.30091394621,0.230239399618,0.698982672876,0.70586683198,0.0521295105128,0.102263153989,0.0346406454417,-0.428655840832,-0.0153056495316,-0.0189837902996,-0.020442963822,-0.524270907712,1.53194200993,0.361182808876,1.21292757988,-0.442532837391,1.00887727737,-0.267408162355
2017/07/09/09:32:44.160189,234882,1499563966,959318468,,0.843985484571,0.297334676716,0.229538845942,0.700073644457,0.704870759242,0.0514189352127,0.102030378827,0.0226437296094,-0.385388722825,-0.0227864323843,0.0115210339995,0.00996749651923,-0.463013905933,1.11327934265,0.357548743486,1.22852790356,-0.438352525234,0.830409169197,-0.255089491606
2017/07/09/09:32:44.170417,234883,1499563966,969323423,,0.843825650521,0.294278522799,0.22936745085,0.701060186218,0.703946818751,0.0509376326089,0.101876637428,0.0212023752011,-0.375345545422,-0.0143189407997,-0.00518917151488,0.0108036708037,-0.408144053904,0.605856895447,0.333013594151,1.09218287468,-0.435823529959,0.578923106194,-0.24825976789
2017/07/09/09:32:44.179971,234884,1499563966,979315303,,0.844072027551,0.290329308399,0.229629589916,0.7014859347,0.703468016825,0.0503748175305,0.10253102204,0.00422935220799,-0.366544400916,-0.00655176782419,-0.0292504726778,0.0444127203355,-0.291889503172,0.771372616291,0.239027231932,0.823488414288,-0.398147523403,0.532971024513,-0.213692009449
2017/07/09/09:32:44.190071,234885,1499563966,989320665,,0.84407668148,0.286337048734,0.229066740194,0.701913145654,0.703110490939,0.0496704265972,0.102403233405,-0.00467316089564,-0.362996809144,-0.0185916073473,-0.0636103705155,0.0771514407439,-0.157062401251,1.1399897337,0.397757828236,0.576684355736,-0.459365457296,0.568680942059,-0.215810239315
2017/07/09/09:32:44.200208,234886,1499563966,999321395,,0.844134108313,0.282045293675,0.229358706357,0.703067791966,0.701960288672,0.0494060256433,0.10250111052,0.00247303659198,-0.370073383276,-0.0395053815763,-0.0684091688725,0.0879580022908,-0.0719114614144,2.44159579277,0.655824422836,0.258395016193,-0.549721360207,0.996013820171,-0.398799300194
2017/07/09/09:32:44.210114,234887,1499563967,9315795,,0.844334461118,0.278949127147,0.228863043379,0.704473802757,0.70059406072,0.0491318083067,0.102326383325,0.00478266070596,-0.403251871899,-0.035921782317,-0.0443837147303,0.0608888190164,-0.280697563091,1.97938239574,0.526656031609,0.223063036799,-0.517529666424,0.807843267918,-0.352105081081
2017/07/09/09:32:44.220116,234888,1499563967,19329626,,0.844804069426,0.275804967747,0.228678750151,0.705817527495,0.699158999992,0.0494079540502,0.102748064162,0.0237000020765,-0.397653786336,-0.0171496562916,0.00601744501693,-0.0137782626185,-0.460311141684,2.05333542824,0.533252000809,0.562158584595,-0.526989877224,0.970615625381,-0.375349253416
2017/07/09/09:32:44.230070,234889,1499563967,29324136,,0.845315451678,0.272479224456,0.228553261615,0.707701179397,0.697240346411,0.049936091653,0.102573518839,0.0322084563213,-0.390243954212,-0.00939584016047,0.0181625385425,-0.0583798199374,-0.514920030261,1.55959558487,0.481424510479,0.796659946442,-0.560382962227,0.8619992733,-0.373163670301
2017/07/09/09:32:44.239939,234890,1499563967,39324354,,0.845017283571,0.267163572679,0.22788134563,0.709752539427,0.695199133777,0.0486471708909,0.102873465659,0.01982147895,-0.361790260176,-0.0151944434692,0.0521103804664,-0.0266110704768,-0.501703188736,0.921387791634,0.362515568733,0.924927711487,-0.530231356621,0.643581390381,-0.310014665127
2017/07/09/09:32:44.250173,234891,1499563967,49330321,,0.845160818301,0.264934713175,0.228083037674,0.711000172151,0.693937336947,0.0490982882248,0.10256259399,0.00949652654747,-0.339720494607,-0.0252636004258,0.0631682318721,0.0033996218035,-0.466459963337,0.757199108601,0.594105541706,0.921168029308,-0.701157271862,0.523204505444,-0.36852735281
2017/07/09/09:32:44.260022,234892,1499563967,59330109,,0.845587543278,0.261301852321,0.228148549667,0.712664445272,0.692155039417,0.0493460288155,0.102935704669,0.00301142724522,-0.347509801974,-0.0326978795349,0.0412653830413,0.0205285487591,-0.462301570653,1.02612864971,0.638283967972,0.726446330547,-0.758453130722,0.585430264473,-0.399206370115
2017/07/09/09:32:44.270213,234893,1499563967,69336555,,0.845655705625,0.258544343059,0.227429180917,0.714152679628,0.690696706648,0.0495610522238,0.102311835622,0.00190621346909,-0.331863112078,-0.027264187625,0.0730146778934,0.0146505871282,-0.443453674452,0.84292691946,0.69403219223,0.787848174572,-0.83867752552,0.493894428015,-0.432710438967
2017/07/09/09:32:44.280088,234894,1499563967,79328548,,0.845505832453,0.255257647419,0.226776080302,0.715367292889,0.68950292359,0.04915792506,0.102072783004,0.0208633144123,-0.373120984655,-0.0113750227175,0.0550648472502,-0.0468318389656,-0.489602032477,1.31469702721,0.487509906292,0.808748245239,-0.733169198036,0.684613645077,-0.411875575781
2017/07/09/09:32:44.290289,234895,1499563967,89324489,,0.845905513222,0.251963829631,0.226943522302,0.717251136916,0.687460871743,0.0493138173245,0.102550006517,0.0126595694132,-0.358321811852,-0.0242277731878,0.0660265208597,-0.0220098944081,-0.470566177598,1.58862948418,0.492877006531,0.900144696236,-0.768527746201,0.853984892368,-0.47667402029
2017/07/09/09:32:44.299906,234896,1499563967,99341331,,0.845403709584,0.248881907276,0.226219406784,0.718735474615,0.686061559312,0.0489262897545,0.101710729699,0.0144879674688,-0.328597683966,-0.0160385279156,0.0598236747369,-0.0353994320202,-0.446258441779,0.625529527664,0.351153552532,0.904491126537,-0.678198814392,0.474287182093,-0.394813150167
2017/07/09/09:32:44.310199,234897,1499563967,109350706,,0.845740005369,0.244667159769,0.226168060994,0.720324858127,0.684316086462,0.0487000401518,0.102332295308,0.00338921453667,-0.339473684054,-0.0449080924432,0.0431465772133,0.00922643163215,-0.44145900683,0.713834524155,0.347191095352,0.863527178764,-0.711654663086,0.497760415077,-0.41949570179
2017/07/09/09:32:44.320045,234898,1499563967,119323379,,0.845411983099,0.242194070116,0.225621075201,0.721639260219,0.683028882265,0.0487391768978,0.101650463538,0.0119280303632,-0.333453605089,-0.0241344060803,0.063013999511,-0.0224882216731,-0.449503584927,0.858014464378,0.367354780436,0.704390108585,-0.736450791359,0.483925223351,-0.427297592163
2017/07/09/09:32:44.330330,234899,1499563967,129329877,,0.846010700142,0.239012457963,0.225813075531,0.723152201573,0.681339147174,0.0494366628872,0.101901306424,-0.00300200623487,-0.358309481424,-0.0368296735891,0.0642035673382,0.00990502226325,-0.476695209398,0.797773599625,0.505616009235,0.62613594532,-0.762444972992,0.457006186247,-0.437873184681
2017/07/09/09:32:44.340122,234900,1499563967,139328745,,0.846234212109,0.235501025892,0.225492305692,0.724549226403,0.679825795513,0.0493207098963,0.102140950888,-0.00161411092965,-0.345391250588,-0.0340463619675,0.0611499135491,0.00363046075779,-0.458129389371,0.882129013538,0.431251078844,0.533037483692,-0.770450353622,0.462096333504,-0.501270473003
2017/07/09/09:32:44.349958,234901,1499563967,149324624,,0.845883390922,0.232776848895,0.225049357698,0.725952809178,0.678417382474,0.0491750319848,0.101608022485,-0.0015902112754,-0.319825086123,-0.0347011865475,0.0421071969461,0.00115633274075,-0.390199478784,1.40901589394,0.507281064987,0.49460709095,-0.761332392693,0.635608613491,-0.511490464211
2017/07/09/09:32:44.359856,234902,1499563967,159323065,,0.845996573588,0.229197579959,0.224989657477,0.727255466961,0.676994159231,0.0490862947287,0.101827942195,0.00526285798041,-0.331008697546,-0.0226532544866,0.0471233051261,-0.0206079998686,-0.412965899819,1.54317653179,0.676021575928,0.500002801418,-0.746549010277,0.729360699654,-0.521608769894
2017/07/09/09:32:44.370211,234903,1499563967,169327031,,0.846247216599,0.226568434321,0.224795860195,0.728395185921,0.675714268069,0.0496627985835,0.101903324243,-0.00097598564135,-0.321312750625,-0.0439109912214,0.0807881417826,0.00150894036027,-0.38446772275,2.00407934189,0.669488191605,0.734058797359,-0.709168434143,1.03888738155,-0.52430164814
2017/07/09/09:32:44.380483,234904,1499563967,179340210,,0.846138876262,0.223681909812,0.224438418947,0.729275993961,0.674814218687,0.0494991814326,0.101647065518,0.0030059019372,-0.302162498481,-0.0297917194068,0.0879033503491,-0.0174271172101,-0.358709651964,-0.384692907333,-2.28925800323,1.22375392914,-0.0823115259409,0.24989245832,-0.309671223164
2017/07/09/09:32:44.389972,234905,1499563967,189321765,,0.846316274336,0.221321323046,0.224206681929,0.730266281624,0.673742538072,0.0500500458398,0.101376245867,0.00768495767129,-0.316383862659,-0.0189049201084,0.0873296418707,-0.0350717448744,-0.352138065607,-0.816152095795,-1.05618774891,1.08540606499,-0.266466081142,0.131466418505,-0.359885334969
2017/07/09/09:32:44.399925,234906,1499563967,199323309,,0.846186902308,0.217558421057,0.223983159069,0.731357447002,0.672576684122,0.0499391501121,0.101306317552,-0.000872954477251,-0.257443709067,-0.0321047488504,0.127230502854,-0.00540841544498,-0.242133213786,-1.14279711246,-1.58107042313,1.20172715187,-0.14068685472,-0.0163468271494,-0.281036823988
2017/07/09/09:32:44.410420,234907,1499563967,209331835,,0.846346422651,0.214913662835,0.223326073337,0.732106337269,0.671821952447,0.0503539779898,0.100697825405,-0.0227713798751,-0.28988407631,-0.0441295197805,0.118201837887,0.0458348713076,-0.242152025557,-1.70578753948,-1.28555607796,0.411545157433,0.0867567956448,-0.455817431211,-0.0925013422966
2017/07/09/09:32:44.420047,234908,1499563967,219364721,,0.845813091631,0.213311822331,0.222719419643,0.732277099525,0.671791632994,0.050320203092,0.0996700983792,-0.0113325449181,-0.290481788623,-0.0408197293524,0.0938869419823,0.0275438905316,-0.200517852056,-2.10580992699,-0.960874736309,-0.54005497694,0.201319009066,-0.735065102577,-0.0211874246597
2017/07/09/09:32:44.430107,234909,1499563967,229331463,,0.845638265753,0.210320270419,0.222221636311,0.732982518468,0.671056044027,0.0504556054728,0.0993712497165,-0.00680001338435,-0.26970539211,-0.0455605972758,0.0888014821296,0.0248580820482,-0.13858723463,-1.89811706543,-0.892288088799,-0.200660794973,0.124841228127,-0.68565171957,-0.0817941874266
2017/07/09/09:32:44.440108,234910,1499563967,239326342,,0.84582929719,0.208464751955,0.222242027398,0.733145804241,0.670903386694,0.0510566190189,0.0988893174246,-0.00863703666193,-0.269261673998,-0.0386832163219,0.107864597161,0.0198545173314,-0.13163462518,-1.84599673748,1.09301829338,-0.244505017996,-1.00378477573,-0.69230568409,-0.490745902061
2017/07/09/09:32:44.449943,234911,1499563967,249327868,,0.845696921184,0.206743373725,0.221792674897,0.733079412782,0.671024942787,0.051169481907,0.0984976387184,0.00539947552768,-0.215059425166,-0.0281620448318,0.107200155942,-0.00924906696748,-0.0428941386569,-1.99220120907,2.85708379745,0.238720983267,-2.0962767601,-0.699603676796,-0.784796655178
2017/07/09/09:32:44.460280,234912,1499563967,259327755,,0.845538736129,0.204745509564,0.221410809719,0.733250240142,0.670910625762,0.0512242095608,0.097974986225,-0.00129282892401,-0.203654261365,-0.0376641325721,0.123503242939,0.00942866440414,-0.0238036131315,-2.47006201744,3.4367620945,0.242049694061,-2.46212673187,-0.799746692181,-0.779007256031
2017/07/09/09:32:44.469970,234913,1499563967,269329452,,0.84583401786,0.200931969876,0.221123912211,0.73388446469,0.670155473803,0.0514618508581,0.0982695849372,-0.00102837910902,-0.262229842678,-0.0488107467746,0.0684508658199,0.0191191060076,-0.0500383253088,-2.18760824203,2.3406188488,0.087154828012,-2.07937812805,-0.632113456726,-0.678504347801
2017/07/09/09:32:44.480123,234914,1499563967,279323414,,0.845564704023,0.19825077455,0.220861250359,0.733512348567,0.670593041843,0.0509579852928,0.0983254314302,-0.00829215032102,-0.256083773874,-0.0480932083153,0.0300569770718,0.0350054518247,0.023130532966,-3.12909936905,1.4798899889,0.144579708576,-1.06988179684,-0.932709991932,-0.293291896582
2017/07/09/09:32:44.490119,234915,1499563967,289327961,,0.845279198324,0.196283095825,0.219844005732,0.733131631057,0.671121170148,0.0506166308205,0.0977360895904,-0.0275742341993,-0.277069602141,-0.0457621636898,-0.0215471091968,0.0749443691613,0.0362806015821,-3.79724311829,0.187398552895,-0.414890736341,-0.51645308733,-1.19236373901,-0.14842030406
2017/07/09/09:32:44.500265,234916,1499563967,299330009,,0.845021782849,0.1930272165,0.219632772424,0.732882563651,0.671375139182,0.0496726028528,0.0983422742771,-0.0408180618941,-0.274097324488,-0.0564867069636,-0.070921179723,0.1215270145,0.0980320757349,-3.90543937683,-0.647483289242,-0.440464913845,-0.125101625919,-1.26962900162,0.00923471152782
2017/07/09/09:32:44.509992,234917,1499563967,309335025,,0.844795808565,0.191337135895,0.219174357785,0.732587410277,0.671818325182,0.0499456278782,0.0973717541626,-0.0372827393392,-0.281830776331,-0.0536819672918,-0.0901679054848,0.115077490651,0.0944396302885,-3.6386911869,0.119039088488,-0.367232054472,-0.454288929701,-1.28122282028,-0.134156808257
2017/07/09/09:32:44.520169,234918,1499563967,319338103,,0.84377707848,0.188297256692,0.21811529055,0.732437765914,0.672143424038,0.0486587031884,0.0969044229575,-0.0544850749934,-0.275004963324,-0.0647247138285,-0.0553902133281,0.159953053445,0.104358222531,-4.88568878174,-0.343368172646,-0.568920314312,-0.454112619162,-1.73788464069,-0.107738688588
2017/07/09/09:32:44.529752,234919,1499563967,329322483,,0.843301441038,0.185972208275,0.217647904498,0.731804571845,0.672915531717,0.0477242923307,0.0967943579067,-0.0504761092308,-0.247024450322,-0.0549050130052,-0.0384329639117,0.141459112525,0.11790577056,-4.90460681915,0.210339322686,-0.768781781197,-0.672509133816,-1.79472672939,-0.15937243402
2017/07/09/09:32:44.540156,234920,1499563967,339327123,,0.842762788699,0.183413398004,0.217095772699,0.731400755218,0.673455999916,0.0471680194598,0.0963593762074,-0.0687849041852,-0.256722324821,-0.0783428674333,-0.0541764818884,0.195350680283,0.111838305396,-4.46133995056,0.54524487257,-0.426156520844,-0.690364480019,-1.6952252388,-0.100078739226
2017/07/09/09:32:44.550036,234921,1499563967,349323473,,0.8426331094,0.180796857541,0.216374358943,0.731076159597,0.673818794531,0.0465616959565,0.0965809995525,-0.0533870289444,-0.277832230669,-0.0705465841816,-0.0917407604946,0.156290392701,0.11152096322,-4.58996629715,0.341860413551,-0.65353012085,-0.539695084095,-1.79662299156,-0.0599511116743
2017/07/09/09:32:44.560158,234922,1499563967,359330744,,0.84196683293,0.177587896871,0.215533929048,0.731206190849,0.673794868437,0.0451991495898,0.0964106768386,-0.0544712467821,-0.260450919375,-0.0746389559771,-0.109199408163,0.163371627662,0.112911317907,-4.42228126526,-0.155317470431,-0.955886483192,-0.48649430275,-1.72319555283,-0.0424630306661
2017/07/09/09:32:44.570096,234923,1499563967,369321792,,0.841552095268,0.175768786318,0.21445986321,0.730890137405,0.674214534927,0.0445189140546,0.0961895744281,-0.0499289141914,-0.287994705297,-0.082068098774,-0.116129139732,0.149864047872,0.0158701268228,-5.71743965149,0.339458525181,-0.421451598406,-0.392959237099,-2.20704340935,0.0177429243922
2017/07/09/09:32:44.580049,234924,1499563967,379327310,,0.841063691295,0.172447022995,0.21358057438,0.731115207408,0.673998707079,0.0433169803614,0.0965398133712,-0.0420846292414,-0.288211044775,-0.0678059003218,-0.151883124954,0.113629463289,-0.00825956933597,-6.29884719849,-0.215277954936,-0.687194347382,-0.335077822208,-2.40823984146,0.0539565980434
2017/07/09/09:32:44.590099,234925,1499563967,389326974,,0.840795661783,0.169556981264,0.213882804563,0.731660954977,0.673393081969,0.0429175413283,0.0968095489309,-0.0385661172148,-0.295879034695,-0.0737825591783,-0.142239994863,0.110215415914,-0.0669638075976,-5.2425775528,-0.0403334349394,-0.498945951462,-0.406434625387,-1.94210469723,0.0124798119068
2017/07/09/09:32:44.600266,234926,1499563967,399323953,,0.840831105149,0.167639342692,0.212600496763,0.731786193155,0.673294613832,0.0424920045887,0.0967355159076,-0.0317921252552,-0.288104678859,-0.0704577405266,-0.115712208635,0.0869895226849,-0.0923043588943,-4.8904042244,0.716423749924,-0.804176747799,-0.690845906734,-1.8240686655,-0.0835359767079
2017/07/09/09:32:44.610048,234927,1499563967,409325553,,0.839883179585,0.163667224346,0.211367147005,0.732602373157,0.672497129008,0.0406104377846,0.0969131913835,-0.03025099708,-0.283491587862,-0.0764730252523,-0.11201036446,0.0881230442377,-0.151664604637,-5.68162822723,0.613273262978,-1.59454143047,-0.705269157887,-2.10001730919,-0.0234235748649
2017/07/09/09:32:44.619977,234928,1499563967,419327124,,0.839451380071,0.160777800048,0.210466484132,0.732174827594,0.673023576012,0.0395988245854,0.0969083126582,-0.0436506964784,-0.291284450426,-0.110210484213,-0.147413436438,0.156056082651,-0.0569996253517,-5.75890874863,0.485208719969,-2.09572315216,-0.790910303593,-2.13495230675,-0.0470490977168
2017/07/09/09:32:44.629952,234929,1499563967,429322180,,0.839085423734,0.158156816236,0.209612832438,0.731711132738,0.673566225971,0.0384996074974,0.0970831482859,-0.0335405563871,-0.302005171029,-0.0845396432623,-0.17297255281,0.128097816043,0.0424985174118,-7.59376382828,0.42181545496,-1.88925766945,-0.509251058102,-2.83747911453,0.0811523348093
2017/07/09/09:32:44.639929,234930,1499563967,439325794,,0.839193859312,0.155984207587,0.209019388228,0.73126424277,0.67404567415,0.038361246589,0.0971774210674,-0.0392041860663,-0.294931737568,-0.0933702885303,-0.178035220109,0.143315385469,0.0788483867725,-8.0161819458,0.277108192444,-1.73631131649,-0.396077394485,-2.97330355644,0.0830478146672
2017/07/09/09:32:44.650362,234931,1499563967,449330125,,0.838822574837,0.153269561654,0.208261400966,0.731400927029,0.673915730042,0.0374660993593,0.0973989945626,-0.0330651798083,-0.29540154581,-0.0843419583564,-0.148236146059,0.116585209709,0.0432927207465,-9.05258083344,0.687899529934,-1.08862161636,-0.358514815569,-3.29309868813,0.147921666503
2017/07/09/09:32:44.660236,234932,1499563967,459324312,,0.838856457023,0.150559691126,0.207677781861,0.731288381074,0.673998783715,0.0370725211939,0.0978190749819,-0.0219272236751,-0.272704560645,-0.066728973502,-0.127111600747,0.0646624364832,0.0249522681131,-8.78906440735,0.836020827293,-0.857191205025,-0.324760079384,-3.03589987755,0.155610352755
2017/07/09/09:32:44.670046,234933,1499563967,469336923,,0.837843498696,0.147305555241,0.206624759849,0.732071017725,0.673292719987,0.0361070170195,0.0971865296336,-0.0338717430832,-0.28980640109,-0.0947742925916,-0.0750522526373,0.096999524564,-0.0411607067333,-8.98072624207,0.629757642746,-1.08388328552,-0.296960532665,-3.01825881004,0.183782100677
2017/07/09/09:32:44.680216,234934,1499563967,479335044,,0.837891332296,0.14605182915,0.205576731252,0.731587470233,0.673892083928,0.0359762214468,0.096720960021,-0.0451729438073,-0.274138297991,-0.116440791755,-0.0286469707384,0.125472991461,-0.0677453775568,-8.1492357254,1.38961064816,-0.991142868996,-0.443441212177,-2.82171320915,0.14428396523
2017/07/09/09:32:44.690055,234935,1499563967,489338405,,0.837186326003,0.143056009217,0.20400246425,0.732250233136,0.673303534112,0.0351103046033,0.0961208277896,-0.041480997231,-0.258056569968,-0.11676571207,-0.00826013101746,0.130433640647,-0.0684854686141,-8.50008964539,0.971692979336,-1.78492069244,-0.408194750547,-3.02638363838,0.196439534426
2017/07/09/09:32:44.700152,234936,1499563967,499348224,,0.837009593436,0.140766978749,0.203125803177,0.732625368178,0.672927196289,0.034789419979,0.0960143460845,-0.0309198229278,-0.256270419583,-0.0948286618071,-0.0226417744732,0.0922911921634,-0.103654059962,-8.79391002655,1.1062990427,-2.02325987816,-0.338143825531,-3.20239663124,0.256592094898
2017/07/09/09:32:44.709980,234937,1499563967,509327180,,0.836467202212,0.138073451233,0.202069760151,0.733356659332,0.672200713885,0.0340896730083,0.0957711055627,-0.034267009476,-0.265401094788,-0.105543157501,-0.0160239387796,0.100518651634,-0.165992018278,-8.92073726654,0.359738588333,-1.54292809963,-0.240200653672,-3.22715425491,0.240127384663
2017/07/09/09:32:44.720126,234938,1499563967,519327631,,0.836679126196,0.136297532007,0.202091110438,0.733894327625,0.671586130578,0.034571149201,0.0957915483597,-0.0306949741243,-0.266591477455,-0.100057117756,-0.0136822684505,0.0806815019883,-0.199775845594,-8.27970790863,1.86758708954,-1.17896187305,-0.495059341192,-3.0361058712,0.168356075883
2017/07/09/09:32:44.730280,234939,1499563967,529331999,,0.836314837268,0.133186937981,0.200455692465,0.734857305456,0.670597939771,0.0338533973701,0.095588133568,-0.0306619830743,-0.231726756319,-0.104509533863,0.0281905187269,0.0869897742195,-0.193465429663,-8.13379573822,0.951047360897,-1.21455860138,-0.444005101919,-2.95211791992,0.127416908741
2017/07/09/09:32:44.740170,234940,1499563967,539330430,,0.836406241115,0.131208091338,0.199668806355,0.735633088508,0.669774721992,0.0340839785168,0.0953103524319,-0.0242541941771,-0.252952820964,-0.100142746139,0.0108558412621,0.0586356077816,-0.22971585918,-7.64925289154,1.30403459072,-1.31333899498,-0.505233645439,-2.79340434074,0.103098005056
2017/07/09/09:32:44.749907,234941,1499563967,549322167,,0.835918816687,0.129458454284,0.198507979049,0.736382892634,0.669068284218,0.0336881160727,0.0946201739888,-0.021764736273,-0.233324329277,-0.108203354766,0.0577065104986,0.0626272046055,-0.240117452084,-7.79807472229,1.26281929016,-1.41997826099,-0.4903177917,-2.8032271862,0.113954782486
2017/07/09/09:32:44.760054,234942,1499563967,559335076,,0.835867012543,0.125463528677,0.196809899619,0.737956568112,0.667343663842,0.0330907987371,0.0947498651629,-0.00795402927608,-0.247886923076,-0.107550433195,0.0446497811699,0.0320265670507,-0.286531832736,-7.08917665482,0.28856831789,-2.2457716465,-0.305753409863,-2.56934309006,0.129011020064
2017/07/09/09:32:44.770806,234943,1499563967,569324791,,0.836189395046,0.123829263582,0.196154827882,0.7388872598,0.66628376459,0.0335484094725,0.0947948657374,-0.00495827939425,-0.261845302873,-0.107779631432,0.0506097032683,0.0107201772743,-0.340243988994,-7.1069355011,0.68082088232,-1.93286991119,-0.354880332947,-2.59733939171,0.164622873068
2017/07/09/09:32:44.780753,234944,1499563967,579362125,,0.836104639205,0.121850181887,0.194844061406,0.739592129834,0.665588338047,0.0336647333126,0.0941399568409,0.000967840928098,-0.265445026419,-0.0871879861341,0.0397196075598,-0.0230546273342,-0.341933516685,-7.72922468185,1.96257805824,-1.84625446796,-0.633447706699,-2.87926149368,0.0937180444598
2017/07/09/09:32:44.790313,234945,1499563967,589331277,,0.836107182679,0.119853329777,0.194700768,0.740644717384,0.664386476946,0.0337576337577,0.0943209098,0.011029739694,-0.237909668381,-0.088822427859,0.0459810761238,-0.0275087649586,-0.300206649729,-8.35070037842,1.03245162964,-1.24718987942,-0.426376193762,-3.05324840546,0.158808618784
2017/07/09/09:32:44.800028,234946,1499563967,599335488,,0.835817794072,0.116035788685,0.193193448907,0.742064111859,0.662820222843,0.0332111852436,0.0943780867337,-0.00219384639216,-0.248629762214,-0.0945696438598,0.0355828308041,0.00434161827122,-0.321090779825,-8.2864780426,0.157398745418,-1.56987822056,-0.256352216005,-3.00095558167,0.186959281564
2017/07/09/09:32:44.810077,234947,1499563967,609326987,,0.836525863498,0.113495058565,0.193306270215,0.743148478792,0.661479436934,0.0337434364855,0.0950614194997,0.00665738777308,-0.244648967154,-0.0954076115611,0.0319776187305,-0.013951955153,-0.318907747889,-7.7336730957,0.390840470791,-1.28128921986,-0.100760504603,-2.90156579018,0.217961937189
2017/07/09/09:32:44.820085,234948,1499563967,619339312,,0.836773412279,0.112007344897,0.192358579729,0.743187718435,0.661450732338,0.0340479306772,0.094845570662,0.0152500378773,-0.261576795309,-0.0790261487877,-0.0106083035551,-0.0222477203809,-0.290143099821,-6.93842458725,0.673326194286,-1.42903733253,-0.240696460009,-2.61264634132,0.142884552479
2017/07/09/09:32:44.830201,234949,1499563967,629329578,,0.836328381173,0.108353827093,0.19148340522,0.743961419536,0.660623213795,0.0332130929285,0.0948433766511,0.0161406399478,-0.265695082186,-0.0779224100756,-0.00756509611708,-0.0278715257225,-0.191246135851,-6.7780752182,0.392781078815,-1.692745924,-0.189768210053,-2.53052997589,0.132797569036
2017/07/09/09:32:44.839969,234950,1499563967,639321815,,0.83625689628,0.107225312603,0.189896629714,0.743105843325,0.661728736086,0.0329972161252,0.0939146909808,-0.00634601127677,-0.238388986972,-0.116309804137,0.0179028591657,0.0701741324623,-0.0181566536881,-6.53664922714,1.35489594936,-1.64414083958,-0.446881055832,-2.45507621765,0.0556853488088
2017/07/09/09:32:44.849915,234951,1499563967,649327437,,0.836035948667,0.104543875402,0.188802224817,0.743221291479,0.661662620495,0.0325333589828,0.0936283562003,0.00604328965411,-0.211855498139,-0.0961533714936,0.00749140139388,0.0582663173343,0.143123941356,-7.50203418732,0.796191573143,-1.54243087769,-0.451886296272,-2.75679373741,0.055138990283
2017/07/09/09:32:44.860061,234952,1499563967,659384915,,0.836206996697,0.102497871819,0.188177676464,0.743973503376,0.660817815898,0.0324524484048,0.0936487002576,-0.000755322589326,-0.244048265675,-0.0842891919296,0.00953927026322,0.055823518938,-0.0222615039937,-6.83997344971,0.767337322235,-1.08036732674,-0.453945606947,-2.5019235611,-0.0224391967058
2017/07/09/09:32:44.870006,234953,1499563967,669385208,,0.836311749723,0.0993454397223,0.187264448627,0.745330034452,0.659281993283,0.0325256428462,0.0936614949438,0.00727364623569,-0.26247874196,-0.0728028009921,0.017552180402,0.00187747144733,-0.260967592639,-6.62876796722,0.41068905592,-0.981737196445,-0.290951967239,-2.40396761894,0.0402004569769
2017/07/09/09:32:44.880114,234954,1499563967,679384511,,0.836422907472,0.0979600753736,0.186526647094,0.746087972081,0.658472939563,0.0328066048872,0.0932193781142,0.0190696982051,-0.249355529646,-0.068715895205,0.049194823211,-0.0293678730684,-0.336301263621,-6.37516498566,0.895159125328,-1.10342371464,-0.382701158524,-2.24619984627,0.033917978406
2017/07/09/09:32:44.890285,234955,1499563967,689384561,,0.836566702119,0.0949731477897,0.186182354381,0.747349843997,0.657011742089,0.0327020980872,0.0934577670174,0.0124118585647,-0.235730364668,-0.0822503045679,0.0522856080614,0.00773319527022,-0.335425932446,-6.56062746048,0.378132879734,-1.35325551033,-0.275797247887,-2.38588094711,0.0417235344648
2017/07/09/09:32:44.900095,234956,1499563967,699391692,,0.836743763184,0.0926012961608,0.185062479243,0.748287710057,0.655977043938,0.0325657387651,0.0932689308579,0.0175282675748,-0.261971191583,-0.0755944255497,0.0331539907778,-0.012556738752,-0.357298291565,-6.08520078659,1.16359090805,-1.52767682076,-0.471818804741,-2.2590239048,-0.0700415670872
2017/07/09/09:32:44.910093,234957,1499563967,709392567,,0.837471078882,0.0897725155313,0.185346271415,0.749290516488,0.654695521325,0.0329321000464,0.0940902388397,0.0355859959501,-0.267274690268,-0.0484481995994,0.00921344377768,-0.0564112316256,-0.332657475781,-5.80433940887,0.884407639503,-0.999849438667,-0.515662908554,-2.18829226494,-0.0993351042271
2017/07/09/09:32:44.919939,234958,1499563967,719421777,,0.837443433094,0.0879235227453,0.184596846219,0.750301102966,0.653599340492,0.0328647020565,0.0936806722619,0.0431776471015,-0.249927000654,-0.0348727468571,0.0449483247468,-0.0886077720283,-0.337411401575,-6.10556077957,1.18479943275,-0.911366462708,-0.537638127804,-2.25649189949,-0.111856639385
2017/07/09/09:32:44.929985,234959,1499563967,729383034,,0.838282261566,0.0856745903706,0.184197971641,0.751348672393,0.6523377655,0.0337218400034,0.0937733954993,0.0604291753527,-0.234796071739,-0.0267958917488,0.0483903112055,-0.127790827968,-0.337475395635,-5.30256128311,1.18464326859,-1.43402850628,-0.581805408001,-1.93718922138,-0.17911273241
2017/07/09/09:32:44.940193,234960,1499563967,739393638,,0.838840680924,0.0835357376386,0.183780717958,0.752319910423,0.651138419908,0.0340620730967,0.0941981192881,0.0240558433425,-0.250354092111,-0.0786929421569,0.0649204073172,-0.0264078760141,-0.341615848225,-4.3818769455,1.60029125214,-0.951663374901,-0.617797493935,-1.66098284721,-0.190375238657
2017/07/09/09:32:44.949878,234961,1499563967,749385291,,0.83883383013,0.0803690437461,0.182801564463,0.753623444689,0.649651506437,0.0337581742879,0.0941541792404,0.0265353742848,-0.271959370297,-0.0656847613027,0.0678452101868,-0.052641704905,-0.380601884825,-4.73952293396,0.816531836987,-1.09394550323,-0.380913197994,-1.78631424904,-0.148093029857
2017/07/09/09:32:44.960274,234962,1499563967,759398153,,0.839343302259,0.0783936757499,0.18182234871,0.754421730247,0.648713365401,0.0339214262736,0.0941709048541,0.0480376107052,-0.250119224925,-0.0514891601296,0.0493163093596,-0.0932688769889,-0.330923454113,-4.35677480698,1.37887966633,-1.49312102795,-0.541792273521,-1.63614332676,-0.213070869446
2017/07/09/09:32:44.970330,234963,1499563967,769385442,,0.840508048905,0.0767122923919,0.182342033435,0.755530121352,0.647314850314,0.0354387258279,0.094349440933,0.0678620709118,-0.245556521107,-0.0337844033888,0.0342057106322,-0.133218961267,-0.310371456134,-4.12131071091,1.21421909332,-1.38367986679,-0.463308155537,-1.49635148048,-0.180307745934
2017/07/09/09:32:44.980252,234964,1499563967,779385825,,0.84058994704,0.0734159513581,0.181756301142,0.756821922802,0.645753705186,0.0351079667393,0.0948164546692,0.0661174817712,-0.219377569035,-0.0467389183297,0.0752548033025,-0.116756206534,-0.312253828544,-4.44914865494,0.635834693909,-1.2552344799,-0.349574714899,-1.61004114151,-0.135409235954
2017/07/09/09:32:44.990009,234965,1499563967,789385848,,0.841701489376,0.0717792336796,0.181433461273,0.757387406622,0.644994428685,0.0361957494443,0.0950598284107,0.0658109646197,-0.248914057516,-0.0256770638401,0.0398271751271,-0.135579861416,-0.341531640863,-4.92696332932,1.04336702824,-1.41627430916,-0.467056155205,-1.84373903275,-0.137284517288
2017/07/09/09:32:45.000170,234966,1499563967,799391372,,0.842218128754,0.0697624494893,0.181265058049,0.758310350101,0.643878448428,0.036623691943,0.095103426689,0.0641186591455,-0.234681598994,-0.0362912816829,0.0512112007975,-0.123888957755,-0.307666163655,-4.41001749039,1.02178668976,-1.00592315197,-0.374694019556,-1.63940882683,-0.153005331755
2017/07/09/09:32:45.010386,234967,1499563967,809386125,,0.842587155998,0.0673205313257,0.180676241345,0.759276546533,0.642682833457,0.0367080195254,0.0954485346502,0.0567107280104,-0.241544316516,-0.0396623760794,0.0408771304792,-0.101752185413,-0.296822276718,-3.84454774857,1.6206381321,-1.28148674965,-0.61810874939,-1.46659052372,-0.257104158401
2017/07/09/09:32:45.020142,234968,1499563967,819393529,,0.842752087608,0.0647099801812,0.180246307642,0.760200925754,0.641596483263,0.0367062241787,0.0953999908473,0.0449661847909,-0.238059032637,-0.0485272195535,0.0365963830821,-0.0714063772297,-0.293212640991,-3.36294269562,0.82434630394,-1.26533591747,-0.49712318182,-1.30771875381,-0.27458781004
2017/07/09/09:32:45.030180,234969,1499563967,829391330,,0.843532455299,0.062407439889,0.179854092063,0.761160187153,0.640369313963,0.037309867685,0.0957616050521,0.0535056203995,-0.248259328562,-0.037365728844,0.0315934398794,-0.0993307764171,-0.276975273555,-2.87723517418,1.01542210579,-1.03543817997,-0.499962508678,-1.11246621609,-0.278372019529
2017/07/09/09:32:45.040216,234970,1499563967,839390491,,0.843837506485,0.0600426619941,0.179247569696,0.761740860366,0.639662993555,0.0373365827917,0.0958545560253,0.0521973512825,-0.228839434024,-0.0449293117074,0.0354996704833,-0.0845347229864,-0.209029579904,-3.09646296501,1.04811275005,-0.947704792023,-0.501822590828,-1.28140556812,-0.223255902529
2017/07/09/09:32:45.050244,234971,1499563967,849391449,,0.845274783508,0.0585100878213,0.179663809197,0.761928848138,0.639255076492,0.0383465613628,0.0966794641358,0.0649007561292,-0.22908769211,-0.0295770297291,0.0228062526393,-0.110414638125,-0.167822705442,-3.06343770027,0.919203400612,-1.08724439144,-0.453327536583,-1.27875828743,-0.201876282692
2017/07/09/09:32:45.060328,234972,1499563967,859395529,,0.845167269139,0.0565621617642,0.178180696535,0.762185787774,0.639054205304,0.0380366452784,0.0961028678803,0.0603140614275,-0.229661789493,-0.0462848430388,0.0178489658279,-0.0907838935387,-0.152720492648,-2.0029630661,0.96841442585,-1.59424805641,-0.377363175154,-0.939179480076,-0.199502646923
2017/07/09/09:32:45.070393,234973,1499563967,869398633,,0.846195652346,0.0539330012627,0.178152950764,0.762439306761,0.638593733237,0.0387263612898,0.0968742293755,0.0625874102833,-0.228267344718,-0.0501291008084,0.0139126440989,-0.0883957665982,-0.119206240295,-1.80544245243,0.227990210056,-1.45502173901,-0.124046489596,-0.910782933235,-0.113735809922
2017/07/09/09:32:45.080094,234974,1499563967,879393754,,0.846523834471,0.0508690866485,0.178376264969,0.762823694009,0.638032145715,0.0384624259215,0.0976505744212,0.0567857300505,-0.227458215227,-0.0588951665062,-0.0159168505572,-0.0643330709224,-0.0583810057323,-2.0572450161,-0.0070273578167,-0.783350288868,-0.205909073353,-0.957082986832,-0.162899643183
2017/07/09/09:32:45.090240,234975,1499563967,889384022,,0.847144358869,0.0495562053336,0.177577328218,0.762300550067,0.638650102898,0.0388031493143,0.0975614321288,0.0419393127805,-0.222668074918,-0.048093603092,-0.0105644582292,-0.0276021417423,-0.00787324554418,-2.92822647095,0.609811306,-0.982688546181,-0.442823559046,-1.34375679493,-0.227266833186
2017/07/09/09:32:45.100156,234976,1499563967,899393922,,0.847577880714,0.0469282292531,0.177181476886,0.762856541836,0.637967320875,0.0393734717921,0.0974542138204,0.0516136549113,-0.21792266951,-0.0408207561666,-0.00547899749727,-0.0532944844813,0.00676651545071,-2.54491090775,0.765375673771,-0.717668414116,-0.467567145824,-1.19701576233,-0.204397797585
2017/07/09/09:32:45.109937,234977,1499563967,909386068,,0.848183514056,0.0454091032814,0.176471424271,0.762451059147,0.638407744792,0.0395975865875,0.0976522653679,0.0657896931701,-0.21693591255,-0.0261318566824,0.00261910027534,-0.101384610479,0.0250201301386,-2.54569244385,1.29531264305,-1.02558493614,-0.598314940929,-1.21996021271,-0.237450912595
2017/07/09/09:32:45.120005,234978,1499563967,919392527,,0.848711292366,0.0430350806221,0.176447005077,0.762172424534,0.638652273552,0.0395686332858,0.0982384447495,0.056786833383,-0.240389575146,-0.0421031849231,-0.0342766457883,-0.0776408405996,0.0531823147261,-1.73420238495,1.34223246574,-0.160909622908,-0.571483194828,-0.84877717495,-0.216996535659
2017/07/09/09:32:45.129867,234979,1499563967,929384622,,0.849317264322,0.0415152892729,0.17591340784,0.761549225125,0.639364928619,0.0400813888148,0.0982280409773,0.0592761923107,-0.236629579157,-0.0377751159755,-0.0303183623761,-0.0805615053537,0.0585019427038,-1.9706184864,0.84925699234,-0.960610151291,-0.475567698479,-0.898884356022,-0.220918506384
2017/07/09/09:32:45.140001,234980,1499563967,939391315,,0.849750102733,0.0388787950326,0.175861053872,0.761350537288,0.639510733053,0.0399159212076,0.0988842804238,0.0528446024026,-0.231859090457,-0.0295698634531,-0.0596802441793,-0.0630523578921,0.105186480302,-2.48391246796,0.66170334816,-0.686300635338,-0.375395953655,-1.14076554775,-0.156370922923
2017/07/09/09:32:45.150389,234981,1499563967,949384647,,0.85028408864,0.0360270908656,0.175473786422,0.760817221496,0.640049375284,0.0397229374172,0.0995793197271,0.0572580032709,-0.220046695619,-0.0255289211151,-0.0586954762996,-0.0656601167481,0.16970597179,-2.4302418232,0.241975739598,-0.8216329813,-0.19011592865,-1.2645406723,-0.0584319084883
2017/07/09/09:32:45.160090,234982,1499563967,959386926,,0.850783158576,0.0341031636714,0.175033294739,0.760107182233,0.640847031661,0.0398155269936,0.0998342493324,0.0464222510764,-0.261801300987,-0.0231935339264,-0.0952411955208,-0.0598910356196,0.136340962407,-1.63514411449,1.26496088505,-1.56837999821,-0.469683051109,-1.11051857471,-0.2109503299
2017/07/09/09:32:45.170786,234983,1499563967,969416532,,0.851121494671,0.0322382490001,0.17442145135,0.759384512037,0.641687571239,0.0397922308773,0.0999439951072,0.0319447484621,-0.254820351943,-0.042869070649,-0.0768887005169,-0.0183740574296,0.161319407933,-1.83728051186,1.30201542377,-1.54159188271,-0.544491291046,-1.2052719593,-0.219203978777
2017/07/09/09:32:45.180189,234984,1499563967,979399927,,0.85126277121,0.0298670157847,0.173698237448,0.758720784238,0.642480371142,0.0396023815363,0.0999669727425,0.0404347886313,-0.24056907905,-0.0468768456182,-0.0633560392302,-0.0368910189895,0.192817698738,-1.69582891464,1.21260631084,-1.43030440807,-0.499525904655,-1.1301279068,-0.188578993082
2017/07/09/09:32:45.190027,234985,1499563967,989397963,,0.851823827828,0.0272750722827,0.173809941682,0.758226209258,0.64294137853,0.0400815938891,0.100562742597,0.0498846368359,-0.244897564589,-0.0389123482511,-0.0699667884037,-0.0721183078803,0.19572448018,-1.11634588242,0.683276772499,-1.19753193855,-0.405898034573,-0.87261980772,-0.141512125731
2017/07/09/09:32:45.200146,234986,1499563967,999398720,,0.852119193899,0.0244984844544,0.173391334334,0.757373077417,0.643847499463,0.0399070122947,0.101261292745,0.0437885994478,-0.243186383366,-0.0451158814876,-0.0590964208803,-0.0609779368098,0.207713990916,-1.61099588871,0.702060520649,-0.57673060894,-0.393979132175,-1.02763664722,-0.130508571863
2017/07/09/09:32:45.210442,234987,1499563968,9413309,,0.852684417631,0.0218611844215,0.173143854594,0.756531087692,0.644728642496,0.0401225186494,0.101862036101,0.0553681862525,-0.227619200966,-0.0255477102779,-0.0701294319514,-0.0835422068957,0.270541825618,-1.97237706184,-0.13140720129,-0.904268622398,-0.245634257793,-1.20116233826,-0.0456879362464
2017/07/09/09:32:45.220275,234988,1499563968,19394286,,0.852881458347,0.0205193219347,0.172640318264,0.755706106202,0.64573018921,0.0404591406319,0.101507939252,0.0491419518367,-0.241819940936,-0.0264483361314,-0.0773414897181,-0.0836075406447,0.280365542738,-1.11529862881,0.461324840784,-1.33291316032,-0.329060316086,-0.937476933002,-0.0933565050364
2017/07/09/09:32:45.230235,234989,1499563968,29387153,,0.853120960368,0.0181153516047,0.172272178676,0.7545627084,0.646994606677,0.0399073157258,0.102178785342,0.0404742334327,-0.236155744407,-0.030450751312,-0.0942852342035,-0.055477349832,0.307082114915,-0.665251970291,0.407040476799,-1.43866193295,-0.395094811916,-0.754975736141,-0.172317683697
2017/07/09/09:32:45.240093,234990,1499563968,39390604,,0.853815489908,0.0158561959498,0.172071274082,0.753391121206,0.648229236653,0.040573261913,0.102735026426,0.0375506556139,-0.235880852168,-0.0389163502139,-0.090432210655,-0.0504356725626,0.307369200161,0.712873339653,0.547368764877,-1.33991086483,-0.338025540113,-0.287028551102,-0.202273488045
2017/07/09/09:32:45.250191,234991,1499563968,49407884,,0.854220564433,0.0133636408213,0.171777714741,0.752845827674,0.648792509688,0.0408379992304,0.103071319706,0.0267587781144,-0.259828581912,-0.0398093575773,-0.109906836999,-0.0396231771033,0.292753828193,0.882939338684,0.2705501616,-1.28830635548,-0.286780893803,-0.168035700917,-0.217178180814
2017/07/09/09:32:45.260100,234992,1499563968,59387278,,0.854750784655,0.0108462640057,0.171738091908,0.7515804712,0.650109723787,0.0408224134954,0.104008042496,0.0303228078313,-0.244201240048,-0.0405232887497,-0.0913662275572,-0.0481962745957,0.279017676022,1.28399825096,0.64997792244,-1.07302522659,-0.370520412922,-0.0665327906609,-0.251379579306
2017/07/09/09:32:45.270418,234993,1499563968,69392112,,0.855014378524,0.00803743972433,0.171554969507,0.750846328696,0.650840709049,0.0408484569764,0.104726146165,0.0256132038234,-0.239532487543,-0.0404122129667,-0.10448865562,-0.0374978097724,0.314182769954,0.337317079306,0.903346955776,-0.778772234917,-0.432437360287,-0.345343261957,-0.210164904594
2017/07/09/09:32:45.280288,234994,1499563968,79392964,,0.854699894309,0.00617940942561,0.170564525464,0.749818789577,0.652090121735,0.0403816928718,0.104496769399,0.019739283852,-0.267924465681,-0.0348953624113,-0.0909467046093,-0.0548895214242,0.266121759406,-0.756688654423,1.23887133598,-0.529543638229,-0.496827542782,-0.779994368553,-0.144338056445
2017/07/09/09:32:45.290095,234995,1499563968,89432644,,0.854735661025,0.00386351491977,0.170059679593,0.748779699129,0.653254286631,0.0400752557204,0.104793955211,0.0139722735062,-0.268023279311,-0.0269813004657,-0.110437352494,-0.0421067706693,0.26422599859,-1.16543877125,1.05853307247,-1.40037059784,-0.487390518188,-0.963083326817,-0.092095464468
2017/07/09/09:32:45.300411,234996,1499563968,99393776,,0.855438787014,0.00200786646571,0.170511658759,0.74759241023,0.654451981611,0.0409180961312,0.105469907274,0.0241847428625,-0.242936538024,-0.0298947005938,-0.0896974882167,-0.0585041948557,0.309619127384,0.303280770779,0.878557562828,-0.715919494629,-0.277696490288,-0.368730664253,-0.160699993372
2017/07/09/09:32:45.310233,234997,1499563968,109399326,,0.85513906639,-0.000896185493014,0.169924656767,0.746422778912,0.655760859798,0.040381638359,0.105830303603,0.0113328516373,-0.251804618621,-0.031581913174,-0.116958969466,-0.0305882517558,0.32744334066,0.58313947916,0.371195167303,-1.12999904156,-0.227452024817,-0.265441179276,-0.205514431
2017/07/09/09:32:45.320187,234998,1499563968,119393361,,0.855621042646,-0.00307685982919,0.169521432154,0.745305598805,0.65692473928,0.0408098796475,0.106320294563,0.00692802145817,-0.263966395938,-0.0304921286654,-0.103601444181,-0.0382984817858,0.331728633638,0.832154452801,-0.437423855066,-0.816580474377,-0.0842776447535,-0.122172474861,-0.229950025678
2017/07/09/09:32:45.330434,234999,1499563968,129393391,,0.855249221719,-0.00574974421175,0.169064644938,0.744485257402,0.657862574287,0.0403412930899,0.10644770987,-0.00269870590479,-0.250590027702,-0.0451778090099,-0.0841165186152,-0.0112400535976,0.35720806383,0.758301496506,0.103161394596,-1.54952335358,-0.174759373069,-0.153034389019,-0.172902360559
2017/07/09/09:32:45.340399,235000,1499563968,139393649,,0.854981270719,-0.00783612306365,0.16834034917,0.742971253994,0.659614254764,0.039875521423,0.106361146294,0.0109629314511,-0.233057120297,-0.04073710946,-0.0849307121685,-0.0308058329169,0.365146147638,-0.124165117741,-0.0475742220879,-1.42224431038,-0.265435218811,-0.387072563171,-0.160599470139
2017/07/09/09:32:45.350462,235001,1499563968,149404771,,0.856066380068,-0.00960809045496,0.168607343301,0.741574875193,0.660948877026,0.0408285477563,0.107453786013,0.0103195078921,-0.218644843583,-0.0320428480842,-0.113940209756,-0.0194553158147,0.397717465313,0.339433938265,0.355756819248,-0.831546902657,-0.349747002125,-0.300085574389,-0.17021150887
2017/07/09/09:32:45.360249,235002,1499563968,159387116,,0.855094259206,-0.0124767037605,0.167894401735,0.740837669322,0.661894631923,0.0402556627445,0.10693234105,0.0200260328134,-0.222017131505,-0.0247885488364,-0.107255737287,-0.0535510646345,0.392193007945,-0.581460475922,-0.149625852704,-1.23675787449,-0.305526196957,-0.490540355444,-0.134662136436
2017/07/09/09:32:45.370198,235003,1499563968,169384131,,0.855376411757,-0.015468620731,0.1674634731,0.739324397423,0.66339970894,0.0395883790151,0.108319074038,-0.00489567928722,-0.241466359296,-0.0303672176551,-0.122538549114,-0.00787604435749,0.380363472232,-1.00509858131,-0.196234315634,-1.76113688946,-0.301180660725,-0.730496108532,-0.126338601112
2017/07/09/09:32:45.379996,235004,1499563968,179390390,,0.854870695677,-0.0178460280056,0.167250909807,0.738423026111,0.664425429981,0.0394643692107,0.108225902936,-0.0109531692103,-0.240370247895,-0.0364598589245,-0.136045416272,0.00852000919334,0.406324155446,-0.854048490524,-0.321966826916,-1.00250756741,-0.245646417141,-0.637133359909,-0.10102340579
2017/07/09/09:32:45.390077,235005,1499563968,189386014,,0.854783315564,-0.0197632202364,0.16683406834,0.736382728184,0.666653441277,0.038981667745,0.108600628196,-0.0171651676944,-0.226042867964,-0.0407764760877,-0.110341766615,0.0263659900445,0.441835160998,-1.30683255196,0.15587040782,-1.37827014923,-0.40225699544,-0.818638622761,-0.101770401001
2017/07/09/09:32:45.400105,235006,1499563968,199385837,,0.854393749826,-0.0218297593626,0.166523716076,0.735306014876,0.667847452561,0.0387441624915,0.108644992833,-0.0168863340644,-0.238534117919,-0.0440216689244,-0.135537422757,0.0223447009684,0.430478783624,-0.511515021324,0.351454794407,-1.01712071896,-0.445457309484,-0.467299878597,-0.150565862656
2017/07/09/09:32:45.410272,235007,1499563968,209390107,,0.854696588973,-0.0227639482024,0.166163081735,0.733565938409,0.669701951845,0.0389178330144,0.108929848866,-0.011441198144,-0.208313319461,-0.0340875707783,-0.109366405989,0.0116377539932,0.419772459364,-0.208334699273,0.804109036922,-0.97221583128,-0.53960454464,-0.388402253389,-0.181159213185
2017/07/09/09:32:45.420346,235008,1499563968,219404143,,0.854313971344,-0.0253524450627,0.165572191685,0.732743253976,0.67057606766,0.0385574097268,0.109217157029,-0.0042370266351,-0.209870931923,-0.0316334311758,-0.122721565895,-0.00727318610468,0.404218702236,-1.98682749271,0.27195212245,-0.548005342484,-0.40965500474,-0.958845436573,-0.0871961563826
2017/07/09/09:32:45.430355,235009,1499563968,229393083,,0.854079766248,-0.0279718499479,0.165518774618,0.732072024554,0.671275364082,0.0385590706288,0.109421819189,-0.0275892045152,-0.223049156393,-0.046374609963,-0.110235624572,0.0329520192299,0.335351549155,-1.50810432434,0.000788420438766,-0.506119966507,-0.289015948772,-0.843541324139,-0.0347373485565
2017/07/09/09:32:45.440089,235010,1499563968,239389269,,0.853924367882,-0.0292138796887,0.164933853769,0.730913096081,0.672553146994,0.0379471341683,0.109536868014,-0.0157655798199,-0.205688356917,-0.0331995496637,-0.0764413064381,-0.00265579644293,0.255003269982,-1.32037687302,0.601311326027,-0.694755554199,-0.363952934742,-0.81133633852,-0.0597002059221
2017/07/09/09:32:45.450203,235011,1499563968,249401452,,0.854636001446,-0.0302679414596,0.165065236948,0.729555117309,0.673897493727,0.0388681981914,0.110003463248,-0.0216685582926,-0.230267054976,-0.0249024474289,-0.111513894637,-0.00397116807372,0.20884611252,-0.899505794048,1.04678547382,-0.783450305462,-0.549539864063,-0.688909113407,-0.133415311575
2017/07/09/09:32:45.460173,235012,1499563968,259392269,,0.854119462345,-0.0326865137362,0.164430062228,0.728389503036,0.675170491834,0.0384891379217,0.110055100227,-0.0161914620419,-0.196922333295,-0.030834622158,-0.0725393287516,-0.00413529465068,0.326235877263,-1.2014336586,0.613133788109,-1.61668086052,-0.571340084076,-0.736346125603,-0.116388954222
2017/07/09/09:32:45.470278,235013,1499563968,269387226,,0.853626074065,-0.0346192385377,0.163655378735,0.727230797188,0.676456125962,0.0380686710878,0.109969330049,-0.0194939207494,-0.187435108477,-0.0377228117874,-0.0492453504936,0.0126320370195,0.366706836217,-0.827575027943,0.24206443131,-1.52912604809,-0.469163715839,-0.657768964767,-0.0932993218303
2017/07/09/09:32:45.480140,235014,1499563968,279413369,,0.853554911598,-0.0366344996547,0.164177864946,0.726726950675,0.676913191056,0.0380504391368,0.110492692151,-0.0276591967743,-0.193067653089,-0.0401043914841,-0.0412994360625,0.0230486533974,0.302932418288,-0.082317173481,0.408188939095,-0.86039352417,-0.449510991573,-0.384672820568,-0.0939771234989
2017/07/09/09:32:45.490549,235015,1499563968,289386075,,0.853717419719,-0.0365529857368,0.162291289566,0.725456612132,0.678401443403,0.0389903059195,0.10937980411,-0.0187595272091,-0.153756953053,-0.0517680689583,-0.00579524748719,0.0109166274023,0.234928022192,-0.0267627611756,0.74319934845,-1.09753918648,-0.532290577888,-0.370280385017,-0.0192242451012
2017/07/09/09:32:45.500148,235016,1499563968,299390231,,0.853544036324,-0.0381589597335,0.162395510738,0.724442050206,0.679451997648,0.0388853615635,0.109620378772,-0.0123996248238,-0.130533316768,-0.0593798275676,0.0432791253643,0.00493409660325,0.279449083665,-0.773622989655,1.14072346687,-0.551277160645,-0.597331643105,-0.604140222073,0.0223687570542
2017/07/09/09:32:45.510337,235017,1499563968,309386856,,0.852803362926,-0.040665801843,0.16187775448,0.723955748138,0.68002782718,0.0388858695675,0.1092616957,-0.0169571181912,-0.134874257878,-0.0548728833718,0.0184028463643,0.02083687835,0.351041633625,-2.23692464828,0.474202424288,-1.07851850986,-0.537976503372,-1.16509974003,0.0720341056585
2017/07/09/09:32:45.520253,235018,1499563968,319393098,,0.853251682161,-0.0405397940585,0.161723738898,0.722542610671,0.681499333041,0.039881778723,0.109088397897,-0.0231480184911,-0.123783463692,-0.0534402610087,0.0590087959734,0.0204499979899,0.332703443606,-2.70228409767,1.13915002346,-0.300946116447,-0.700611710548,-1.36669945717,0.0886150225997
2017/07/09/09:32:45.530288,235019,1499563968,329392257,,0.85253067797,-0.0421780315436,0.160431321364,0.722198168209,0.681983034452,0.0397574936234,0.10838952097,-0.0117940106108,-0.116888010817,-0.0400795073581,0.0642412108139,-0.0180280465369,0.291825134275,-2.81556797028,1.11738407612,-0.938603103161,-0.65850764513,-1.36405384541,0.0865554213524
2017/07/09/09:32:45.540338,235020,1499563968,339393496,,0.85228093622,-0.0439166870975,0.160066493125,0.721615583786,0.682596508318,0.0400552494497,0.108298352069,-0.0158778917868,-0.0965724071788,-0.0543099663685,0.0810381761754,0.00440680476595,0.238239021226,-1.44448578358,-0.1768232584,-1.10488021374,-0.405511766672,-0.761137247086,0.0629613548517
2017/07/09/09:32:45.549965,235021,1499563968,349386132,,0.852483514989,-0.0434431555828,0.159640982798,0.720930013248,0.683378165019,0.0405356856577,0.107754618288,-0.002860384799,-0.0996793523123,-0.0482286017799,0.0991676392943,-0.039876944124,0.167522552997,-0.221698313951,0.906768977642,-0.710666060448,-0.43503883481,-0.356152385473,0.0439132340252
2017/07/09/09:32:45.560044,235022,1499563968,359383965,,0.852392777874,-0.045619809764,0.159791864098,0.721101501663,0.68309488153,0.0412780676312,0.108120896498,-0.00260420757839,-0.0868719236388,-0.046683912802,0.1046928213,-0.0381037727231,0.134933325527,-0.649490594864,-0.562240719795,-0.800658941269,-0.162841379642,-0.444953143597,0.113639771938
2017/07/09/09:32:45.570085,235023,1499563968,369397646,,0.85212736952,-0.0454838304453,0.158641834501,0.720853339123,0.683501235255,0.0415420102811,0.107101756573,-0.0213588455749,-0.107996199602,-0.0557510832199,0.0888981558331,0.00175264784945,0.0859357055205,-0.533223807812,0.360198915005,-0.947122275829,-0.528112769127,-0.333550333977,0.000539548695087
2017/07/09/09:32:45.580236,235024,1499563968,379384101,,0.852381402675,-0.0468733408573,0.158806771782,0.720935143147,0.683296029722,0.0419632456567,0.107694666328,-0.0206261103408,-0.11462932831,-0.0332872646718,0.0687174785834,-0.0175350874619,0.0332173139621,-1.14109396935,0.62143778801,-0.477609217167,-0.574936151505,-0.628316581249,0.00276207737625
2017/07/09/09:32:45.590305,235025,1499563968,389386322,,0.851839327574,-0.0476971243612,0.158265998703,0.720869108659,0.683455286299,0.0417354300782,0.107213589095,-0.00600288183031,-0.114116413327,0.00048913110041,0.00903947484365,-0.0559113307304,0.00517274273246,-2.41617083549,0.876847445965,-0.307859390974,-0.664119184017,-1.06497716904,0.0269814245403
2017/07/09/09:32:45.600119,235026,1499563968,399392756,,0.851730109882,-0.0496803593327,0.158647249008,0.721109025404,0.683116883077,0.0418456399906,0.107712765951,-0.0128419176962,-0.110203503487,-0.0291692371227,0.00634555313015,-0.0184504979326,-0.0182910854046,-0.945509076118,0.174887284636,-0.727674782276,-0.532258331776,-0.498293936253,-0.0675081461668
2017/07/09/09:32:45.610351,235027,1499563968,409384597,,0.85155724975,-0.0504173809475,0.157713114095,0.721387062959,0.682851965192,0.0416856212894,0.107592787894,-0.0133349663137,-0.119347228995,-0.0157583209312,0.0139932288586,-0.0330097022326,-0.0466199842328,-0.554430067539,0.387995332479,-1.43886005878,-0.611315131187,-0.367804020643,-0.112141206861
2017/07/09/09:32:45.620235,235028,1499563968,419409161,,0.85176341493,-0.0509710937187,0.157655068556,0.721955309871,0.68220917604,0.0425094727795,0.107536577033,-0.0176742062952,-0.105640950589,-0.0363875933333,0.0509311085424,-0.0232392228326,-0.111041902071,0.61715734005,0.0577933639288,-1.16608941555,-0.525430798531,0.0928524956107,-0.163573563099
2017/07/09/09:32:45.630110,235029,1499563968,429393358,,0.851513675104,-0.0523005771753,0.157492907602,0.722291740363,0.681848187462,0.0425738816887,0.107541413678,-0.000529276572562,-0.0884580695542,-0.0261082266585,0.0597020932191,-0.0528741315058,-0.13863844693,0.687636017799,-0.371116161346,-1.26124703884,-0.533738911152,0.178302899003,-0.228429377079
2017/07/09/09:32:45.640178,235030,1499563968,439389279,,0.851779716422,-0.0525482938373,0.1571784811,0.721826968875,0.682318503355,0.043060915889,0.107485089699,0.00150942432074,-0.10829380915,-0.018949335448,0.0322197555841,-0.0660347926422,-0.118124200497,0.654296875,0.0974651426077,-0.921568036079,-0.560978472233,0.151632100344,-0.194646924734
2017/07/09/09:32:45.650035,235031,1499563968,449391582,,0.851722153054,-0.0535845405371,0.157690737288,0.721839691246,0.682245292554,0.0433700609896,0.107739773252,-0.0161993996757,-0.0920436478038,-0.0250457189127,0.00594901835012,0.00162139529019,0.0435460230456,0.111289680004,0.709478914738,-0.961922943592,-0.731633722782,-0.149297967553,-0.229374974966
2017/07/09/09:32:45.660146,235032,1499563968,459400104,,0.85116779379,-0.0532684556621,0.156310802764,0.721200934979,0.68310340355,0.042567739697,0.106896861413,-0.0190662469687,-0.0633609887296,-0.0335052930431,0.0239427328858,0.0255915163545,0.131691662136,-1.38751459122,1.09557187557,-1.09915566444,-0.922549188137,-0.634244441986,-0.209204629064
2017/07/09/09:32:45.670142,235033,1499563968,469389270,,0.850886810332,-0.0545988433395,0.156363824897,0.721114621626,0.683163851226,0.0424964960797,0.107120972155,-0.0174281888118,-0.027761581459,-0.0434703848933,0.0427525952555,0.0442030892489,0.122257033058,-0.33699247241,0.262466371059,-0.425400137901,-0.713665485382,-0.208231210709,-0.205723136663
2017/07/09/09:32:45.680174,235034,1499563968,479391047,,0.85125278794,-0.0545280797175,0.156320245392,0.721283024385,0.68293888953,0.0434551237726,0.107037022195,-0.0174212546201,-0.0728036708338,-0.0243536019876,0.0242379329184,-0.00755508186999,0.00229543171382,0.514369666576,0.625849485397,-0.664546012878,-0.680952906609,0.100474119186,-0.229078069329
2017/07/09/09:32:45.690443,235035,1499563968,489385275,,0.851096479698,-0.054932213208,0.156071561544,0.721680901326,0.682549960638,0.0435439288391,0.106799598102,-0.00357486765161,-0.0448491221658,-0.0263277652383,0.0420589569055,-0.0224654755187,-0.0345060964181,1.34317231178,-0.313926160336,-0.764374673367,-0.413465410471,0.490034371614,-0.209282755852
2017/07/09/09:32:45.700287,235036,1499563968,499390496,,0.850757690489,-0.0551984345614,0.154789522009,0.72180290898,0.682512281191,0.0432357053336,0.106340116584,-0.0124338008574,-0.0253464452171,-0.0349414178418,0.0540825457175,0.0113207570957,-0.0646062569662,0.369785964489,0.0190885514021,-0.93893045187,-0.471159160137,0.0613476037979,-0.173561736941
2017/07/09/09:32:45.710250,235037,1499563968,509385152,,0.85049268649,-0.0563247442623,0.154969295825,0.722179504427,0.682078088561,0.0430975851586,0.106624775001,-0.0169733896093,-0.0524157557161,-0.0318146794454,0.0226112361696,0.0122945855802,-0.0834113953299,-0.854485869408,-0.0752292275429,-1.32061803341,-0.454293549061,-0.369697213173,-0.12190657109
2017/07/09/09:32:45.720156,235038,1499563968,519392481,,0.850378444302,-0.05600001874,0.154669772397,0.722009253125,0.682320207844,0.0430746316341,0.106237227371,-0.0023655738456,-0.0339452465087,-0.016167625449,0.0100045045153,-0.00656451849665,-0.0224212490878,-1.96243584156,0.910569787025,-1.14244532585,-0.708505094051,-0.76806139946,-0.148664057255
2017/07/09/09:32:45.730016,235039,1499563968,529384609,,0.850213482269,-0.0565838709558,0.154517656274,0.721591832054,0.68276416475,0.0428287912797,0.106320354985,0.00853477926598,-0.0215037834729,-0.0192966884583,0.00338211039148,-0.0231369400829,0.0427709338469,-2.59263110161,0.648709535599,-1.4835691452,-0.681623518467,-0.911230385303,-0.0919669494033
2017/07/09/09:32:45.740205,235040,1499563968,539392892,,0.850439442969,-0.0565956591299,0.154246153889,0.721418417728,0.682905421988,0.0432018634569,0.106438950464,-0.00975722962694,-0.0446301326424,-0.0200003500553,-0.03853724826,0.0047366972464,0.0820991520494,-2.01407217979,1.18577897549,-0.761851012707,-0.732258498669,-0.685326635838,-0.166965454817
2017/07/09/09:32:45.750306,235041,1499563968,549385913,,0.850983360477,-0.0560404036289,0.154476450946,0.720713886562,0.683588314296,0.0436333344082,0.106651968583,-0.0125952181478,-0.011077255654,-0.0352678660817,-0.016398737192,0.0391431930149,0.1508438535,-1.14952468872,0.778460502625,-0.345911085606,-0.566552817822,-0.29695007205,-0.143345221877
2017/07/09/09:32:45.760254,235042,1499563968,559393246,,0.850654890132,-0.0567361343588,0.154140435372,0.720669262353,0.683637883305,0.0432923353654,0.106774681028,-0.00820830021603,-0.00731256591131,-0.0250364552042,-0.0136861399937,0.0239144465615,0.0886811258698,-0.774295568466,0.211888283491,0.117585860193,-0.48572409153,-0.0296757761389,-0.177948445082
2017/07/09/09:32:45.770137,235043,1499563968,569386875,,0.850724736312,-0.0572261391998,0.154271996176,0.720997199522,0.683261795201,0.0429883060849,0.10709044327,0.00747335382375,0.0027392021262,-0.014596893804,-0.0222561031822,-0.00250608476682,0.0482739380569,0.169230818748,0.598676621914,0.593821644783,-0.488884150982,0.259046912193,-0.201822459698
2017/07/09/09:32:45.780300,235044,1499563968,579390435,,0.850387810987,-0.0575046319979,0.154393453035,0.720909037448,0.683383815431,0.0429363822861,0.106926084796,0.00084356731022,0.0139732953289,-0.0173857835269,0.00419182314023,0.0185061013018,0.0113271170323,0.0468944720924,-0.448228299618,0.0629272311926,-0.134616956115,0.188186004758,-0.0841974467039
2017/07/09/09:32:45.790176,235045,1499563968,589385137,,0.850322778488,-0.0563611523554,0.153131583203,0.720579717953,0.683879971008,0.042933613601,0.105970562666,-0.0166123008099,-0.0253208561776,-0.0287066816508,-0.00843878599838,0.0416653678855,-0.0280568811988,0.177525639534,0.376614630222,-0.75512611866,-0.251783341169,0.141429707408,-0.142927706242
2017/07/09/09:32:45.799928,235046,1499563968,599385116,,0.849874977456,-0.0568993595691,0.153166731696,0.720686208063,0.683797880936,0.0423467350335,0.106012270832,-0.0187325505929,-0.0113813073156,-0.0143364865705,-0.00792937900591,0.0512622737957,-0.00254354594405,-1.10494303703,0.701019525528,-0.815316796303,-0.368696272373,-0.395517408848,-0.0906153544784
2017/07/09/09:32:45.810060,235047,1499563968,609433073,,0.849562919663,-0.0578622717149,0.152989562968,0.720968437707,0.683500132068,0.041888450602,0.106195287084,-0.00303392789216,-0.00912231084258,-0.0105945526355,-0.0251141895739,0.0202524533156,0.0122008884719,-2.01118445396,-0.0190676152706,-0.487014502287,-0.191304549575,-0.629303514957,-0.0238603949547
2017/07/09/09:32:45.820225,235048,1499563968,619393099,,0.850187467174,-0.0571010960912,0.153083947631,0.720464570705,0.683966715689,0.0422490046576,0.10646762792,-0.00505788460207,-0.00495370369053,-0.0111792577666,-0.0248263019186,0.0238466673139,0.00710985564452,-1.04580056667,0.509904146194,-0.702098369598,-0.326076358557,-0.282691091299,-0.129450008273
2017/07/09/09:32:45.830153,235049,1499563968,629383809,,0.850707553383,-0.0567862916655,0.153441060696,0.720441093127,0.683900680936,0.0426997485809,0.106870114721,0.00342836686466,0.00308696191486,-0.0113404051081,-0.00907290813678,-0.00199850410793,0.00661193206474,-0.718849658966,0.192913725972,-0.0978733301163,-0.159596547484,-0.144386440516,-0.0859572887421
2017/07/09/09:32:45.840406,235050,1499563968,639393473,,0.850423191034,-0.0571691628124,0.153521230022,0.720404799101,0.683968574076,0.0422591563306,0.106855410784,0.011149792945,0.0049347954265,0.000663450570337,0.00391120638893,-0.0253307625218,0.00134602555375,-0.245424106717,-0.0305584222078,0.0679527819157,-0.0933073312044,0.0594863258302,-0.112029857934
2017/07/09/09:32:45.850611,235051,1499563968,649393303,,0.850380358362,-0.0561767066782,0.153405546896,0.719966285477,0.684513084749,0.0424059995996,0.106264367416,-0.00898061161087,-0.0202942494973,0.000793265537116,-0.0136538875424,0.00423586510864,-0.0264248312176,-0.077863290906,0.871835529804,-0.235333263874,-0.279576599598,0.0479798018932,-0.148424863815
2017/07/09/09:32:45.860028,235052,1499563968,659386463,,0.850370641893,-0.0567512625872,0.153774764641,0.720509447531,0.683892387751,0.0424609533338,0.1065570525,0.000892985800568,-0.00308917147321,0.00208764995884,-0.00709333325123,-0.00113510238746,-0.00609152134105,0.438165098429,0.136366546154,-0.628425180912,-0.0991591885686,0.247875005007,-0.141028478742
2017/07/09/09:32:45.870173,235053,1499563968,669384715,,0.850304748687,-0.0573257199101,0.153680159704,0.720662216402,0.683690309362,0.0422414512484,0.106907392317,0.00165772918073,0.0239804313048,-0.00338659434138,-0.000247344193285,0.0200157089217,0.0348480300073,0.122297152877,-0.24527412653,0.00291389413178,0.095376983285,0.0714511945844,-0.013442620635
2017/07/09/09:32:45.880105,235054,1499563968,679390079,,0.850467757489,-0.0567245607463,0.153521067424,0.720449385102,0.683947274944,0.0422132051383,0.106709202578,-0.0179872923402,0.00568527030574,-0.00716214826645,-0.00434458119019,0.0530949275831,0.00594959752592,-0.0110246241093,0.119444325566,-0.111318215728,-0.111217610538,-0.0414117947221,-0.0907556638122
2017/07/09/09:32:45.889962,235055,1499563968,689384562,,0.849936534589,-0.0563952572446,0.153136132016,0.720543237591,0.683975873917,0.0421488170458,0.105914700975,0.00394773369636,0.00665260906751,0.00623303027543,-0.00276523098641,0.00186027149325,0.00206816947644,-0.477682471275,0.386515140533,-0.845813632011,-0.143249928951,-0.244431838393,-0.061788007617
2017/07/09/09:32:45.900295,235056,1499563968,699384205,,0.849887759617,-0.0567582185338,0.153376323398,0.720645944167,0.683834972329,0.0417815504006,0.106270672441,0.00353605428912,0.0231524398618,0.000175820522675,0.0314289697647,0.00390854623447,0.00362835399172,-0.843318045139,-0.0305280983448,-0.662156999111,0.0122228376567,-0.33058193326,0.00450177490711
2017/07/09/09:32:45.910300,235057,1499563968,709393019,,0.850252222775,-0.0565845974923,0.153627161129,0.720281595541,0.684181628401,0.0419796247505,0.106431356234,-0.00112236270918,-0.00522712558405,0.00429028773299,-0.0244066477745,0.00424840622968,0.010859738856,-0.301145613194,0.3877607584,-0.359436154366,-0.223735183477,-0.139201626182,-0.138105779886
2017/07/09/09:32:45.920071,235058,1499563968,719405211,,0.849693781303,-0.0565957012981,0.153073258793,0.720767088974,0.683773064705,0.0419230258738,0.105790639176,0.0121131909147,0.0248536051168,0.0188719384052,0.0172928644211,-0.0254701725717,0.0250334582947,-0.699196636677,0.132015913725,-0.787812769413,-0.113806016743,-0.326796382666,-0.0363526903093
2017/07/09/09:32:45.930125,235059,1499563968,729392177,,0.85061323005,-0.0563890147141,0.153684537867,0.720436283964,0.683964344978,0.0425161926339,0.10656786059,-0.00235250056798,-0.00490570151498,-0.00915807883616,-0.000795960651145,0.00472877678866,-0.0144419370332,0.358814477921,0.586937069893,-0.413246005774,-0.22122387588,0.0602467060089,-0.149534851313
2017/07/09/09:32:45.940153,235060,1499563968,739395109,,0.849832537536,-0.0564748413077,0.152953416546,0.720506408782,0.684044311054,0.0417863976534,0.105866861626,0.0111465527851,0.0051482735042,0.00904402008627,0.00733661600734,-0.0265908552197,0.00907779456586,-0.399159550667,-0.25857001543,-0.688192903996,-0.0973023697734,-0.133796170354,-0.0711602568626
2017/07/09/09:32:45.950280,235061,1499563968,749386942,,0.850293838613,-0.0564021271603,0.153483763621,0.720279313248,0.684187829725,0.0421536168932,0.106338126495,0.00580717286724,-0.00251359420984,0.0060544487799,-0.0048902137046,-0.0147280717041,0.00225017445043,-0.491057991982,0.532739341259,-0.399494171143,-0.174265444279,-0.248675331473,-0.0826031640172
2017/07/09/09:32:45.960116,235062,1499563968,759385121,,0.850088975725,-0.0567841142149,0.153721258374,0.720325067422,0.68413661254,0.0418018497625,0.106496469343,-0.00281991791648,0.00552051935618,-0.00530726732643,-0.00529310467607,0.0195981895492,0.017367749869,-0.464594721794,-0.269198209047,-0.518460094929,-0.103977680206,-0.188426107168,-0.0891585350037
2017/07/09/09:32:45.970225,235063,1499563968,769384631,,0.850086076795,-0.0568404270083,0.153286058957,0.720528154952,0.683928464482,0.0418829821789,0.106427671195,0.00576611294473,0.00669477947179,-0.00225224374043,0.0019284035487,-0.0093316428928,0.0047159843344,-0.609712064266,-0.525394082069,-0.697397172451,-0.0091103464365,-0.217338353395,-0.0369253084064
2017/07/09/09:32:45.980152,235064,1499563968,779390900,,0.84986384563,-0.0570765688408,0.153262499477,0.7204864512,0.683994880374,0.0414619468689,0.106448035307,0.00788915950286,0.00961732599643,0.0211882448402,-0.01033351085,-0.0177198512753,0.0203133817154,-0.37598824501,-0.253694951534,-0.760319232941,-0.0288675241172,-0.183676585555,-0.0617356151342
2017/07/09/09:32:45.990118,235065,1499563968,789384969,,0.850153981831,-0.0559161251982,0.153246951494,0.720095630919,0.684445287524,0.0418632521077,0.106039609772,-0.00480984741774,0.0115659300704,-0.00705993713537,-0.0146075943435,0.028151248812,0.0264656811595,0.430210500956,-0.226329937577,-0.387460440397,-0.0600669533014,0.105988807976,-0.097063139081
2017/07/09/09:32:46.000205,235066,1499563968,799386294,,0.850358894019,-0.0557395753934,0.153301408536,0.720193537149,0.684317733797,0.0424153428902,0.105978521155,-0.00990835341659,0.00955523057835,-0.0187014517343,0.00971170294822,0.0362720888749,0.0127361061599,0.237024694681,-0.0334878116846,-0.62956225872,-0.0713105723262,0.039365246892,-0.111822657287
2017/07/09/09:32:46.010110,235067,1499563968,809387524,,0.850021036335,-0.0554113386921,0.153066732782,0.720054135069,0.684553723093,0.0419978131801,0.105567165622,0.00804521851798,0.0115505038089,0.00949889351691,0.0231909992931,-0.0187963648621,-0.000164635026229,0.0347541570663,0.372116565704,-0.638569533825,-0.127127990127,-0.0617630109191,-0.0645635798573
2017/07/09/09:32:46.020221,235068,1499563968,819393217,,0.850494184716,-0.0561000461751,0.153639807585,0.720361201615,0.684069309472,0.0422827905913,0.106494528811,0.000240750994413,0.00471425130387,0.00885346662054,0.00104370363596,-0.00319427597034,0.00589746622361,0.369339317083,-0.165930122137,-0.640559375286,0.00667014718056,0.0830618590117,-0.0739358812571
2017/07/09/09:32:46.030205,235069,1499563968,829390671,,0.850032670616,-0.0560652466678,0.153613511509,0.720232867146,0.684307236571,0.0418265565075,0.106013028582,0.00519986115819,0.00579432185045,0.00080893097901,0.00644427270802,-0.00991607434751,-0.00363305694202,0.889378130436,-0.883088350296,-0.647787570953,0.164756178856,0.312075614929,-0.0503076724708
2017/07/09/09:32:46.040168,235070,1499563968,839393848,,0.850659066564,-0.0555601052197,0.15393064821,0.720418088087,0.684007546456,0.0424567599332,0.10643720348,-0.0103903995538,-0.00707666047695,-0.00461425864191,-0.00925488690104,0.0260523553566,-0.000613562675114,1.10137939453,-0.252470344305,-0.56720995903,0.0121698565781,0.363376438618,-0.101093992591
2017/07/09/09:32:46.049990,235071,1499563968,849396734,,0.850301763625,-0.0554362011936,0.153568356239,0.720077615486,0.684460660669,0.0421476949743,0.105950004635,0.0117208549497,0.000399914021584,-0.00598792093281,-0.00944188918814,-0.0199630595873,0.00469787041139,0.588421523571,-0.0604617595673,-0.648872673512,-0.0150326043367,0.135206744075,-0.0883330032229
2017/07/09/09:32:46.060184,235072,1499563968,859385020,,0.850095506052,-0.0563199192539,0.153573998281,0.720528190394,0.683956372127,0.0420724574375,0.106173048367,-0.0129314173732,0.00869479809912,-0.0102209918632,0.012967067871,0.0356276128724,0.00177579317474,0.819151580334,-0.931117594242,-0.0581468231976,0.12665502727,0.233698874712,-0.044426292181
2017/07/09/09:32:46.070423,235073,1499563968,869384890,,0.850213912251,-0.056324873002,0.153568284215,0.720775686547,0.683674440492,0.0423628949545,0.10619347547,-0.023285056031,-0.00102996681569,-0.0188178794843,0.0168637248873,0.0515909903271,-0.012973809666,0.490683227777,-0.752848505974,-0.425967603922,0.105348110199,0.0520307943225,-0.0478419661522
2017/07/09/09:32:46.080088,235074,1499563968,879389149,,0.850132040172,-0.05515108228,0.153153409851,0.719989955563,0.684619981959,0.0425537290453,0.105352381723,0.00114008709017,-0.00670889216982,0.00083464913764,0.000515556972756,-0.00747785868432,0.00498195615673,1.36664760113,-0.01111112535,-0.45387595892,-0.00330927595496,0.420204132795,-0.111832216382
2017/07/09/09:32:46.089874,235075,1499563968,889383804,,0.850343119019,-0.0552536472819,0.153425059188,0.719944077,0.684604835842,0.0423012970555,0.10586474863,0.00735050090689,0.0239680227495,0.00591688651323,0.0318649284892,-0.0102416198338,0.0238410201896,0.506427884102,-0.562205791473,-0.0943743288517,0.105337142944,0.100098595023,-0.0384425893426
2017/07/09/09:32:46.100239,235076,1499563968,899390700,,0.850316500894,-0.0556382445118,0.153394352656,0.720368346682,0.684134701167,0.0422981847737,0.106018957376,0.0114252844043,-0.0151776968854,0.0147180911375,-0.0185182100137,-0.0382256380793,-0.0210071137319,1.12988686562,-0.0897703319788,-0.495228976011,-0.0404232107103,0.306206971407,-0.110987231135
2017/07/09/09:32:46.110386,235077,1499563968,909387448,,0.850014866047,-0.0558315663482,0.153075092771,0.720343952707,0.684214716776,0.0418197091163,0.105858032641,0.00442864578898,0.0102785093556,0.00234933399896,0.0132184430821,-0.00299221634673,-0.00964132870655,0.707898557186,-0.479312539101,-0.669719338417,-2.26199626923e-05,0.17925350368,-0.103098019958
2017/07/09/09:32:46.120214,235078,1499563968,919407609,,0.850497128642,-0.0555843421813,0.153561652594,0.720543198821,0.683923944038,0.0425656536872,0.106083469639,-0.0135185284303,-0.0134424893229,-0.0150927460899,0.00177084836572,0.0262178379514,-0.0268459452294,1.034963727,-0.433387935162,-0.344031870365,0.0551792532206,0.266458064318,-0.0920729860663
2017/07/09/09:32:46.129979,235079,1499563968,929384959,,0.850116711136,-0.0561457756143,0.153530252212,0.72082323086,0.683660112311,0.0424306517822,0.10593564309,0.000314156944111,-0.00991609444687,0.00322076867558,-0.00681398081588,-0.0111291302893,-0.00911866437729,1.31169772148,-0.512391388416,-0.36308285594,0.0587915666401,0.445392906666,-0.0893847942352
2017/07/09/09:32:46.140098,235080,1499563968,939396613,,0.850429536709,-0.0550721678957,0.153485626318,0.719793973448,0.684759018848,0.0425630056569,0.105783327812,-0.00205854426658,-0.00720237045607,0.0040216032159,-0.0152117329228,-0.000305410667752,0.0211320175812,1.19400167465,0.188715800643,-0.392714828253,-0.0517570376396,0.368698179722,-0.121443934739
2017/07/09/09:32:46.149955,235081,1499563968,949399755,,0.850420311415,-0.0554849649403,0.153701219223,0.720094754333,0.684422144101,0.0423865141627,0.105987059886,0.0133243005538,0.015968848561,0.00932502362013,0.0129716029322,-0.0241086118527,0.0143836685442,0.55446189642,-0.189412742853,-0.533315598965,-0.0053244009614,0.154795259237,-0.0670931190252
2017/07/09/09:32:46.160072,235082,1499563968,959386402,,0.850600270255,-0.0551814036371,0.153438049386,0.720094263708,0.684422986938,0.0424644724481,0.105953739461,0.00244443659639,-0.00639165423751,0.00503671280844,-0.0197991233174,-0.00322318640818,-0.00257521883124,1.30225098133,0.290348231792,-0.680158078671,-0.106681011617,0.351120889187,-0.1259855479
2017/07/09/09:32:46.170146,235083,1499563968,969387604,,0.850807457921,-0.0548604306248,0.153650959802,0.720187133028,0.684293459665,0.0429980596141,0.105943953815,0.0124333281849,0.0126568750145,-0.00104783436941,-0.00320091594186,-0.0161073682472,0.0313921784391,1.55889499187,0.175378799438,-0.336945354939,-0.127043738961,0.46625316143,-0.156057551503
2017/07/09/09:32:46.180240,235084,1499563968,979393323,,0.850775757723,-0.0559934324312,0.15381749005,0.720235557768,0.684180710012,0.0426677485825,0.106475164268,0.00966629465628,-0.00233110615814,-0.00221030327978,0.0176455777967,-0.0310239813578,-0.0137121297821,1.68297708035,-0.359762787819,-0.136671364307,-0.0253739990294,0.590642333031,-0.129549726844
2017/07/09/09:32:46.190132,235085,1499563968,989385245,,0.850401636962,-0.0550553881252,0.153389713933,0.720048818102,0.684500784468,0.0423534476793,0.105804352848,0.0045072848509,0.0358687854071,0.000847130744522,0.0591729355981,-0.00484249739255,0.0104903935629,0.37409478426,-0.402167320251,-0.443225562572,0.0107769519091,0.123865514994,-0.0737544447184
2017/07/09/09:32:46.200212,235086,1499563968,999389460,,0.85027585572,-0.056060509191,0.15344941754,0.720297251671,0.684200524657,0.0420988091542,0.10615649562,0.00397955449537,0.00535965295755,0.00269223707112,0.0165318207293,-0.0125282587747,0.00503796384512,1.39951145649,-0.878577888012,-0.0746063366532,0.0205508396029,0.575726032257,-0.145289123058
2017/07/09/09:32:46.210242,235087,1499563969,9393943,,0.850322974966,-0.0552521159383,0.153006017823,0.719992786731,0.684586052381,0.0422707488808,0.105666966128,-0.0217434923763,-0.0187765866327,-0.0126761942097,-0.00189094249654,0.0427676331719,-0.0227596120914,1.39331507683,-0.558691859245,-0.445357173681,0.0139689072967,0.505661666393,-0.142738729715
2017/07/09/09:32:46.220070,235088,1499563969,19393179,,0.850173574035,-0.0550025541805,0.152630407552,0.720427109133,0.684185678357,0.042603168399,0.105165146319,-0.00610020584578,0.00228339562358,-0.0114421173037,-0.00253089678608,0.022886957594,0.0104753897921,1.7125698328,-0.230322182178,-0.408128291368,-0.0358234159648,0.609344124794,-0.152790084481
2017/07/09/09:32:46.230072,235089,1499563969,29385290,,0.85110581007,-0.055021078063,0.153895481728,0.720311433785,0.684089828872,0.0430436182804,0.10639450793,0.0109906109137,-0.00406404777335,0.000433353767926,-0.0208913480544,-0.0240694324794,0.00354339999641,1.82175028324,-0.737595379353,-0.0407731980085,0.146771550179,0.642497718334,-0.0917089432478
2017/07/09/09:32:46.240389,235090,1499563969,39393362,,0.851348306181,-0.0550701422489,0.154389717758,0.719868898277,0.684494753766,0.0433973997435,0.106641300894,0.00682991106095,0.0115230098882,0.00638332462395,-0.00689906085313,-0.00924514123623,0.0261237166409,2.2324154377,-0.209883794188,0.502560436726,0.103405915201,0.721020758152,-0.102588906884
2017/07/09/09:32:46.250202,235091,1499563969,49400962,,0.850464479732,-0.0551482737993,0.153197315084,0.720101348808,0.684433613253,0.0423678106108,0.105875611538,-0.00249009238287,0.0186972354013,0.00512331405643,0.0251115759019,0.00748939807976,0.00375423512627,0.660152256489,-0.306709200144,-0.183859318495,0.0702214315534,0.202255934477,-0.0527865551412
2017/07/09/09:32:46.260289,235092,1499563969,59395703,,0.850435431915,-0.0546519007171,0.153477718001,0.720291313295,0.684269595054,0.0428625655152,0.105443566675,-0.00604093966596,-0.000940763276657,-0.00483848964564,-0.0141528455134,0.0207003530274,0.0168635480265,1.62578904629,-0.700958848,-0.398166060448,0.145578488708,0.588552236557,-0.0902730450034
2017/07/09/09:32:46.269973,235093,1499563969,69398547,,0.85031442181,-0.0547473606957,0.153186890918,0.720147819992,0.68444802066,0.0426221476497,0.10536307183,0.010333333879,0.011483435304,0.003535763882,0.0124121993111,-0.0197998878514,0.000273314195272,1.22666609287,-0.732917904854,-0.320621848106,0.225950062275,0.410756647587,-0.0266656801105
2017/07/09/09:32:46.280174,235094,1499563969,79384227,,0.850682250627,-0.0537808537431,0.153103005298,0.719995381692,0.684608173811,0.0431377038857,0.105154349395,-0.00607193952569,-0.00475639294695,0.00231512784117,0.00342181871471,0.0101306644008,-0.0171716624946,1.18393647671,-0.181990236044,-0.340185582638,0.0318777710199,0.371962755919,-0.0865392312407
2017/07/09/09:32:46.289955,235095,1499563969,89389442,,0.850435909322,-0.05481337081,0.153631030214,0.720009148896,0.684538295462,0.0430132226283,0.105565194217,-0.0115242531085,-0.00541058964703,-0.0139729285445,-0.0051536563004,0.0325969895554,-0.00203865560714,2.07503247261,-0.216322094202,-0.37003788352,0.104013800621,0.669974386692,-0.0686895027757
2017/07/09/09:32:46.300214,235096,1499563969,99391236,,0.850326064632,-0.0553134283849,0.153455794424,0.720131543027,0.68440579174,0.0424526459233,0.105816094353,-0.000257237035221,-0.00394284167173,0.00902724977782,0.00203578710597,-0.00641531062803,0.00259691551168,1.14746379852,-1.13113892078,-0.539995729923,0.278124809265,0.374971300364,-0.00328428298235
2017/07/09/09:32:46.310033,235097,1499563969,109391700,,0.850833578537,-0.0544316463584,0.15354338283,0.719862087867,0.684658385027,0.0430324599768,0.105781272692,-0.00616346176937,-0.0188285800549,0.00692829653681,-0.00787415304478,-0.00456436755635,-0.0279289898865,1.88954555988,-0.31656062603,-0.256431758404,0.0679782181978,0.597967505455,-0.104344308376
2017/07/09/09:32:46.320336,235098,1499563969,119388809,,0.850903003674,-0.0543543469493,0.153774197724,0.720193664469,0.684304193757,0.0434750579549,0.105635104964,0.0066150273382,-0.00458550910658,0.00322972261425,-0.0124723005403,-0.0176081179908,-0.0125095733932,2.51677775383,-0.727613329887,-0.266187280416,0.191352814436,0.815106153488,-0.0813905075192
2017/07/09/09:32:46.330031,235099,1499563969,129387088,,0.850769456493,-0.0550944704703,0.153725425031,0.720079399895,0.684390479382,0.0427914394558,0.106133040506,0.0118125496591,0.00638074578553,0.0133286640674,0.00323583942751,-0.0270816485133,0.00476279349583,1.69843554497,-0.663133203983,-0.319775819778,0.192971110344,0.530717968941,-0.065561555326
2017/07/09/09:32:46.340233,235100,1499563969,139414402,,0.850634501749,-0.0549396930404,0.153679433038,0.720054775054,0.684460261329,0.0431243774308,0.105714519598,0.0117393084682,0.00517975828887,0.00980825323038,-0.00993829887603,-0.0227603314428,0.0247817009775,1.32608950138,-1.28191936016,-0.491988539696,0.303870856762,0.481388568878,-0.0267135202885
2017/07/09/09:32:46.350317,235101,1499563969,149389841,,0.850739565992,-0.0543482771511,0.153575577962,0.719962580381,0.68457615914,0.0430765840351,0.105611425027,-0.00374653950758,-0.00706381563811,-0.00112652126753,-0.00871916433035,0.00790408882562,0.00718722143313,1.77879691124,-0.626189947128,-0.703582465649,0.14772439003,0.577457904816,-0.0772467330098
2017/07/09/09:32:46.359969,235102,1499563969,159389739,,0.850453518214,-0.0548320146927,0.153358683939,0.719899506791,0.684678458471,0.042665947675,0.105544898202,-0.00588423407897,0.000719856183593,0.00324255283766,-0.00132694482093,0.0138237021052,0.0113579538384,1.82190752029,-1.02854120731,-0.638064086437,0.244062617421,0.590630948544,-0.0485816933215
2017/07/09/09:32:46.369974,235103,1499563969,169385086,,0.850453027445,-0.054797668472,0.153738640486,0.720116160352,0.684428321299,0.0428914595166,0.105597875472,0.00688779380302,0.0148160214095,0.00162558626179,0.0032319751138,-0.00797963348081,0.0200850549096,1.93671989441,-1.05777657032,-0.506528496742,0.250054895878,0.653437137604,-0.0582579374313
2017/07/09/09:32:46.380137,235104,1499563969,179398998,,0.850306601737,-0.0555616603044,0.153467187238,0.72035572206,0.684175397606,0.04261158073,0.105716187,-0.000554034473177,0.00402720386381,0.00117363632226,0.0232321164396,-0.00517214917866,-0.0215179526435,1.55291140079,-0.744825601578,-0.450079202652,0.146055772901,0.455418467522,-0.0886578336358
2017/07/09/09:32:46.390046,235105,1499563969,189387489,,0.850454090757,-0.0550376386369,0.153650551692,0.72030542528,0.684223843782,0.0429068070941,0.105625905048,-0.0125081884849,-0.0021827565671,-0.00754640479,0.0125501271166,0.0261504112988,-0.0227641459943,2.37969970703,-0.756436705589,-0.331159174442,0.203430384398,0.762672305107,-0.0741986185312
2017/07/09/09:32:46.400035,235106,1499563969,199385486,,0.8504160921,-0.0548560692026,0.153350695394,0.72035235442,0.684210143839,0.0430123670121,0.105351320981,-0.00534382801203,-0.00315154039401,0.000504284231905,0.00292992645385,0.00482889907993,-0.0116673803713,2.10378527641,-0.516642689705,-0.575028121471,0.148589581251,0.612420141697,-0.0910401791334
2017/07/09/09:32:46.410132,235107,1499563969,209385720,,0.849883743272,-0.0559774711896,0.153390084471,0.720909703843,0.68362333409,0.0423905419388,0.105600084971,0.00240016996906,0.0123017932544,0.00325794942027,0.0146257781246,-0.000785448829259,-0.00586365108382,1.5900990963,-1.60305702686,-0.855289936066,0.286398559809,0.527068257332,-0.0384858809412
2017/07/09/09:32:46.420231,235108,1499563969,219393722,,0.850498474461,-0.0547891580345,0.153424189662,0.720376009566,0.684169125578,0.0428660960412,0.105515450325,0.000664461604849,-0.00665356009943,0.00412798694649,-0.0122511375064,-0.00196245997231,-0.00400296835717,1.93921935558,-0.559384763241,-1.08571982384,0.0114472173154,0.580459833145,-0.131830394268
2017/07/09/09:32:46.430269,235109,1499563969,229386736,,0.851084225807,-0.0539599667304,0.154326315168,0.71968087477,0.684815721679,0.043616194875,0.105756765153,-0.00631555847236,-0.00511564397901,0.000999202197369,0.00896999415469,0.00607875825948,-0.0114984401721,2.51441264153,-0.6345962286,0.00959730893373,0.189248487353,0.754212319851,-0.085520029068
2017/07/09/09:32:46.440178,235110,1499563969,239391327,,0.850110540647,-0.0552910839702,0.15357685414,0.720305255385,0.684251661595,0.0424818495139,0.105618630603,0.0135471803361,0.00252464851013,0.0135327292694,-0.0164936871549,-0.0280400643341,0.00837509181421,1.63016617298,-0.886338174343,-0.820520460606,0.217999070883,0.494146883488,-0.0494942702353
2017/07/09/09:32:46.449997,235111,1499563969,249386970,,0.850717139377,-0.0539110884221,0.15347129172,0.719927211176,0.684656949228,0.0430447584168,0.105341450795,-0.00344829137314,-0.00225281835159,0.00193656726159,-0.0256858381437,0.0110360801669,0.0191137531826,2.01660513878,-0.771635055542,-0.859787762165,0.114445701241,0.658641397953,-0.116202287376
2017/07/09/09:32:46.461641,235112,1499563969,259385800,,0.851173916344,-0.0547037421981,0.154213971923,0.720060204505,0.684354357521,0.0434097087208,0.10624505833,-0.00310580703076,0.0104301100953,-0.00568264734831,0.00148038562283,0.0167806953819,0.010688518118,2.31841206551,-0.556038498878,-0.157084912062,0.120411410928,0.68544626236,-0.102332673967
2017/07/09/09:32:46.469964,235113,1499563969,269386983,,0.850559309231,-0.0544906423773,0.153685302626,0.719851469593,0.684720894196,0.0427871909867,0.105548164668,0.00884194208637,0.00662467359789,-0.00611631818318,0.0152969721824,-0.0161405783006,0.00485332191788,1.74237298965,-1.47580230236,-0.725196361542,0.3161021173,0.582884073257,-0.0439398474991
2017/07/09/09:32:46.480319,235114,1499563969,279390471,,0.850370083029,-0.0550746930782,0.153747735419,0.720319427577,0.684206037132,0.0426062308066,0.105767339492,0.00367210979144,-0.0107584886747,0.00467906777766,-0.0128917443418,-0.0119540358846,-0.00284810581233,1.57927048206,-1.35648751259,-1.04205191135,0.309494912624,0.527878165245,-0.0351069197059
2017/07/09/09:32:46.490338,235115,1499563969,289397044,,0.850792819374,-0.0548199872703,0.1539784095,0.720270246364,0.684197787976,0.04309956429,0.105955588284,-0.000234860562112,0.000793660082019,0.000126330566303,-0.00206002697645,-0.000520660601986,0.00151211550454,2.49285340309,-0.838816285133,-0.763111293316,0.187948927283,0.758923768997,-0.0975682735443
2017/07/09/09:32:46.500310,235116,1499563969,299394666,,0.850125882096,-0.0555713450867,0.153161350114,0.720280044743,0.684281033423,0.0423754709474,0.105643002157,0.0057246991613,-0.00474277652438,0.00863631387533,-0.00105813493395,-0.0229998631476,-0.0115750383202,1.70083284378,-1.31277263165,-0.949361741543,0.194627791643,0.565119683743,-0.0878222212195
2017/07/09/09:32:46.510015,235117,1499563969,309385172,,0.850371103893,-0.0553587905519,0.153798223323,0.72040945187,0.684106563176,0.0425903208117,0.105804047416,0.0101328243738,-0.00173054733167,0.0129265550092,-0.0119393922536,-0.0217440225195,0.0156642482128,1.24631917477,-1.38529777527,-0.443357646465,0.312487006187,0.411453008652,-0.00529843568802
2017/07/09/09:32:46.520211,235118,1499563969,319398976,,0.850290595729,-0.0550316777632,0.153452341418,0.720074309588,0.684495613965,0.0425083436289,0.105602006876,-0.00202981895892,-0.00142727404297,-0.000420641107562,-0.00559228317395,-0.0009225868678,0.00381645254221,1.86344182491,-1.080696702,-0.600726425648,0.235928416252,0.654042840004,-0.0963751301169
2017/07/09/09:32:46.530461,235119,1499563969,329387714,,0.850447879902,-0.0546722697941,0.153839477841,0.719969408726,0.684575475426,0.0424479248406,0.105823639235,0.00486472673831,0.0248832568693,-0.000902830891301,0.0138367189943,0.00235989828121,0.0135932930033,1.85035920143,-0.795365869999,-0.365739226341,0.162970378995,0.639725625515,-0.0837278291583
