time,.header.seq,.header.stamp.secs,.header.stamp.nsecs,.header.frame_id,.quat,.acc
2017/07/09/09:42:22.175541,5506,1499564542,175375938,0,"(-4307, -5158, 7600, 12865)","(-571, 1706, 709)"
2017/07/09/09:42:22.206195,5507,1499564542,205970048,0,"(-4275, -5206, 7567, 12876)","(-560, 1749, 722)"
2017/07/09/09:42:22.212804,5508,1499564542,212678909,0,"(-4242, -5246, 7532, 12891)","(-575, 1751, 766)"
2017/07/09/09:42:22.235776,5509,1499564542,235585927,0,"(-4211, -5281, 7498, 12907)","(-593, 1725, 763)"
2017/07/09/09:42:22.266361,5510,1499564542,266130924,0,"(-4184, -5311, 7457, 12927)","(-608, 1785, 718)"
2017/07/09/09:42:22.273002,5511,1499564542,272828102,0,"(-4161, -5334, 7410, 12952)","(-642, 1797, 720)"
2017/07/09/09:42:22.295578,5512,1499564542,295403957,0,"(-4137, -5347, 7350, 12989)","(-654, 1699, 771)"
2017/07/09/09:42:22.317902,5513,1499564542,317799091,0,"(-4101, -5362, 7301, 13021)","(-663, 1617, 769)"
2017/07/09/09:42:22.356863,5514,1499564542,356678009,0,"(-4064, -5379, 7274, 13041)","(-641, 1687, 789)"
2017/07/09/09:42:22.358126,5515,1499564542,358037948,0,"(-4021, -5392, 7243, 13066)","(-658, 1778, 768)"
2017/07/09/09:42:22.380444,5516,1499564542,380285978,0,"(-3991, -5393, 7195, 13101)","(-684, 1750, 781)"
2017/07/09/09:42:22.408712,5517,1499564542,408530950,0,"(-3969, -5385, 7140, 13141)","(-664, 1684, 824)"
2017/07/09/09:42:22.415526,5518,1499564542,415370941,0,"(-3936, -5380, 7091, 13180)","(-690, 1646, 852)"
2017/07/09/09:42:22.438086,5519,1499564542,437794923,0,"(-3893, -5379, 7057, 13212)","(-678, 1683, 827)"
2017/07/09/09:42:22.460651,5520,1499564542,460473060,0,"(-3850, -5379, 7029, 13239)","(-680, 1724, 844)"
2017/07/09/09:42:22.483848,5521,1499564542,483664035,0,"(-3809, -5377, 6996, 13269)","(-696, 1705, 849)"
2017/07/09/09:42:22.497893,5522,1499564542,497781038,0,"(-3754, -5374, 6968, 13300)","(-735, 1638, 851)"
2017/07/09/09:42:22.520663,5523,1499564542,520411014,0,"(-3691, -5373, 6945, 13330)","(-722, 1636, 872)"
2017/07/09/09:42:22.537435,5524,1499564542,537205934,0,"(-3634, -5367, 6924, 13359)","(-666, 1674, 888)"
2017/07/09/09:42:22.557995,5525,1499564542,557893037,0,"(-3593, -5360, 6895, 13388)","(-652, 1743, 857)"
2017/07/09/09:42:22.580348,5526,1499564542,580256938,0,"(-3557, -5342, 6841, 13433)","(-671, 1642, 871)"
2017/07/09/09:42:22.595461,5527,1499564542,595238924,0,"(-3510, -5332, 6789, 13476)","(-711, 1565, 866)"
2017/07/09/09:42:22.618470,5528,1499564542,618119001,0,"(-3454, -5317, 6747, 13517)","(-671, 1624, 893)"
2017/07/09/09:42:22.640457,5529,1499564542,640294075,0,"(-3410, -5298, 6704, 13557)","(-681, 1602, 941)"
2017/07/09/09:42:22.655687,5530,1499564542,655477046,0,"(-3373, -5277, 6657, 13597)","(-691, 1609, 959)"
2017/07/09/09:42:22.677773,5531,1499564542,677642107,0,"(-3333, -5257, 6612, 13637)","(-711, 1538, 925)"
2017/07/09/09:42:22.708605,5532,1499564542,708420991,0,"(-3293, -5231, 6570, 13677)","(-631, 1520, 967)"
2017/07/09/09:42:22.715395,5533,1499564542,715296030,0,"(-3254, -5210, 6531, 13712)","(-655, 1568, 932)"
2017/07/09/09:42:22.737840,5534,1499564542,737705945,0,"(-3214, -5194, 6486, 13749)","(-708, 1531, 952)"
2017/07/09/09:42:22.760533,5535,1499564542,760330915,0,"(-3164, -5179, 6437, 13789)","(-747, 1483, 947)"
2017/07/09/09:42:22.776043,5536,1499564542,775737047,0,"(-3120, -5161, 6400, 13824)","(-690, 1494, 952)"
2017/07/09/09:42:22.798223,5537,1499564542,798079013,0,"(-3089, -5137, 6361, 13858)","(-681, 1523, 947)"
2017/07/09/09:42:22.820520,5538,1499564542,820379018,0,"(-3057, -5113, 6318, 13893)","(-723, 1483, 996)"
2017/07/09/09:42:22.835634,5539,1499564542,835378885,0,"(-3017, -5089, 6289, 13924)","(-755, 1459, 987)"
2017/07/09/09:42:22.858309,5540,1499564542,858115911,0,"(-2980, -5063, 6264, 13953)","(-750, 1478, 962)"
2017/07/09/09:42:22.880770,5541,1499564542,880567073,0,"(-2951, -5025, 6224, 13990)","(-747, 1487, 1041)"
2017/07/09/09:42:22.895302,5542,1499564542,895180940,0,"(-2925, -4987, 6188, 14025)","(-764, 1429, 1075)"
2017/07/09/09:42:22.918077,5543,1499564542,917897939,0,"(-2903, -4949, 6171, 14051)","(-785, 1392, 1004)"
2017/07/09/09:42:22.940803,5544,1499564542,940623044,0,"(-2879, -4907, 6166, 14072)","(-780, 1426, 1019)"
2017/07/09/09:42:22.955790,5545,1499564542,955612897,0,"(-2856, -4857, 6161, 14097)","(-775, 1443, 1084)"
2017/07/09/09:42:22.977861,5546,1499564542,977715969,0,"(-2838, -4808, 6162, 14117)","(-788, 1431, 1065)"
2017/07/09/09:42:23.000977,5547,1499564543,756978,0,"(-2826, -4754, 6156, 14140)","(-752, 1409, 1113)"
2017/07/09/09:42:23.023113,5548,1499564543,22943973,0,"(-2820, -4703, 6152, 14160)","(-774, 1406, 1078)"
2017/07/09/09:42:23.037901,5549,1499564543,37798881,0,"(-2804, -4648, 6160, 14178)","(-791, 1355, 1032)"
2017/07/09/09:42:23.060631,5550,1499564543,60285091,0,"(-2795, -4586, 6175, 14194)","(-707, 1446, 1091)"
2017/07/09/09:42:23.078376,5551,1499564543,75607061,0,"(-2800, -4530, 6178, 14209)","(-656, 1447, 1097)"
2017/07/09/09:42:23.098292,5552,1499564543,97973108,0,"(-2800, -4480, 6172, 14227)","(-745, 1427, 1047)"
2017/07/09/09:42:23.120543,5553,1499564543,120439052,0,"(-2796, -4422, 6169, 14247)","(-715, 1429, 1118)"
2017/07/09/09:42:23.135453,5554,1499564543,135284900,0,"(-2801, -4358, 6167, 14267)","(-636, 1457, 1119)"
2017/07/09/09:42:23.158383,5555,1499564543,158128023,0,"(-2806, -4296, 6167, 14285)","(-656, 1390, 1117)"
2017/07/09/09:42:23.180698,5556,1499564543,180480957,0,"(-2806, -4239, 6172, 14300)","(-611, 1440, 1151)"
2017/07/09/09:42:23.195612,5557,1499564543,195409059,0,"(-2804, -4179, 6180, 14315)","(-645, 1495, 1107)"
2017/07/09/09:42:23.217960,5558,1499564543,217844963,0,"(-2810, -4102, 6181, 14335)","(-522, 1480, 1119)"
2017/07/09/09:42:23.241007,5559,1499564543,240674972,0,"(-2823, -4033, 6178, 14353)","(-589, 1415, 1159)"
2017/07/09/09:42:23.263082,5560,1499564543,262989044,0,"(-2830, -3972, 6185, 14366)","(-626, 1393, 1168)"
2017/07/09/09:42:23.277964,5561,1499564543,277803897,0,"(-2835, -3905, 6201, 14376)","(-554, 1431, 1172)"
2017/07/09/09:42:23.300390,5562,1499564543,300225019,0,"(-2846, -3835, 6201, 14393)","(-498, 1481, 1207)"
2017/07/09/09:42:23.323473,5563,1499564543,323272943,0,"(-2856, -3770, 6198, 14410)","(-548, 1423, 1205)"
2017/07/09/09:42:23.337995,5564,1499564543,337872982,0,"(-2865, -3712, 6209, 14418)","(-569, 1450, 1197)"
2017/07/09/09:42:23.360766,5565,1499564543,360546112,0,"(-2885, -3643, 6223, 14426)","(-404, 1490, 1172)"
2017/07/09/09:42:23.382867,5566,1499564543,382780075,0,"(-2906, -3574, 6224, 14438)","(-443, 1380, 1235)"
2017/07/09/09:42:23.398373,5567,1499564543,398179054,0,"(-2924, -3520, 6241, 14441)","(-474, 1432, 1228)"
2017/07/09/09:42:23.420914,5568,1499564543,420608997,0,"(-2949, -3459, 6255, 14444)","(-440, 1472, 1199)"
2017/07/09/09:42:23.442997,5569,1499564543,442799091,0,"(-2971, -3398, 6261, 14452)","(-435, 1451, 1225)"
2017/07/09/09:42:23.457733,5570,1499564543,457587957,0,"(-2993, -3339, 6271, 14457)","(-420, 1461, 1235)"
2017/07/09/09:42:23.480468,5571,1499564543,480314970,0,"(-3011, -3279, 6287, 14460)","(-395, 1503, 1272)"
2017/07/09/09:42:23.503163,5572,1499564543,502994060,0,"(-3033, -3220, 6306, 14460)","(-369, 1465, 1240)"
2017/07/09/09:42:23.519193,5573,1499564543,519077062,0,"(-3059, -3159, 6325, 14460)","(-296, 1562, 1219)"
2017/07/09/09:42:23.542162,5574,1499564543,541953086,0,"(-3084, -3095, 6320, 14470)","(-316, 1560, 1253)"
2017/07/09/09:42:23.563255,5575,1499564543,562952995,0,"(-3107, -3039, 6310, 14482)","(-326, 1429, 1341)"
2017/07/09/09:42:23.578116,5576,1499564543,577856063,0,"(-3125, -3003, 6324, 14479)","(-383, 1527, 1280)"
2017/07/09/09:42:23.600400,5577,1499564543,600267887,0,"(-3145, -2963, 6338, 14477)","(-296, 1572, 1225)"
2017/07/09/09:42:23.623113,5578,1499564543,622791051,0,"(-3156, -2931, 6334, 14483)","(-367, 1533, 1271)"
2017/07/09/09:42:23.638689,5579,1499564543,638485908,0,"(-3164, -2895, 6339, 14486)","(-280, 1499, 1282)"
2017/07/09/09:42:23.660660,5580,1499564543,660545110,0,"(-3172, -2862, 6345, 14488)","(-251, 1546, 1281)"
2017/07/09/09:42:23.675257,5581,1499564543,675167083,0,"(-3179, -2836, 6341, 14493)","(-237, 1555, 1277)"
2017/07/09/09:42:23.698190,5582,1499564543,698003053,0,"(-3188, -2808, 6317, 14508)","(-255, 1493, 1301)"
2017/07/09/09:42:23.720529,5583,1499564543,720271110,0,"(-3193, -2773, 6307, 14517)","(-217, 1428, 1229)"
2017/07/09/09:42:23.745097,5584,1499564543,744995117,0,"(-3206, -2747, 6313, 14517)","(-181, 1488, 1246)"
2017/07/09/09:42:23.758061,5585,1499564543,757719039,0,"(-3223, -2722, 6314, 14518)","(-157, 1455, 1285)"
2017/07/09/09:42:23.780781,5586,1499564543,780603885,0,"(-3235, -2711, 6318, 14515)","(-244, 1454, 1326)"
2017/07/09/09:42:23.803057,5587,1499564543,802895069,0,"(-3247, -2715, 6318, 14512)","(-295, 1519, 1355)"
2017/07/09/09:42:23.818077,5588,1499564543,817877054,0,"(-3270, -2698, 6310, 14513)","(-196, 1422, 1241)"
2017/07/09/09:42:23.840338,5589,1499564543,840233087,0,"(-3291, -2690, 6301, 14514)","(-144, 1449, 1362)"
2017/07/09/09:42:23.863336,5590,1499564543,863090991,0,"(-3308, -2703, 6302, 14507)","(-237, 1479, 1288)"
2017/07/09/09:42:23.878218,5591,1499564543,877943038,0,"(-3318, -2725, 6312, 14496)","(-308, 1621, 1302)"
2017/07/09/09:42:23.900971,5592,1499564543,900693893,0,"(-3329, -2744, 6300, 14495)","(-254, 1548, 1395)"
2017/07/09/09:42:23.931207,5593,1499564543,931019067,0,"(-3348, -2774, 6273, 14497)","(-280, 1504, 1356)"
2017/07/09/09:42:23.938528,5594,1499564543,938036918,0,"(-3365, -2804, 6245, 14499)","(-262, 1444, 1291)"
2017/07/09/09:42:23.960675,5595,1499564543,960371017,0,"(-3379, -2831, 6225, 14500)","(-258, 1402, 1306)"
2017/07/09/09:42:23.984092,5596,1499564543,983815908,0,"(-3383, -2861, 6231, 14490)","(-252, 1381, 1308)"
2017/07/09/09:42:23.997926,5597,1499564543,997740983,0,"(-3387, -2895, 6253, 14473)","(-222, 1442, 1267)"
2017/07/09/09:42:24.020793,5598,1499564544,20488977,0,"(-3401, -2934, 6266, 14457)","(-222, 1497, 1291)"
2017/07/09/09:42:24.042957,5599,1499564544,42849063,0,"(-3416, -2977, 6263, 14445)","(-320, 1408, 1242)"
2017/07/09/09:42:24.058321,5600,1499564544,58058977,0,"(-3424, -3019, 6269, 14432)","(-328, 1357, 1235)"
2017/07/09/09:42:24.080374,5601,1499564544,80229043,0,"(-3434, -3044, 6284, 14418)","(-372, 1356, 1197)"
2017/07/09/09:42:24.103222,5602,1499564544,102901935,0,"(-3449, -3061, 6308, 14400)","(-355, 1426, 1245)"
2017/07/09/09:42:24.118251,5603,1499564544,117913007,0,"(-3454, -3083, 6346, 14378)","(-288, 1501, 1217)"
2017/07/09/09:42:24.140507,5604,1499564544,140280961,0,"(-3449, -3122, 6371, 14359)","(-384, 1614, 1180)"
2017/07/09/09:42:24.163073,5605,1499564544,162796974,0,"(-3448, -3134, 6387, 14349)","(-410, 1608, 1085)"
2017/07/09/09:42:24.179661,5606,1499564544,179498910,0,"(-3449, -3133, 6388, 14349)","(-261, 1467, 1190)"
2017/07/09/09:42:24.209587,5607,1499564544,209009885,0,"(-3453, -3138, 6395, 14344)","(-331, 1457, 1210)"
2017/07/09/09:42:24.223319,5608,1499564544,223057985,0,"(-3445, -3149, 6414, 14335)","(-379, 1555, 1234)"
2017/07/09/09:42:24.246814,5609,1499564544,246690034,0,"(-3429, -3155, 6431, 14330)","(-376, 1562, 1202)"
2017/07/09/09:42:24.260639,5610,1499564544,260391950,0,"(-3426, -3151, 6450, 14323)","(-312, 1491, 1251)"
2017/07/09/09:42:24.283119,5611,1499564544,282967090,0,"(-3406, -3164, 6477, 14313)","(-413, 1463, 1165)"
2017/07/09/09:42:24.298179,5612,1499564544,298080921,0,"(-3395, -3164, 6504, 14303)","(-311, 1563, 1211)"
2017/07/09/09:42:24.321654,5613,1499564544,321412086,0,"(-3393, -3164, 6511, 14301)","(-351, 1524, 1248)"
2017/07/09/09:42:24.343192,5614,1499564544,342809915,0,"(-3373, -3169, 6519, 14301)","(-450, 1474, 1195)"
2017/07/09/09:42:24.358381,5615,1499564544,357971906,0,"(-3339, -3172, 6560, 14289)","(-422, 1486, 1142)"
2017/07/09/09:42:24.380662,5616,1499564544,380418062,0,"(-3313, -3172, 6619, 14268)","(-334, 1660, 1120)"
2017/07/09/09:42:24.402850,5617,1499564544,402721881,0,"(-3309, -3153, 6640, 14263)","(-278, 1588, 1170)"
2017/07/09/09:42:24.417952,5618,1499564544,417840957,0,"(-3303, -3142, 6647, 14264)","(-415, 1454, 1181)"
2017/07/09/09:42:24.440657,5619,1499564544,440434932,0,"(-3291, -3132, 6680, 14254)","(-344, 1521, 1062)"
2017/07/09/09:42:24.463402,5620,1499564544,463134050,0,"(-3293, -3122, 6683, 14254)","(-267, 1667, 1164)"
2017/07/09/09:42:24.477717,5621,1499564544,477652072,0,"(-3300, -3117, 6651, 14268)","(-361, 1571, 1183)"
2017/07/09/09:42:24.500776,5622,1499564544,500495910,0,"(-3304, -3107, 6624, 14282)","(-351, 1507, 1223)"
2017/07/09/09:42:24.523685,5623,1499564544,523256063,0,"(-3299, -3100, 6617, 14288)","(-369, 1487, 1207)"
2017/07/09/09:42:24.538239,5624,1499564544,537998914,0,"(-3296, -3092, 6619, 14289)","(-320, 1555, 1224)"
2017/07/09/09:42:24.560488,5625,1499564544,560283899,0,"(-3294, -3092, 6627, 14286)","(-328, 1618, 1181)"
2017/07/09/09:42:24.583274,5626,1499564544,583064079,0,"(-3294, -3092, 6616, 14291)","(-329, 1580, 1227)"
2017/07/09/09:42:24.598254,5627,1499564544,598018884,0,"(-3286, -3099, 6608, 14295)","(-386, 1482, 1164)"
2017/07/09/09:42:24.623768,5628,1499564544,623668909,0,"(-3278, -3101, 6618, 14292)","(-386, 1497, 1138)"
2017/07/09/09:42:24.642809,5629,1499564544,642712116,0,"(-3276, -3093, 6628, 14290)","(-269, 1555, 1161)"
2017/07/09/09:42:24.666024,5630,1499564544,665766000,0,"(-3277, -3089, 6628, 14290)","(-318, 1502, 1163)"
2017/07/09/09:42:24.680933,5631,1499564544,680752038,0,"(-3275, -3087, 6626, 14292)","(-345, 1493, 1147)"
2017/07/09/09:42:24.702717,5632,1499564544,702645063,0,"(-3272, -3084, 6631, 14291)","(-350, 1464, 1162)"
2017/07/09/09:42:24.725676,5633,1499564544,725320100,0,"(-3271, -3080, 6642, 14287)","(-324, 1541, 1187)"
2017/07/09/09:42:24.741033,5634,1499564544,740780115,0,"(-3274, -3075, 6642, 14288)","(-328, 1521, 1207)"
2017/07/09/09:42:24.763030,5635,1499564544,762748956,0,"(-3274, -3075, 6642, 14288)","(-329, 1518, 1216)"
2017/07/09/09:42:24.793743,5636,1499564544,793646097,0,"(-3270, -3079, 6651, 14283)","(-366, 1574, 1191)"
2017/07/09/09:42:24.800211,5637,1499564544,800096988,0,"(-3271, -3077, 6652, 14283)","(-334, 1586, 1165)"
2017/07/09/09:42:24.823127,5638,1499564544,822968959,0,"(-3276, -3076, 6645, 14285)","(-327, 1527, 1188)"
2017/07/09/09:42:24.845622,5639,1499564544,845505952,0,"(-3279, -3077, 6638, 14288)","(-329, 1528, 1199)"
2017/07/09/09:42:24.867993,5640,1499564544,867743968,0,"(-3278, -3075, 6639, 14288)","(-341, 1508, 1197)"
2017/07/09/09:42:24.883481,5641,1499564544,883040904,0,"(-3275, -3074, 6653, 14282)","(-354, 1536, 1167)"
2017/07/09/09:42:24.913677,5642,1499564544,913501977,0,"(-3276, -3073, 6665, 14277)","(-304, 1590, 1153)"
2017/07/09/09:42:24.922095,5643,1499564544,921982049,0,"(-3280, -3074, 6663, 14276)","(-312, 1552, 1166)"
2017/07/09/09:42:24.942811,5644,1499564544,942724943,0,"(-3279, -3075, 6663, 14277)","(-357, 1500, 1183)"
2017/07/09/09:42:24.966155,5645,1499564544,965784072,0,"(-3276, -3073, 6668, 14275)","(-345, 1544, 1193)"
2017/07/09/09:42:24.980647,5646,1499564544,980443000,0,"(-3273, -3068, 6674, 14274)","(-320, 1539, 1166)"
2017/07/09/09:42:25.003427,5647,1499564545,3171920,0,"(-3271, -3064, 6680, 14273)","(-306, 1547, 1163)"
2017/07/09/09:42:25.025569,5648,1499564545,25263071,0,"(-3271, -3064, 6680, 14273)","(-317, 1542, 1168)"
2017/07/09/09:42:25.040822,5649,1499564545,40458917,0,"(-3271, -3065, 6680, 14273)","(-339, 1559, 1186)"
