time,.header.seq,.header.stamp.secs,.header.stamp.nsecs,.header.frame_id,.pose.position.x,.pose.position.y,.pose.position.z,.pose.orientation.x,.pose.orientation.y,.pose.orientation.z,.pose.orientation.w,.twist.linear.x,.twist.linear.y,.twist.linear.z,.twist.angular.x,.twist.angular.y,.twist.angular.z,.wrench.force.x,.wrench.force.y,.wrench.force.z,.wrench.torque.x,.wrench.torque.y,.wrench.torque.z
2017/07/09/09:34:50.119519,247478,1499564092,919031448,,0.773770548178,0.443593354471,0.260628573909,0.65433864679,0.752240711271,0.0114527652833,0.0764439781232,0.0533622375405,-0.458427571881,0.036565278205,-0.0279894554167,0.106738862334,-0.683295919038,2.17498087883,0.853382825851,0.334273278713,-0.0950281322002,0.707450628281,-0.186770319939
2017/07/09/09:34:50.129564,247479,1499564092,929022849,,0.774083699909,0.438959376304,0.260828766488,0.656664973127,0.750290911398,0.010533397432,0.0757872606737,0.0552720230221,-0.45413152089,0.0470176930753,-0.0223911409254,0.0948011484566,-0.64438442741,2.32804489136,0.975924730301,0.518782377243,-0.199712306261,0.7801181674,-0.218223422766
2017/07/09/09:34:50.139654,247480,1499564092,939034127,,0.774794281025,0.434734644982,0.261524101068,0.659183901949,0.748099181019,0.0104118684478,0.0756028555373,0.0480228638128,-0.466668726157,0.0389346654411,-0.0157014637863,0.116608323805,-0.645969404371,3.15070056915,1.54741954803,0.791188538074,-0.447568625212,1.14404404163,-0.326050907373
2017/07/09/09:34:50.149687,247481,1499564092,949021761,,0.774779180486,0.430387922041,0.261518885538,0.66147481262,0.746189306216,0.00943813876092,0.0745889609483,0.0523294116502,-0.482386751399,0.0403432794385,-0.00365146287832,0.107997562108,-0.697614874234,3.34569382668,1.45906734467,0.658370494843,-0.358431130648,1.22187018394,-0.308829665184
2017/07/09/09:34:50.159593,247482,1499564092,959034358,,0.775517311089,0.425613234398,0.261876476531,0.66395485849,0.743992902895,0.00876280604904,0.0745769371804,0.0470547099592,-0.469447664025,0.0416555074829,0.0061669172267,0.117329079159,-0.67738600728,3.00743341446,1.39692175388,0.36995729804,-0.300117701292,1.03398549557,-0.281460881233
2017/07/09/09:34:50.169690,247483,1499564092,969028785,,0.775796766897,0.420934191596,0.262321991699,0.666318841769,0.741909883506,0.00780214403488,0.0743508736249,0.0364740695612,-0.457733951674,0.0390194695382,0.00413025665619,0.127397066648,-0.646099080946,3.06444168091,1.39833045006,0.307182610035,-0.332091838121,1.04929745197,-0.314177811146
2017/07/09/09:34:50.179721,247484,1499564092,979027410,,0.776345346735,0.416894919631,0.263554427404,0.669180610433,0.739395306848,0.00831256280012,0.073639609795,0.032357508593,-0.47144390831,0.0416422496929,0.0343744619124,0.13507044669,-0.711352092924,2.93620586395,1.23100852966,0.242107883096,-0.299469023943,0.9591755867,-0.286580502987
2017/07/09/09:34:50.189833,247485,1499564092,989021949,,0.776667642703,0.412322694983,0.263807331032,0.671416573904,0.737400427056,0.00743955143427,0.0733828831538,0.0241193948639,-0.450682068547,0.0436998780705,0.0519589304507,0.143518953289,-0.695259101149,1.99947071075,0.804391443729,0.0705445557833,-0.123556129634,0.612716138363,-0.242944404483
2017/07/09/09:34:50.199553,247486,1499564092,999028566,,0.777257810043,0.407421031521,0.264031157273,0.674077602583,0.735014050817,0.00708829857254,0.0729622287323,0.0435854066819,-0.466004292988,0.0622233325392,0.0344244267505,0.0728865661405,-0.702086235,1.73933231831,0.808263421059,0.346392214298,-0.129403218627,0.552714169025,-0.213610857725
2017/07/09/09:34:50.209429,247487,1499564093,9027714,,0.777413941618,0.402287448702,0.264249900961,0.676828800406,0.732570964556,0.00636135390138,0.0721255156469,0.0421531023619,-0.496284983396,0.0621072013026,0.066909449659,0.0842561521914,-0.734686738988,1.86254680157,0.738212227821,0.322913110256,-0.103992193937,0.593020677567,-0.22578009963
2017/07/09/09:34:50.219572,247488,1499564093,19028837,,0.778113149487,0.398035191618,0.265505006838,0.679092780142,0.730475765112,0.00659861508651,0.0720736486002,0.0385377302232,-0.482648820184,0.0469646872992,0.0394662156241,0.091654251495,-0.684337435751,2.21496200562,0.795715212822,0.400894790888,-0.122038774192,0.738892436028,-0.23763024807
2017/07/09/09:34:50.229639,247489,1499564093,29035019,,0.778020854474,0.394109232668,0.265814476754,0.681350030278,0.728455718788,0.0060720358355,0.0712568058867,0.0325685525475,-0.483187046152,0.0445604043758,0.0337945152272,0.0959746764698,-0.714810830017,2.99520158768,0.911128997803,0.528222024441,-0.254028588533,0.941303014755,-0.281132161617
2017/07/09/09:34:50.239738,247490,1499564093,39028023,,0.778325313257,0.388582363035,0.265992790267,0.684609184278,0.725438062243,0.00516767493555,0.0708743803262,0.0316875822275,-0.482308416867,0.0593420562516,0.0361418567877,0.0764410247019,-0.720731239949,2.94817328453,1.18224072456,0.340356260538,-0.381098330021,0.850625813007,-0.29300352931
2017/07/09/09:34:50.249802,247491,1499564093,49028963,,0.778772030832,0.383813587286,0.267162453724,0.687022934068,0.723148506762,0.00506419593879,0.0709230509226,0.0125189228409,-0.466068354216,0.0539134009505,0.00403353057598,0.102698058958,-0.660547042251,2.6558535099,1.04842233658,0.303620547056,-0.398951351643,0.666101455688,-0.3076595366
2017/07/09/09:34:50.259723,247492,1499564093,59055029,,0.779114964894,0.379754064067,0.26745589411,0.68847467197,0.72176401246,0.00443694148031,0.0709904917901,0.031399237101,-0.500705068627,0.0600505403831,-0.00348979469095,0.0679880448792,-0.702452091237,2.25121593475,0.774873733521,0.228579431772,-0.332886219025,0.462929904461,-0.272689700127
2017/07/09/09:34:50.269720,247493,1499564093,69021794,,0.779043714496,0.37549258144,0.267878611116,0.690623343095,0.719756008652,0.00388342610118,0.0705379683879,0.0271990342195,-0.483751586097,0.0609941884935,-0.0251230703391,0.0553448391633,-0.657769227228,2.52891921997,0.748461604118,0.453011155128,-0.287914991379,0.579186439514,-0.239690512419
2017/07/09/09:34:50.279580,247494,1499564093,79025909,,0.77915289791,0.371084415677,0.268883888962,0.692993477999,0.717489020137,0.00333823994244,0.070415918575,0.0226922113201,-0.507620490745,0.0573153331313,-0.0282282362674,0.0675966657133,-0.712052559957,3.26626944542,0.828613042831,0.55996209383,-0.338182896376,0.817675054073,-0.278347551823
2017/07/09/09:34:50.289721,247495,1499564093,89025631,,0.779229963613,0.364982975021,0.268618436265,0.696175381822,0.71442463604,0.00202376207748,0.0702366111844,0.0090062446957,-0.515554007354,0.0546429627964,-0.0489869616832,0.0992273767744,-0.724902409397,3.68891906738,1.07057332993,0.585389196873,-0.455888003111,0.94901317358,-0.349076271057
2017/07/09/09:34:50.299688,247496,1499564093,99028548,,0.778927765609,0.359800988806,0.26899885653,0.698231557977,0.712443137131,0.000769208709476,0.0699776829907,-0.00915764263215,-0.520326351656,0.0450678601196,-0.0698634314107,0.137296744883,-0.726854623037,4.30904817581,1.15510249138,0.549755930901,-0.472105413675,1.11603438854,-0.36873832345
2017/07/09/09:34:50.309906,247497,1499564093,109048233,,0.779264777145,0.355143431392,0.269700208361,0.700406301132,0.710294924432,0.000359362353312,0.0700856941119,-0.00251527591654,-0.538750294318,0.0548808427387,-0.0813518568206,0.108189705608,-0.728808687077,3.70962023735,1.02078330517,0.532477080822,-0.425452798605,0.838516831398,-0.407937824726
2017/07/09/09:34:50.319709,247498,1499564093,119027884,,0.77950178096,0.349072144908,0.27095895153,0.703416241949,0.707298605281,-0.000177721659525,0.070244159498,-0.00296116113611,-0.527267356005,0.0590149468759,-0.0600413657662,0.0914487219395,-0.710507252866,3.92187190056,1.08602499962,0.817663669586,-0.347007185221,1.00428116322,-0.371209859848
2017/07/09/09:34:50.329777,247499,1499564093,129027915,,0.779564426812,0.343357882438,0.271000642428,0.706175675268,0.704538833969,-0.00113073529836,0.0702827754648,0.000243472491087,-0.533561728182,0.0691059799923,-0.0615858117659,0.0634580225681,-0.705016761373,3.95959568024,1.13447701931,1.12517154217,-0.457989871502,1.09042263031,-0.451837539673
2017/07/09/09:34:50.339583,247500,1499564093,139027519,,0.779624808022,0.339985876849,0.271748522222,0.708196486476,0.702533940552,-0.00104889911296,0.0700192739615,0.00529068614835,-0.509145521475,0.0573647598941,-0.0372549519894,0.048725245907,-0.675313538576,3.93089389801,0.992837071419,1.46284472942,-0.420257151127,1.24995839596,-0.424423843622
2017/07/09/09:34:50.349592,247501,1499564093,149022526,,0.7796186607,0.334291246525,0.272271529532,0.711008684342,0.699695767458,-0.00177355296016,0.0699238035404,0.00404717055485,-0.511834223997,0.0615648001654,-0.00876421227922,0.0386700536843,-0.733385891004,4.30992698669,1.05951666832,1.81825578213,-0.443839043379,1.5112490654,-0.415810525417
2017/07/09/09:34:50.359536,247502,1499564093,159021059,,0.779850333208,0.328956914738,0.272790290744,0.713030219655,0.697602403886,-0.00246379483427,0.0702333372851,-0.00557404597488,-0.519189480378,0.0592099567939,-0.0428402419274,0.0560541248565,-0.728450958117,4.26098489761,1.0702586174,1.64964127541,-0.491703242064,1.50573468208,-0.451727986336
2017/07/09/09:34:50.369518,247503,1499564093,169027734,,0.779319965838,0.324613764563,0.273440853994,0.715282799818,0.695350167339,-0.00322445103664,0.0696294763854,-0.0289289827903,-0.549083696491,0.0445420241224,-0.0679785300497,0.130719147304,-0.727924914676,4.08931827545,0.956885457039,1.45840132236,-0.39504429698,1.40329790115,-0.43391674757
2017/07/09/09:34:50.379406,247504,1499564093,179026132,,0.779278195328,0.319106627743,0.273556994801,0.717308538855,0.693272512521,-0.00407268562255,0.0694629160097,-0.0298729544014,-0.526221959488,0.0592182367525,-0.049940431947,0.111591058512,-0.713929378118,3.40103983879,1.01721560955,1.1683049202,-0.416396677494,1.07114493847,-0.469347804785
2017/07/09/09:34:50.389734,247505,1499564093,189024022,,0.778556888499,0.314395422526,0.274863023746,0.719846360391,0.690651528095,-0.00505874431909,0.0692538322247,-0.0378262551199,-0.523180413715,0.0684752327775,-0.0510185019282,0.120353900946,-0.697132821082,3.45089817047,1.07020556927,1.07308781147,-0.413421928883,1.01182699203,-0.450071662664
2017/07/09/09:34:50.399673,247506,1499564093,199021967,,0.778216601575,0.30901439537,0.275057636714,0.722866413368,0.687561248461,-0.00570848198957,0.068491541615,-0.0569880502106,-0.5582072881,0.0536790117895,-0.0968143347091,0.168731866271,-0.724719927062,4.48159313202,1.21305918694,1.30419397354,-0.481201648712,1.38370645046,-0.544745981693
2017/07/09/09:34:50.409852,247507,1499564093,209020969,,0.777627274858,0.304015730799,0.275379385915,0.7246179762,0.685730825767,-0.00694959921685,0.0682182250653,-0.0531841853406,-0.548148816609,0.0547505908566,-0.0490577086145,0.149735903626,-0.737428106039,4.31900167465,1.16796517372,1.2448489666,-0.466380774975,1.28351080418,-0.496177375317
2017/07/09/09:34:50.419699,247508,1499564093,219030307,,0.777273337526,0.299024348389,0.275896774734,0.72674516888,0.683506573429,-0.00750775043875,0.0678517300592,-0.046097245715,-0.518488828776,0.0525020449845,-0.0303927916332,0.132999928847,-0.690552124464,4.31574440002,1.11858928204,1.1928486824,-0.47801142931,1.28269076347,-0.481935590506
2017/07/09/09:34:50.429718,247509,1499564093,229024502,,0.776780922472,0.294098876998,0.276766649323,0.728997525373,0.681130565969,-0.00817838362501,0.06750462313,-0.0476363262565,-0.525594326883,0.0453719665407,-0.0248895708657,0.136248334255,-0.652578275581,4.52589321136,1.01966893673,1.17475152016,-0.47907653451,1.37755811214,-0.442297905684
2017/07/09/09:34:50.439677,247510,1499564093,239034537,,0.776822968099,0.287988577686,0.277214465115,0.731591246239,0.678337146857,-0.00860008126187,0.0675203837577,-0.0476180711115,-0.5370865739,0.0522540531761,-0.0113015329181,0.118473713322,-0.649717739128,4.537774086,0.901147127151,1.33658587933,-0.508054316044,1.4054312706,-0.457578718662
2017/07/09/09:34:50.449737,247511,1499564093,249023238,,0.776080308338,0.283181234106,0.27722796103,0.73294624176,0.676885989003,-0.00994700175266,0.067202840252,-0.0499667985773,-0.534369751454,0.0425371390988,-0.0301160577899,0.129507231372,-0.604632201734,2.91423678398,-3.17165017128,1.6090221405,0.336531937122,0.882222056389,-0.33528149128
2017/07/09/09:34:50.459726,247512,1499564093,259045325,,0.775762963244,0.277631641309,0.277747025797,0.734843114021,0.674815190392,-0.0106381604885,0.06720778328,-0.04325852065,-0.542502812949,0.0578571992907,-0.0413178574201,0.092765176905,-0.59213136539,2.74660301208,-3.17597079277,1.65225172043,0.430074691772,0.883906424046,-0.293810099363
2017/07/09/09:34:50.469608,247513,1499564093,269026608,,0.775019269532,0.272408478152,0.277605810213,0.736314903551,0.67324361377,-0.0119489456572,0.0666379923416,-0.0582114007647,-0.520061688891,0.0393006407808,-0.0325428397271,0.140525728135,-0.52870659241,2.80427861214,-2.5737888813,1.09702217579,0.427988827229,0.997055828571,-0.246256649494
2017/07/09/09:34:50.479422,247514,1499564093,279026538,,0.774388311277,0.268361826914,0.277943623786,0.737364976227,0.672173197942,-0.012286490081,0.0657656898636,-0.055468125671,-0.524492821982,0.0335506248169,-0.0213544934335,0.136793973349,-0.475461796421,2.02818965912,-2.19953680038,0.690038323402,0.635363519192,0.71152317524,-0.097133025527
2017/07/09/09:34:50.492821,247515,1499564093,289020591,,0.773623801933,0.262855903027,0.278208304333,0.738635574647,0.670820749046,-0.0133946984065,0.0650967938527,-0.053571470785,-0.539020431354,0.0468826824499,-0.0120186996135,0.120523841694,-0.461253758459,1.37403714657,-2.86183667183,0.789891719818,0.844117999077,0.437515616417,-0.0497518330812
2017/07/09/09:34:50.499500,247516,1499564093,299028069,,0.773275615194,0.258651000197,0.278572695081,0.739842987227,0.669502611421,-0.0137274328122,0.0648857853506,-0.0716674756288,-0.49093728777,0.0292003509671,0.0185253951076,0.165368098192,-0.365458503502,2.81092810631,-0.0888673961163,1.20228302479,-0.483510702848,0.925853252411,-0.334708243608
2017/07/09/09:34:50.509489,247517,1499564093,309024153,,0.772795964463,0.254391615698,0.278546436408,0.740786024497,0.668496817499,-0.0144014146202,0.0643480392817,-0.0749372866137,-0.450704015988,0.0142533650435,0.00583615314243,0.190386599314,-0.323062563884,3.86564707756,3.06126952171,1.35301148891,-2.02766776085,1.26914155483,-0.641409993172
2017/07/09/09:34:50.519580,247518,1499564093,319021515,,0.772277234097,0.250987074189,0.278890800879,0.74186631424,0.667399931631,-0.0143628741854,0.0632883156657,-0.0619031627764,-0.442396189529,0.011633187885,0.0133020455191,0.168704680605,-0.315590499507,4.13341379166,4.37442588806,1.65135240555,-2.62346863747,1.31902396679,-0.698737084866
2017/07/09/09:34:50.529379,247519,1499564093,329020805,,0.771467491224,0.246171119294,0.278895290434,0.743116753334,0.666040772462,-0.0153521119788,0.062701618722,-0.0754597096153,-0.448947652191,0.00639667146502,0.0421955990109,0.18680341214,-0.35208526146,3.47684550285,2.6460351944,1.26635575294,-1.85231554508,1.0755674839,-0.49997395277
2017/07/09/09:34:50.539654,247520,1499564093,339030218,,0.770679533887,0.240172747155,0.279210941748,0.744774531416,0.66418916767,-0.016319097658,0.0624286309006,-0.0729139726472,-0.48569368693,0.013699319637,0.00208752030551,0.165327521721,-0.364251178351,2.26983237267,-0.112808912992,1.00555729866,-0.665110468864,0.667268276215,-0.248280465603
2017/07/09/09:34:50.549590,247521,1499564093,349019968,,0.770278338978,0.235827828532,0.279050521732,0.745193400879,0.66370492084,-0.0172363545548,0.0623336299259,-0.0674216832707,-0.516266665913,0.0190860185466,-0.0659614316713,0.151725965528,-0.301286239434,1.59500741959,-1.26104974747,0.700452506542,0.0339986085892,0.361633807421,-0.134091347456
2017/07/09/09:34:50.559574,247522,1499564093,359026289,,0.76991251061,0.230914323893,0.279519789303,0.745775287983,0.663015478345,-0.0179433803417,0.0625118421691,-0.0564325977058,-0.504256220926,0.0311609005391,-0.0978990461111,0.112346855214,-0.232133753308,1.70825529099,-1.68224704266,1.16664147377,0.233193859458,0.439778149128,-0.167672008276
2017/07/09/09:34:50.569318,247523,1499564093,369019919,,0.768951322279,0.227145668483,0.279763860048,0.746275835296,0.662507030542,-0.0185311204544,0.0617528113536,-0.0498289434199,-0.480508858318,0.031329854112,-0.0806059490812,0.0902798930791,-0.210699224482,0.0954716354609,-1.97744643688,1.12765884399,0.164246499538,-0.129622474313,-0.112693540752
2017/07/09/09:34:50.579642,247524,1499564093,379032313,,0.768495704885,0.222508324405,0.279224129979,0.747184031022,0.661483249825,-0.0195695553294,0.0614244779385,-0.0661867239978,-0.458722793607,0.00244340535706,-0.0313634878161,0.150598530621,-0.247283641522,-0.222249373794,-1.48830270767,0.877702414989,-0.0122061595321,-0.26585534215,-0.0774006396532
2017/07/09/09:34:50.589604,247525,1499564093,389029777,,0.768474352499,0.218787956053,0.280166639359,0.74903465902,0.659413015739,-0.0188828564111,0.0613595305902,-0.0602329087985,-0.451797093454,0.0051604007566,0.00580136614529,0.113936369533,-0.355358734529,-0.62071198225,-0.804305076599,1.54642021656,-0.234077885747,-0.351198881865,-0.0878255218267
2017/07/09/09:34:50.599516,247526,1499564093,399028209,,0.76760640154,0.21450774945,0.279945796342,0.750604678322,0.657649029994,-0.0198664796746,0.0607922134402,-0.0661588011946,-0.415662797321,0.00183130498996,0.0480929327921,0.105534122476,-0.468113249384,-1.87631320953,-0.863811910152,1.09990179539,-0.192293986678,-0.871492445469,0.0672466680408
2017/07/09/09:34:50.609713,247527,1499564093,409022312,,0.766716359113,0.209095367143,0.279114182666,0.752592492646,0.655383915732,-0.021162570503,0.0602379334204,-0.0633139062516,-0.441122044847,-0.0140377591559,-0.00357547455942,0.106849056536,-0.578094843571,-3.16796040535,-1.27256286144,0.638417363167,-0.104328818619,-1.34223425388,0.113894797862
2017/07/09/09:34:50.619712,247528,1499564093,419040703,,0.766443518148,0.204782426305,0.279710869583,0.75383430729,0.653858864569,-0.0217532885819,0.0610673137768,-0.0738831170142,-0.479659537928,-0.0276327894759,-0.0997268401706,0.139460315841,-0.572552262824,-4.41053104401,-1.03544795513,0.985679030418,-0.054431322962,-1.85504198074,0.207997262478
2017/07/09/09:34:50.629551,247529,1499564093,429032262,,0.76595053938,0.201418419863,0.279757698269,0.753805194787,0.653855070886,-0.0226785411482,0.0611306662857,-0.0567646206365,-0.465494922749,0.00715872403939,-0.175622328777,0.0899153100902,-0.369331844473,-6.2184047699,-1.03815162182,0.843906402588,0.0053266659379,-2.67046999931,0.289653271437
2017/07/09/09:34:50.639716,247530,1499564093,439026799,,0.765148294924,0.19593746672,0.279669766678,0.754182486891,0.653317767621,-0.0243032055978,0.0615956587411,-0.0771021032422,-0.475241369425,-0.000952987494876,-0.205110716065,0.155877368358,-0.178075169682,-7.71892499924,-1.60717511177,0.855557739735,0.150260150433,-3.30066633224,0.353198498487
2017/07/09/09:34:50.649509,247531,1499564093,449040839,,0.76366347868,0.191286179705,0.278770506415,0.753820969996,0.653714854469,-0.026485076781,0.0609046381611,-0.0946278406708,-0.468251205086,-0.0108761903772,-0.208761155272,0.227285060687,0.0214701734288,-8.43974876404,-1.57167387009,0.180445566773,0.145704686642,-3.62715363503,0.426727861166
2017/07/09/09:34:50.659899,247532,1499564093,459030097,,0.763031552562,0.187422867777,0.278622110063,0.753821301681,0.653665732503,-0.02757391082,0.0609445216919,-0.0895041760514,-0.438702363657,-0.0102720824308,-0.197567730653,0.234672527602,0.107339266698,-8.25889205933,-1.73480796814,0.180018022656,0.188759386539,-3.62255859375,0.362228810787
2017/07/09/09:34:50.669479,247533,1499564093,469023035,,0.762201360764,0.183543036754,0.278627074415,0.754069091595,0.653365137333,-0.0285168050563,0.0606679012999,-0.0993550630887,-0.41075490919,-0.0228644145082,-0.142019785417,0.254933316573,0.0551755777259,-7.87774801254,-1.5372209549,0.231830149889,0.273797184229,-3.6106235981,0.40804079175
2017/07/09/09:34:50.679391,247534,1499564093,479036963,,0.76141805886,0.180810264579,0.278321570369,0.754734161802,0.65258892606,-0.0295868536233,0.0602383323605,-0.0871477111395,-0.414415412044,-0.0157998507342,-0.11700256075,0.188475781749,-0.176652283228,-7.31078052521,-0.342771470547,0.163512244821,0.0748037546873,-3.37915849686,0.343394458294
2017/07/09/09:34:50.689655,247535,1499564093,489037457,,0.76136457511,0.176489202489,0.278430127474,0.756622065191,0.650356529988,-0.0296639168114,0.0606587702388,-0.0624860976909,-0.398272924691,-0.0110087891287,-0.0740295341358,0.102306911401,-0.404318028203,-8.16723537445,-0.0684666782618,0.100085884333,0.0560085736215,-3.63950157166,0.398316979408
2017/07/09/09:34:50.699524,247536,1499564093,499025976,,0.760633573031,0.172071325464,0.278160235769,0.75842616012,0.648237323173,-0.0303706811187,0.0604628333705,-0.0721658872239,-0.404560456652,-0.0290300814874,-0.0565514379362,0.103153651747,-0.541400888323,-8.92994213104,-0.496029555798,0.277653872967,0.0908066481352,-3.83925867081,0.413904726505
2017/07/09/09:34:50.709605,247537,1499564093,509030143,,0.760182737555,0.170202607867,0.278224247289,0.759328893982,0.647239334005,-0.0303809346165,0.0598153332545,-0.0641354016423,-0.370869785833,-0.0140991641436,-0.032327644239,0.0762868435681,-0.511756680267,-10.3891305923,0.482531487942,0.136710315943,-0.116877630353,-4.37703990936,0.48965215683
2017/07/09/09:34:50.719544,247538,1499564093,519035060,,0.759219756933,0.166422930349,0.278179022878,0.76031456847,0.646094097244,-0.0311055342968,0.0593010979212,-0.0659619976722,-0.311278179003,-0.0212560934225,0.0132203003624,0.114636811816,-0.356816229007,-10.962061882,-0.634980797768,-0.295374125242,0.182552456856,-4.55236577988,0.581766724586
2017/07/09/09:34:50.729309,247539,1499564093,529023704,,0.758576355617,0.163872625925,0.277252831535,0.760697823835,0.645670060548,-0.0319186283273,0.0585678656783,-0.0922182845073,-0.339271251649,-0.0469603289297,0.0188555681574,0.192831811247,-0.311049431724,-11.6483278275,-0.104720383883,-1.21809840202,0.0779660120606,-4.85688638687,0.62420886755
2017/07/09/09:34:50.739660,247540,1499564093,539027857,,0.757523495875,0.160018255956,0.277136622868,0.76212901233,0.64401817509,-0.0325634758768,0.0577890885686,-0.0900971940311,-0.325717106955,-0.0573252991767,0.0340247614035,0.200895961233,-0.26437142261,-11.1582717896,-1.61863481998,-0.484914422035,0.48137229681,-4.58219051361,0.658009707928
2017/07/09/09:34:50.749391,247541,1499564093,549028125,,0.756656334028,0.156964351727,0.277013915547,0.763224498898,0.642709872815,-0.0332640907853,0.057496816714,-0.0893893761717,-0.336848169555,-0.0415081933803,0.0160413114353,0.174849804569,-0.321566043382,-11.5373477936,-0.759944796562,-0.445081710815,0.411958038807,-4.69480466843,0.722683846951
2017/07/09/09:34:50.759684,247542,1499564093,559035753,,0.755723323445,0.154706719038,0.276212467875,0.763879643849,0.641951955241,-0.0343983881693,0.056589113506,-0.0860253286385,-0.298152318707,-0.043824236064,-0.0128631661553,0.174582618816,-0.277661617426,-11.7645950317,-1.0384118557,-0.542165160179,0.531637310982,-4.77494812012,0.771602869034
2017/07/09/09:34:50.769598,247543,1499564093,569028025,,0.754720670325,0.151516097797,0.275444386975,0.765005569461,0.640594382063,-0.0354825268078,0.0560919482238,-0.105837986654,-0.29833101637,-0.058069879261,-0.0176956637082,0.229160976815,-0.316188581962,-11.447763443,-1.35898458958,-1.02674388885,0.601565599442,-4.68148183823,0.740463256836
2017/07/09/09:34:50.779529,247544,1499564093,579034447,,0.753889367387,0.149324727543,0.275158270842,0.765676719125,0.639783913101,-0.0364103689278,0.0555876907444,-0.0969139847551,-0.285657702237,-0.0575042876348,-0.0359679810824,0.214857887145,-0.332780175683,-12.2141590118,-0.887484788895,-0.795486688614,0.561859369278,-5.02110767365,0.774163007736
2017/07/09/09:34:50.789757,247545,1499564093,589026587,,0.752457742745,0.145753692287,0.273988766866,0.767224145383,0.6379154698,-0.0379845723277,0.0546638490789,-0.0959337666627,-0.303979054673,-0.0396404994882,-0.0614157765577,0.188203213443,-0.389543213566,-12.9927444458,-0.970255792141,-1.6619797945,0.516088604927,-5.40006303787,0.783646345139
2017/07/09/09:34:50.799457,247546,1499564093,599033726,,0.751998393181,0.144019026378,0.274256865163,0.768044777442,0.636948818144,-0.0380945501771,0.0543344104246,-0.105804671177,-0.297946620741,-0.0505856254967,-0.0749907110479,0.220775738876,-0.396956954607,-12.1435203552,-0.0594106465578,-1.11128294468,0.375247389078,-5.10976314545,0.730060279369
2017/07/09/09:34:50.809745,247547,1499564093,609034371,,0.750890345229,0.140246037534,0.273819415469,0.769692086532,0.634895405178,-0.0394024993544,0.0541235573308,-0.100579778871,-0.269726755463,-0.0528876057637,-0.0239628659578,0.203028089553,-0.389872639257,-11.8039312363,-0.99884390831,-1.43433070183,0.394375473261,-4.97118091583,0.691935956478
2017/07/09/09:34:50.819655,247548,1499564093,619034398,,0.749998970074,0.137891829787,0.272880344608,0.770810831389,0.633574219843,-0.0401462759449,0.0531285863966,-0.0905841040603,-0.279879512858,-0.0623180054128,-0.023905421209,0.184160633726,-0.406380730336,-10.9349508286,-0.550539016724,-0.919446408749,0.364733189344,-4.64355134964,0.673435151577
2017/07/09/09:34:50.829856,247549,1499564093,629025019,,0.749533726026,0.135656425691,0.272087735444,0.77170319637,0.632444587193,-0.0409041014767,0.0530553986348,-0.0835429673468,-0.275072709428,-0.0569984201952,-0.00674529534145,0.158767377494,-0.39391119724,-11.4189491272,-0.286822080612,-1.8647352457,0.229004308581,-4.7832865715,0.730221569538
2017/07/09/09:34:50.839545,247550,1499564093,639034805,,0.748617007112,0.133202950922,0.271861539604,0.772659382068,0.631254057098,-0.0417523107322,0.0526549071613,-0.0848032534363,-0.264620295011,-0.061652680833,-0.0444861634641,0.17506499849,-0.352092664073,-11.7469091415,0.0511670410633,-1.07212603092,0.166901096702,-4.83941745758,0.719047248363
2017/07/09/09:34:50.850154,247551,1499564093,649028822,,0.748067515481,0.13043059678,0.271331458648,0.773393446342,0.630264447755,-0.0429425450075,0.0527753813863,-0.0765205251983,-0.282497575823,-0.0715620960903,-0.0953917138068,0.166803632547,-0.357925716434,-12.2836360931,-0.101713560522,-1.01239264011,0.336918920279,-4.97755813599,0.757365047932
2017/07/09/09:34:50.859695,247552,1499564093,659024872,,0.746999705228,0.127111537524,0.270061957667,0.774588035443,0.628719641816,-0.0445429805649,0.0523537030694,-0.083021486674,-0.281997449348,-0.0717478097092,-0.143088524074,0.194927300435,-0.342972337756,-13.2689371109,-0.374047905207,-1.21110296249,0.438412308693,-5.31505823135,0.800923705101
2017/07/09/09:34:50.869587,247553,1499564093,669033568,,0.746606130629,0.125564032204,0.269761181236,0.774856479749,0.628315728104,-0.0453526744962,0.0525349076834,-0.0792005632658,-0.290790331717,-0.0556881445684,-0.190285594178,0.177775062509,-0.311246102556,-13.5074958801,0.28427746892,-1.44625329971,0.411603271961,-5.45154953003,0.823921263218
2017/07/09/09:34:50.879641,247554,1499564093,679034212,,0.745783243919,0.122612755108,0.269209431439,0.775585536138,0.627248762758,-0.0471178198039,0.0529714716525,-0.0787915639446,-0.286962691432,-0.0591234549703,-0.205128758024,0.192191540481,-0.287390070089,-13.9266033173,0.15410888195,-1.49920785427,0.463489681482,-5.63653802872,0.911252915859
2017/07/09/09:34:50.889574,247555,1499564093,689028141,,0.745182115984,0.118816187261,0.268850304524,0.77674422747,0.625647569186,-0.0485988796189,0.0535879945734,-0.0785671849474,-0.271268504316,-0.0648743682241,-0.21509404901,0.198790446584,-0.258667395349,-13.7355337143,-0.493165880442,-1.44849717617,0.409478545189,-5.58671379089,0.86463612318
2017/07/09/09:34:50.899642,247556,1499564093,699020367,,0.744548457489,0.117142025943,0.268281985616,0.777177636833,0.625000432102,-0.0499040640452,0.0536559882123,-0.0800994981151,-0.291011256636,-0.0535421665605,-0.238612126252,0.186580611293,-0.281454178642,-13.2881383896,0.301206886768,-1.95317876339,0.217286646366,-5.49554634094,0.927735447884
2017/07/09/09:34:50.909486,247557,1499564093,709026405,,0.74388953422,0.113755688265,0.267782308071,0.778087451946,0.623717999608,-0.0511425340492,0.0542237521816,-0.0775882702116,-0.298393193645,-0.0717689968268,-0.265620461988,0.18724769538,-0.283614376089,-12.3651943207,0.0668824836612,-1.45392286777,0.125174462795,-5.18896532059,0.855154514313
2017/07/09/09:34:50.919392,247558,1499564093,719031527,,0.743063881649,0.110623424438,0.266607230655,0.778998897476,0.622351590786,-0.0533476594461,0.054710532885,-0.0734713269757,-0.294859123946,-0.0756936666774,-0.274347929215,0.177032483134,-0.266745242264,-11.5989131927,0.344895303249,-1.49781239033,-0.0423904359341,-4.83114910126,0.797044456005
2017/07/09/09:34:50.929401,247559,1499564093,729023502,,0.742332746909,0.108031802903,0.266205308274,0.779330503413,0.621729247703,-0.0550412372004,0.0553820477038,-0.0708348599952,-0.316419650054,-0.0590116242283,-0.331691240073,0.169903766577,-0.257531266162,-11.350227356,0.60671210289,-1.60831749439,-0.092647023499,-4.72267961502,0.806052565575
2017/07/09/09:34:50.939601,247560,1499564093,739027551,,0.741582233741,0.104678290793,0.265030832465,0.779836614372,0.620840868957,-0.0572383912329,0.0559931860691,-0.0642972654431,-0.29929060496,-0.05885021011,-0.377196787634,0.1722609148,-0.189113507635,-11.5107479095,0.327912837267,-1.53418707848,0.000740125775337,-4.80568170547,0.814017772675
2017/07/09/09:34:50.949575,247561,1499564093,749028004,,0.740603300341,0.10139148708,0.264716931865,0.780364701605,0.619880110523,-0.0594560487765,0.0569610334519,-0.0616077543889,-0.306845379812,-0.0538187476864,-0.385329248323,0.168512568667,-0.203825192545,-12.3345308304,0.0671258792281,-1.53034162521,0.111633814871,-5.02903604507,0.867928683758
2017/07/09/09:34:50.959597,247562,1499564093,759028571,,0.739929464783,0.0986940649828,0.264063983847,0.780837940071,0.619043718234,-0.0612835851952,0.0576307942518,-0.0750601626338,-0.314002938022,-0.0567277765265,-0.391814645193,0.199232171146,-0.219398894378,-12.9606132507,0.180407643318,-1.62960505486,0.157550632954,-5.24384593964,0.927288711071
2017/07/09/09:34:50.969448,247563,1499564093,769018979,,0.740333697682,0.0957400682617,0.264025273139,0.781063622562,0.618422251709,-0.0626672322233,0.059718959356,-0.0730196854115,-0.328435413774,-0.0534719862088,-0.427100763317,0.185492549168,-0.2167466062,-11.9455633163,0.179963395,-1.28630650043,0.183333873749,-4.94348716736,0.930920779705
2017/07/09/09:34:50.979684,247564,1499564093,779029266,,0.738949952819,0.092701007854,0.262950958744,0.78151402626,0.617560766378,-0.0652562136839,0.0599679344752,-0.0551112459523,-0.327340847414,-0.0419092626288,-0.460353247843,0.140618022738,-0.192112939558,-12.158118248,0.212378501892,-1.70744812489,0.0816510617733,-4.92592811584,0.914410471916
2017/07/09/09:34:50.989766,247565,1499564093,789030178,,0.738784109624,0.0895146897973,0.262802335813,0.78194100242,0.616722358576,-0.0667084516534,0.0614148487306,-0.063873393541,-0.320528903917,-0.052457256083,-0.454652371045,0.167037604697,-0.182958787316,-11.7748889923,0.288218080997,-1.84852576256,-0.088758893311,-4.80441331863,0.899810135365
2017/07/09/09:34:50.999589,247566,1499564093,799025572,,0.738699764608,0.0871699423181,0.262562675184,0.782016244994,0.616321390323,-0.0682052292053,0.0628218362118,-0.054559696431,-0.313554922527,-0.0580920055574,-0.433231475974,0.153496296872,-0.186794633154,-11.6645097733,0.611185848713,-1.59323966503,-0.126087367535,-4.8229970932,0.958608031273
2017/07/09/09:34:51.009611,247567,1499564093,809027086,,0.737916739534,0.0839875683623,0.261845626854,0.782247381575,0.615681663499,-0.0704035889296,0.0637844645387,-0.0590074381055,-0.302204845908,-0.0663530007402,-0.434485437395,0.188145712813,-0.162498655622,-11.5450439453,0.659480631351,-1.89872550964,-0.143657013774,-4.73854875565,0.940309047699
2017/07/09/09:34:51.019909,247568,1499564093,819027858,,0.737271638474,0.0811944123614,0.26122941383,0.782732749247,0.614710903362,-0.0726364203985,0.0646830655969,-0.0568527174862,-0.313167828801,-0.0754058732669,-0.433182501017,0.184674387677,-0.17074115272,-11.2971019745,0.600738823414,-1.56923663616,-0.133981510997,-4.61377191544,0.938736021519
2017/07/09/09:34:51.029531,247569,1499564093,829032764,,0.736566812934,0.0779389965916,0.26048835683,0.783164099922,0.613813653234,-0.0746514073029,0.065680736018,-0.0675023397698,-0.2788992047,-0.0755852975754,-0.401294647486,0.214170210957,-0.164530906887,-10.57472229,0.156539931893,-1.46572029591,-0.0621748045087,-4.38569116592,0.882132053375
2017/07/09/09:34:51.039569,247570,1499564093,839021517,,0.736596073426,0.0763395532168,0.259510445874,0.783061161391,0.613738735125,-0.0757975119205,0.0662926822132,-0.0488026306094,-0.276543323527,-0.0553826926445,-0.387926804124,0.152803695244,-0.144707721763,-10.4924135208,1.25493097305,-1.5730574131,-0.273006051779,-4.3523273468,0.908370316029
2017/07/09/09:34:51.049554,247571,1499564093,849028380,,0.73573617056,0.0730425454326,0.259257032053,0.783633426758,0.612618315018,-0.0779980700236,0.0673331541294,-0.0364834531009,-0.281573916185,-0.0396965843858,-0.415832264027,0.110505714026,-0.153382911919,-11.6132602692,0.667895197868,-1.46594572067,-0.22641530633,-4.71605539322,0.990495383739
2017/07/09/09:34:51.059675,247572,1499564093,859028516,,0.735419291589,0.070607364783,0.258707386136,0.783617487108,0.612258389896,-0.07987085088,0.0685853124187,-0.0387282920328,-0.26407145035,-0.0481666232436,-0.397588777223,0.12788247585,-0.119680661422,-11.8912763596,0.653683483601,-1.35228872299,-0.170930892229,-4.82936096191,1.06055355072
2017/07/09/09:34:51.069698,247573,1499564093,869025519,,0.734988274535,0.0680092972173,0.258231653743,0.783734179351,0.611749953583,-0.0817029950688,0.0696229201158,-0.0360015760265,-0.284249260164,-0.0414529590577,-0.40541425187,0.112729923902,-0.161568400399,-11.1902637482,0.623027861118,-1.56109988689,-0.128286957741,-4.56337070465,1.02766346931
2017/07/09/09:34:51.079574,247574,1499564093,879032959,,0.734963669729,0.0659473348389,0.258055211037,0.783786091216,0.611478300706,-0.0825165548703,0.0704604084163,-0.0503057833103,-0.276492394799,-0.0641950698848,-0.374903377592,0.159452657432,-0.159212177758,-10.4341173172,0.859534740448,-1.63158607483,-0.255550295115,-4.24116706848,0.948648571968
2017/07/09/09:34:51.089543,247575,1499564093,889027860,,0.73444218596,0.0630741581264,0.25773164988,0.784289477807,0.610461477845,-0.0843430245213,0.0715056171456,-0.0503211277853,-0.244996899387,-0.0669928528305,-0.37445766979,0.182973761133,-0.0968939041406,-9.5115814209,0.594643354416,-0.993903040886,-0.111978583038,-3.91392683983,0.917948365211
2017/07/09/09:34:51.099699,247576,1499564093,899025287,,0.734088334024,0.0604947277707,0.256747466137,0.784546466822,0.609781876586,-0.0860204875291,0.0724802049502,-0.0453550787918,-0.258669043214,-0.0544513766454,-0.355491962762,0.139363152145,-0.152392304797,-9.47281074524,0.613585829735,-1.30754685402,-0.158408716321,-3.84767794609,0.887716948986
2017/07/09/09:34:51.109618,247577,1499564093,909032573,,0.7334248916,0.0583681354531,0.255539522067,0.784640103218,0.609318185685,-0.0881609716838,0.0727935442673,-0.0374122423295,-0.23999871454,-0.0655049723442,-0.356682365238,0.142363936916,-0.124688528543,-9.64511966705,0.638546764851,-1.57222235203,-0.132360816002,-3.88607215881,0.902278482914
2017/07/09/09:34:51.119589,247578,1499564093,919029297,,0.732915516535,0.0563616577686,0.255190338786,0.784794626544,0.608798407076,-0.0895646610832,0.0737567974776,-0.0488080207683,-0.25306513987,-0.0610495315263,-0.34551767237,0.149104402195,-0.145742631326,-10.4352397919,1.35774052143,-1.0838944912,-0.364564567804,-4.13478040695,0.959273397923
2017/07/09/09:34:51.129477,247579,1499564093,929021857,,0.732511427528,0.0530896915027,0.254987228659,0.785551941969,0.607468849385,-0.0910180016145,0.0748696659417,-0.0225993561734,-0.217195991172,-0.0495975532155,-0.318922790924,0.0964388251257,-0.0851470758417,-11.0849323273,0.491467177868,-1.08331203461,-0.186300173402,-4.29808139801,1.03593885899
2017/07/09/09:34:51.139737,247580,1499564093,939035721,,0.732181281596,0.0516122505768,0.254025053818,0.785572337238,0.607210330626,-0.0923207936181,0.0751570915702,-0.0345569878807,-0.225522455362,-0.0552468049908,-0.298728342923,0.113772234986,-0.121191005063,-10.1775064468,0.714256584644,-1.80079972744,-0.251660257578,-3.8978998661,0.933352708817
2017/07/09/09:34:51.149694,247581,1499564093,949033604,,0.732304015812,0.0499205816433,0.253866032442,0.785811898716,0.606718639765,-0.0929443040532,0.0758518842372,-0.0460759249186,-0.235011957089,-0.0662719043277,-0.277084640994,0.13507376912,-0.15592339959,-10.1398077011,1.63969647884,-1.73293912411,-0.459354162216,-3.95082616806,0.950665771961
2017/07/09/09:34:51.159507,247582,1499564093,959028256,,0.731145185148,0.0474114491477,0.252745351053,0.786386587024,0.605735492647,-0.0946942942372,0.0755886190831,-0.0533889337283,-0.196347394281,-0.0725916535913,-0.219229021176,0.160272844971,-0.139937496184,-9.96611976624,0.837313354015,-2.18414211273,-0.404018312693,-3.8399271965,0.913198411465
2017/07/09/09:34:51.169507,247583,1499564093,969031116,,0.730781221473,0.0468101530334,0.252179898703,0.786106146313,0.605995649333,-0.0955146075487,0.0753880591607,-0.0588679410994,-0.195707184785,-0.0562455404057,-0.199695328276,0.147813492354,-0.154972493527,-10.3048849106,1.53091454506,-2.06702184677,-0.470892727375,-4.0018196106,0.965474963188
2017/07/09/09:34:51.179681,247584,1499564093,979034339,,0.730159361411,0.0443982032873,0.251940955588,0.786920163299,0.604794568746,-0.0962569976574,0.0755961415133,-0.0581573830631,-0.171849636779,-0.0747059598316,-0.149170031539,0.164449353703,-0.132175334389,-9.50657463074,0.942664682865,-1.1762264967,-0.287442535162,-3.6608402729,0.880786597729
2017/07/09/09:34:51.189608,247585,1499564093,989027253,,0.730148862625,0.0440009966999,0.251004016061,0.786974847027,0.604733344362,-0.0964458675053,0.0752752748513,-0.0445630305339,-0.163450854582,-0.0711879706302,-0.10546077858,0.112747459264,-0.136567977813,-8.61019515991,1.83734941483,-0.632128715515,-0.318468093872,-3.38268947601,0.814062535763
2017/07/09/09:34:51.199573,247586,1499564093,999034723,,0.72930431075,0.0417761640302,0.250304864117,0.787364900366,0.603964509075,-0.097968052882,0.0754032231715,-0.0328171745736,-0.157502860927,-0.0700229627939,-0.0711205153668,0.0679338261841,-0.173150353923,-9.53720092773,1.34068489075,-0.738904416561,-0.253269404173,-3.67287254333,0.888511478901
2017/07/09/09:34:51.209489,247587,1499564094,9063175,,0.729328706623,0.0400348265321,0.249463517101,0.787854065608,0.60325975206,-0.098248895861,0.0755698174598,-0.0349023372984,-0.162177644417,-0.0604922399442,-0.0874657289006,0.0727180636603,-0.164906390938,-9.51097869873,1.06908535957,-0.980038523674,-0.529161393642,-3.6571867466,0.945157110691
2017/07/09/09:34:51.219573,247588,1499564094,19057118,,0.728771906559,0.0381465781975,0.249695616736,0.788311523549,0.602422797589,-0.0992006538497,0.076229555035,-0.0391629121426,-0.168173480321,-0.0635806194783,-0.0951308269144,0.0813031296161,-0.168617493709,-10.1532430649,1.45726561546,-1.21254265308,-0.81834346056,-3.84487438202,0.956483244896
2017/07/09/09:34:51.229708,247589,1499564094,29030702,,0.728430257872,0.0369852767093,0.248388050806,0.788180048374,0.602446260801,-0.100161032465,0.0761477627215,-0.0395767302937,-0.167581434232,-0.0542970676739,-0.136767476076,0.0941440034339,-0.131631539087,-9.20075893402,1.42729580402,-1.70427656174,-0.866136610508,-3.49121546745,0.885525822639
2017/07/09/09:34:51.239634,247590,1499564094,39053348,,0.72820585342,0.0348087736878,0.248604112214,0.788880242592,0.601374460608,-0.100657384378,0.0767125279638,-0.0511314398279,-0.170496459165,-0.0813238683293,-0.157739104085,0.150526133738,-0.119193972357,-8.51405715942,0.645322799683,-0.908137917519,-0.588426589966,-3.24084949493,0.795997977257
2017/07/09/09:34:51.249774,247591,1499564094,49020850,,0.727542330307,0.0338400118018,0.247760635434,0.789025624823,0.601021711434,-0.101762608314,0.0765234428578,-0.0367436537489,-0.195921661187,-0.0530103315472,-0.183089308044,0.0769952733624,-0.166737030187,-7.3431725502,1.29258048534,-1.42006897926,-0.546203553677,-2.76891207695,0.664603531361
2017/07/09/09:34:51.259572,247592,1499564094,59028658,,0.727650373943,0.031511681893,0.247202542423,0.789420344055,0.600258637048,-0.102514131627,0.0774334672986,-0.0316105845524,-0.182601025093,-0.0521842031597,-0.179864110573,0.0667899573266,-0.146869097211,-7.58570718765,1.29246044159,-0.979462683201,-0.411419868469,-2.97127008438,0.689614951611
2017/07/09/09:34:51.269361,247593,1499564094,69027416,,0.726918475632,0.0295657621462,0.246598522397,0.789804970908,0.599664527622,-0.103235515271,0.077155626029,-0.0263776694711,-0.193411842957,-0.0506917253063,-0.175440541409,0.0552036549657,-0.161697444402,-8.29340267181,0.422955662012,-1.11185646057,-0.298216849566,-3.10703849792,0.703992545605
2017/07/09/09:34:51.279508,247594,1499564094,79028165,,0.727180385881,0.0283797508881,0.24635909831,0.790021896258,0.599174272229,-0.103753183575,0.0780440377548,-0.0365816211427,-0.213114046448,-0.0550484295092,-0.182766224838,0.0698472166861,-0.18998081042,-8.04572296143,1.90155315399,-1.15828347206,-0.515905082226,-3.12547278404,0.761256456375
2017/07/09/09:34:51.289719,247595,1499564094,89027045,,0.726596484437,0.0258441612012,0.245592436354,0.790822724855,0.598046444982,-0.10424196484,0.0779325366153,-0.0167976842435,-0.182501419885,-0.0494193019851,-0.135669293008,0.0248287216093,-0.140134675154,-8.3234128952,1.69657349586,-1.27161467075,-0.596155405045,-3.20260000229,0.744514465332
2017/07/09/09:34:51.299618,247596,1499564094,99025871,,0.726876799772,0.0243034619421,0.244817498298,0.791011003184,0.597652682276,-0.104616617003,0.0785380650233,-0.00935313027582,-0.188013248083,-0.0443000916957,-0.13678631897,-0.0124062754233,-0.167275466219,-8.36055660248,1.5042757988,-1.814219594,-0.555338978767,-3.18549728394,0.751514554024
2017/07/09/09:34:51.309629,247597,1499564094,109063216,,0.726888196003,0.0230905530879,0.244738071207,0.791446351151,0.597060000136,-0.10449393596,0.0788228826904,-0.00862527732083,-0.182088988215,-0.0542976036613,-0.0781242992507,-0.0213497620791,-0.181438672458,-7.20451211929,1.55412459373,-1.11848306656,-0.532933413982,-2.7643237114,0.636246562004
2017/07/09/09:34:51.319623,247598,1499564094,119035424,,0.727005589543,0.021660501398,0.244522810922,0.79187168888,0.596459809387,-0.104569791723,0.0789941946986,0.000757706121874,-0.157963653641,-0.0367517179711,-0.0572985625995,-0.0393169609203,-0.179119563313,-7.51330900192,1.91699743271,-1.2077447176,-0.586097300053,-2.91306209564,0.704221725464
2017/07/09/09:34:51.329540,247599,1499564094,129026011,,0.727114819845,0.019605807593,0.244483942569,0.792303115202,0.595697780692,-0.104900433793,0.0799739126818,-0.00032312712967,-0.164210780618,-0.0428727671231,-0.0421408978879,-0.0378810289763,-0.170633130188,-6.87350893021,1.16170537472,-1.3750692606,-0.428072154522,-2.67211413383,0.663641989231
2017/07/09/09:34:51.339468,247600,1499564094,139028319,,0.727077663711,0.0186633133106,0.243323804794,0.792854721131,0.594994972654,-0.105020719941,0.0795802870037,0.0114220808608,-0.159319240424,-0.0427041108912,-0.0625571501345,-0.0576890742911,-0.173258521496,-6.92675685883,1.28495359421,-1.88988792896,-0.466371119022,-2.69603919983,0.653425455093
2017/07/09/09:34:51.349508,247601,1499564094,149021519,,0.727442784327,0.0169480316757,0.243196641685,0.793334755204,0.594329612794,-0.104726817349,0.0801534233172,0.00739036116052,-0.149213494419,-0.0460386217916,-0.0728579842442,-0.0367330310011,-0.139467488323,-7.3038611412,1.24709570408,-1.49862885475,-0.486766040325,-2.82594871521,0.70974701643
2017/07/09/09:34:51.359556,247602,1499564094,159029608,,0.727297574807,0.0145435770317,0.243185361726,0.794109960564,0.593225883525,-0.104739942258,0.0806347700741,0.0237240368929,-0.161303384879,-0.0335195858369,-0.0911736664429,-0.0774250325013,-0.144186159678,-7.38665676117,0.518705606461,-1.26889157295,-0.285558819771,-2.84583449364,0.687012195587
2017/07/09/09:34:51.369459,247603,1499564094,169020167,,0.728019079739,0.0138808976892,0.242714638981,0.794262355869,0.593031236205,-0.104295386586,0.0811402198111,0.0237909016426,-0.174547502508,-0.0410247944638,-0.0695656520277,-0.0984106840385,-0.173810156465,-6.82154607773,1.01013815403,-0.699822187424,-0.323015540838,-2.68147087097,0.651844024658
2017/07/09/09:34:51.379615,247604,1499564094,179022130,,0.727382247226,0.0119790616867,0.241865951046,0.794930232644,0.592091378324,-0.104837801662,0.0807636074382,0.0200326957491,-0.162215822432,-0.0233529850782,-0.0709108505394,-0.0979597827915,-0.165078525807,-7.0412530899,1.17556893826,-1.01384174824,-0.423147708178,-2.63009476662,0.586192309856
2017/07/09/09:34:51.389488,247605,1499564094,189032733,,0.727891325344,0.0108330752045,0.242029529819,0.795440136306,0.591350020664,-0.1045338577,0.0815647914723,0.00147266150951,-0.175868802347,-0.0291638076324,-0.0525812440188,-0.0647005205648,-0.228910837391,-6.94560146332,1.36995911598,-0.688853621483,-0.496279895306,-2.5717022419,0.614812076092
2017/07/09/09:34:51.399928,247606,1499564094,199020934,,0.726965689704,0.00868504135319,0.241456449479,0.795944164956,0.590535273274,-0.105570825243,0.0812143961949,0.00910116507612,-0.160821654721,-0.0165909868952,-0.0599389370928,-0.071104889589,-0.196014820326,-7.61598157883,1.31862163544,-0.97752648592,-0.577706933022,-2.79139280319,0.650147616863
2017/07/09/09:34:51.409221,247607,1499564094,209023364,,0.72782062042,0.00800541037045,0.24142642032,0.796095391912,0.590400905636,-0.104778893304,0.0817329867202,-0.0139076836675,-0.157697102044,-0.0197706487012,-0.0364592922633,-0.00497848765926,-0.169782363177,-6.50106811523,1.51982104778,-1.21565628052,-0.587670862675,-2.48959422112,0.556864738464
2017/07/09/09:34:51.419496,247608,1499564094,219030661,,0.727695622008,0.00607405884142,0.241376179048,0.796578193397,0.589790923777,-0.104593348681,0.0816705543402,-0.027248313722,-0.171814410684,-0.0329253378832,-0.0325900289971,0.0448028438905,-0.119740896865,-5.82335710526,1.62243139744,-1.17572045326,-0.568392395973,-2.26764464378,0.529040873051
2017/07/09/09:34:51.429743,247609,1499564094,229022726,,0.727264443007,0.00453264779636,0.241029524809,0.796691527519,0.589530521735,-0.10533075004,0.0814972822773,-0.0169382760597,-0.156500130182,-0.031800163517,-0.00911123013702,0.0294021135575,-0.0985420789655,-5.0866818428,1.28287601471,-0.804032087326,-0.514005899429,-2.00754642487,0.395092189312
2017/07/09/09:34:51.439462,247610,1499564094,239025969,,0.726789523379,0.0029897645574,0.240650533831,0.797305940969,0.588734404182,-0.105521565944,0.0809952896712,-0.0187363400342,-0.159932282143,-0.0265255396372,0.0189979353917,0.0161953079456,-0.130253344229,-5.91314649582,1.23113584518,-1.01898610592,-0.413661956787,-2.28854727745,0.534340262413
2017/07/09/09:34:51.449531,247611,1499564094,249020200,,0.726959047868,0.00185524970607,0.240594303613,0.797978782471,0.587838689962,-0.105305382082,0.0811561076857,-0.0181047477801,-0.134888023504,-0.0274253176243,0.0265784298092,0.0091347000013,-0.167273280295,-5.52641153336,1.28456068039,-0.897345781326,-0.40282741189,-2.17445731163,0.48403429985
2017/07/09/09:34:51.459390,247612,1499564094,259021119,,0.726502300283,-0.000732934708402,0.24083558381,0.799022727572,0.586407130721,-0.105273045534,0.0812831086219,-0.0105019895168,-0.152154472381,-0.0125683438672,0.00836276324739,-0.0437314269071,-0.235396235462,-6.26821899414,0.50061416626,-0.590284824371,-0.173616677523,-2.42617464066,0.563049852848
2017/07/09/09:34:51.469345,247613,1499564094,269021003,,0.726678947823,-0.00221712643379,0.240377221123,0.799794038909,0.585409174073,-0.104996979408,0.0812479449092,-0.0235305705385,-0.157918287592,-0.0252529409475,-0.00362302170289,0.000460054915924,-0.236842893905,-6.23806095123,0.834313690662,-0.657889962196,-0.254542917013,-2.46526932716,0.570883631706
2017/07/09/09:34:51.479603,247614,1499564094,279028165,,0.726371895677,-0.00330792128212,0.240526616374,0.799865009464,0.585213449215,-0.105535661597,0.0812613661213,-0.024952353513,-0.155290945151,-0.0170768833989,-0.00642866098812,0.00924457178279,-0.221863132894,-4.89670276642,0.990458667278,-0.575571656227,-0.282906740904,-1.93517756462,0.405977845192
2017/07/09/09:34:51.489409,247615,1499564094,289022521,,0.726263547079,-0.00397713282683,0.239931800875,0.799406313669,0.585965560511,-0.105567174976,0.0803086491546,-0.0324335099684,-0.149683955543,-0.0289441621422,0.0165971828497,0.0683806471067,-0.115628633283,-4.05467939377,1.156255126,-0.846316218376,-0.33550336957,-1.67990803719,0.344355046749
2017/07/09/09:34:51.499619,247616,1499564094,299024495,,0.725688395897,-0.00561943157057,0.239899496343,0.799194709459,0.586173496859,-0.106181306928,0.0800873149179,-0.0301834093667,-0.137883169943,-0.0212034080877,0.0361483507329,0.113061418939,0.0590535576493,-3.89460659027,1.10944020748,-0.773003995419,-0.310789018869,-1.56208562851,0.280756592751
2017/07/09/09:34:51.509433,247617,1499564094,309027183,,0.725106480014,-0.00736289190945,0.239655603569,0.799449382855,0.585809724229,-0.106636019568,0.0796015739929,-0.0407244050245,-0.153246386358,0.00358996691632,0.0263409899406,0.11361636508,0.0448742486673,-5.32323026657,0.777298092842,-1.06070578098,-0.409186244011,-2.02546215057,0.332033813
2017/07/09/09:34:51.519346,247618,1499564094,319028778,,0.724708966755,-0.00887677059315,0.239299562021,0.800288538525,0.584656160047,-0.106952750367,0.0792246098987,-0.0467628982561,-0.17831347759,-0.00698913210299,-0.00364879047161,0.080436954602,-0.152263013937,-4.38754367828,1.24572515488,-1.3503459692,-0.467868924141,-1.73816382885,0.255101561546
2017/07/09/09:34:51.530042,247619,1499564094,329019983,,0.724875125913,-0.0106354603328,0.239239710983,0.801116360556,0.583471425107,-0.106967570388,0.0795714258945,-0.0278741144041,-0.147522912168,-0.0309994118428,0.00658867222406,0.047529750385,-0.205953448249,-3.27138113976,0.354000985622,-0.862319111824,-0.173428103328,-1.36141204834,0.204035192728
2017/07/09/09:34:51.539483,247620,1499564094,339021888,,0.724231806646,-0.0125050890851,0.23953212669,0.801683368259,0.582591209522,-0.107542690682,0.0795350823541,-0.0185279716338,-0.156976506093,-0.0114127310226,-0.0271458911712,0.00116275143383,-0.228385673393,-3.67294001579,0.36003613472,-0.25902107358,-0.245825022459,-1.4291882515,0.171717375517
2017/07/09/09:34:51.549747,247621,1499564094,349025238,,0.724066855187,-0.0130366356756,0.239037913672,0.801883800594,0.582354271859,-0.107769792388,0.0789401307395,-0.0189865414302,-0.152365981826,-0.0067577291673,-0.0432636651435,0.0128951424104,-0.222205294619,-4.25140285492,0.64149916172,-0.643206954002,-0.278289020061,-1.68684601784,0.260851860046
2017/07/09/09:34:51.559481,247622,1499564094,359065778,,0.722972566165,-0.0151466593326,0.238851726626,0.802639120908,0.581132745069,-0.108912518428,0.0786971252656,-0.0376547762966,-0.166461163026,-0.0167886033333,-0.0260127648355,0.0510035804939,-0.244283268249,-3.65602040291,0.71086204052,-0.666759908199,-0.251058191061,-1.45815873146,0.165847375989
2017/07/09/09:34:51.569542,247623,1499564094,369038149,,0.723492980997,-0.0161350509515,0.238356372374,0.803001544481,0.580742193719,-0.108357634144,0.0786488850356,-0.0395095963506,-0.148872102181,-0.0170642360658,-0.0269076935806,0.0827301681164,-0.199487192515,-4.02039289474,1.00034427643,-0.671783149242,-0.289333879948,-1.66863000393,0.152811989188
2017/07/09/09:34:51.579947,247624,1499564094,379054590,,0.722887777465,-0.0182382985504,0.238641063447,0.803852801417,0.579441697296,-0.108877816969,0.0788264807052,-0.0318001723111,-0.16731760392,-0.0019507739197,-0.0274660674752,0.0289403501636,-0.233348711268,-2.88413858414,0.926853597164,-0.682903051376,-0.26618000865,-1.25416755676,0.0512983351946
2017/07/09/09:34:51.589422,247625,1499564094,389021341,,0.723009235716,-0.0195932009222,0.239227214652,0.804178268999,0.578969558112,-0.108818254532,0.0790578897391,-0.0171452059337,-0.166781311079,0.00506633161564,-0.0221518990967,-0.0202287014279,-0.216495595994,-2.8917798996,0.813487708569,-0.629197239876,-0.273768097162,-1.33589291573,0.0618691146374
2017/07/09/09:34:51.599733,247626,1499564094,399028781,,0.722854414012,-0.0214600229524,0.238805451761,0.805148674388,0.577623256852,-0.108817448937,0.0790300454298,0.0076391187637,-0.138528383369,-0.00966774925886,-0.00543602711149,-0.0450788273301,-0.171032757243,-2.0959842205,-0.0235007107258,-0.375874966383,-0.0719828829169,-0.970421552658,0.0213457047939
2017/07/09/09:34:51.609216,247627,1499564094,409025246,,0.723752639478,-0.0216447144067,0.238578011369,0.805278590485,0.577605587327,-0.107859655132,0.0791484174736,0.0126848308055,-0.146091093056,-0.0144403399039,0.00239837815385,-0.071265659212,-0.191134228311,-0.814999938011,0.545427322388,-0.276523709297,-0.228252306581,-0.560526013374,-0.0542159676552
2017/07/09/09:34:51.619394,247628,1499564094,419027617,,0.723547170304,-0.0241612949508,0.238232210061,0.805929056593,0.576674024671,-0.107878030445,0.0792953690704,-2.53295062958e-05,-0.158472148116,-0.0222899117544,0.014609344341,-0.0497342351539,-0.194675086145,-1.57272422314,-0.163857579231,-0.73712271452,-0.142054840922,-0.790623605251,0.0108553767204
2017/07/09/09:34:51.629765,247629,1499564094,429030656,,0.723495149687,-0.0250655085916,0.237649724849,0.806048381814,0.576467596251,-0.108293014129,0.0790173382184,0.00583406488205,-0.158872004699,-0.00297363947097,-0.0154219366587,-0.0568950626497,-0.134954831776,-1.76904082298,0.535761117935,-1.13804280758,-0.231124132872,-0.913741111755,0.0518406331539
2017/07/09/09:34:51.639444,247630,1499564094,439020926,,0.723447121162,-0.0268686310426,0.238228410783,0.806523712673,0.575862350852,-0.107811970221,0.0792378245833,0.00169508526322,-0.158902518647,-0.0143696928139,-0.00213462935508,-0.0332786933888,-0.1088821076,-2.74180698395,0.84067440033,-0.779326498508,-0.273860424757,-1.32410037518,0.115250736475
2017/07/09/09:34:51.649427,247631,1499564094,449028209,,0.723324696206,-0.0280343092259,0.238063589259,0.806605135051,0.57578760739,-0.107837701916,0.0789165212779,0.00259300006242,-0.139924188596,-0.0118232401424,0.0216223684676,-0.0318717855096,-0.0782365301992,-2.71083188057,0.783013701439,-0.81014251709,-0.345891237259,-1.379783988,0.10284332931
2017/07/09/09:34:51.659538,247632,1499564094,459028376,,0.723450678991,-0.0293997158263,0.23795668154,0.806908461861,0.575481104312,-0.107260122099,0.0788384358305,-0.00915595383121,-0.148500109363,-0.0136597776543,0.0393958455492,-0.0122453094234,-0.0840864011282,-2.21147990227,0.707841694355,-0.507944941521,-0.30816718936,-1.21170568466,0.0255367010832
2017/07/09/09:34:51.669536,247633,1499564094,469034682,,0.722912665025,-0.0315781903043,0.237688315639,0.807139234725,0.575072941146,-0.107781636485,0.0787431709211,-0.00848134456807,-0.146107243438,-0.0214597043874,0.0606860022045,-0.0151823397752,-0.0689541566581,-2.14260792732,0.00170809030533,-0.801590979099,-0.225694164634,-1.09765577316,-0.0219978988171
2017/07/09/09:34:51.679640,247634,1499564094,479026671,,0.723173647387,-0.0324825263323,0.237472849766,0.807184158921,0.575158806553,-0.107194293939,0.0784567663085,0.00571529271692,-0.136382674611,-0.0303866546776,0.0474672819165,-0.0230713691688,-0.0245503526457,-1.29486060143,0.621490359306,-0.575009047985,-0.30583178997,-0.81299829483,-0.0852053016424
2017/07/09/09:34:51.689529,247635,1499564094,489025523,,0.723456197172,-0.0340712864489,0.236932110434,0.807208691969,0.575122347982,-0.107028106418,0.0786981378241,0.00646106260191,-0.138645235959,-0.0182264761983,0.0445836903568,-0.0381381281272,0.000361543158961,-0.921349167824,0.562224328518,-0.892913103104,-0.407829105854,-0.654254555702,-0.114656880498
2017/07/09/09:34:51.699521,247636,1499564094,499027804,,0.723345991102,-0.0343794693223,0.236595521098,0.806849404591,0.57577787557,-0.10686340675,0.0778080240855,0.000123419712263,-0.141182053667,-0.00700035072603,0.0390078834069,-0.0182123310586,0.0229203884421,-1.62623417377,0.900733947754,-0.99992954731,-0.457141280174,-0.981759548187,0.0334292203188
2017/07/09/09:34:51.709496,247637,1499564094,509024730,,0.723113153983,-0.036216994124,0.236560183138,0.807040062417,0.575579987474,-0.106563515149,0.0777060674134,-0.0105128684249,-0.144367339502,-0.0124961012908,0.0416030119352,0.0146450449167,0.0472419176254,-1.29840183258,0.381419241428,-1.20900559425,-0.408844649792,-0.821170151234,0.00457538664341
2017/07/09/09:34:51.719443,247638,1499564094,519024836,,0.722713553788,-0.0374752345548,0.236550191778,0.806866119038,0.5758034897,-0.106914963546,0.0773731075209,-0.0137949404067,-0.12367431613,-0.027141397855,0.073183382214,0.0416358151723,0.061048923645,-2.35797142982,0.0498721599579,-0.623361945152,-0.314044982195,-1.20970916748,0.148446053267
2017/07/09/09:34:51.729594,247639,1499564094,529033051,,0.722759682147,-0.0383722257114,0.236469809728,0.806818121477,0.576082468525,-0.106218688784,0.0767534915613,-0.0184039046127,-0.129824456363,-0.0139282262948,0.0800577832452,0.0331991237351,0.0529759761264,-2.75038957596,0.493465006351,-0.728656947613,-0.467467963696,-1.46886312962,0.252450078726
2017/07/09/09:34:51.739940,247640,1499564094,539023876,,0.722983984968,-0.0390684890337,0.236293779533,0.806224793112,0.57695645196,-0.106138666839,0.0765337763002,-0.0241129802905,-0.122347604995,-0.0190667179164,0.111478670792,0.0391743147065,0.0386547830754,-1.89106440544,0.916143596172,-0.801591932774,-0.688166379929,-1.21061611176,0.175987303257
2017/07/09/09:34:51.749601,247641,1499564094,549028694,,0.72196575355,-0.0404297068892,0.23525053885,0.806267909661,0.576976553465,-0.106642386858,0.0752164604778,-0.0066060352134,-0.10517092607,-0.0113660134377,0.134892655809,-0.00402411868819,0.0744946914107,-2.4687037468,0.432865291834,-1.55293405056,-0.679444134235,-1.34623718262,0.239964410663
2017/07/09/09:34:51.759361,247642,1499564094,559024510,,0.722553525645,-0.041279232562,0.235599636544,0.805869386483,0.577713388831,-0.105549709745,0.0753726148309,-0.011225194463,-0.093861622761,-0.0373134195181,0.14230442199,0.0361891443779,0.101714743854,-1.79703235626,0.088649019599,-1.17162442207,-0.629865884781,-1.09719228745,0.185838013887
2017/07/09/09:34:51.769394,247643,1499564094,569020078,,0.722468424417,-0.0420481360511,0.235738397804,0.805417728096,0.578356204368,-0.105591270349,0.0752121516986,-0.0142606049173,-0.130854847994,-0.0252220635558,0.0830545832866,0.0174686851801,0.0855782823203,-1.12690401077,0.58489882946,-1.24552881718,-0.651673257351,-0.853543460369,0.110134422779
2017/07/09/09:34:51.779938,247644,1499564094,579026841,,0.722089636314,-0.0434275162127,0.234902480769,0.80510129341,0.578763002326,-0.105989203604,0.0749105013155,-0.00266200908962,-0.0999895243455,-0.0183566807015,0.0499992525734,0.0289415053516,0.143109471123,-1.48026263714,0.353727340698,-1.70617520809,-0.587813258171,-0.940366506577,0.161939322948
2017/07/09/09:34:51.789651,247645,1499564094,589020623,,0.722571934369,-0.0453099968731,0.235227423302,0.805469755159,0.578357218226,-0.10500866252,0.0754624571947,-0.00239450490582,-0.119160000406,-0.0176186496368,0.048882325572,-0.00888473390577,0.0748831172399,-2.17049193382,-0.482798933983,-0.932822346687,-0.437381803989,-1.20214641094,0.211066111922
2017/07/09/09:34:51.799611,247646,1499564094,599027057,,0.722123501138,-0.0454537821489,0.234552372897,0.805473625103,0.578375863834,-0.105468622823,0.074632224924,-0.0175671876048,-0.152505696476,-0.0123028586434,-0.00847705594691,-0.0151652119373,-0.0315075875961,-2.12368869781,0.516497075558,-1.43152999878,-0.519174158573,-1.18928694725,0.185682833195
2017/07/09/09:34:51.809451,247647,1499564094,609037022,,0.721811006589,-0.0470564295362,0.234523111022,0.806044119058,0.577667461406,-0.105123036094,0.0744468229489,-0.0163067205729,-0.0952202205121,-0.0367416759442,0.0507945411227,0.008805439911,-0.065668800686,-2.18682694435,-0.0466128736734,-1.11069071293,-0.455892145634,-1.17473328114,0.226951092482
2017/07/09/09:34:51.819405,247648,1499564094,619028378,,0.721663601834,-0.0477151789892,0.233940982697,0.805789744523,0.578004807924,-0.105371510022,0.074230549732,-0.0288835630234,-0.12263454002,-0.0276641509104,0.0263881472297,0.0173847172096,-0.0966008269523,-1.66238665581,0.828624010086,-1.34633636475,-0.745567381382,-1.06875193119,0.157815724611
2017/07/09/09:34:51.829622,247649,1499564094,629026033,,0.72117471319,-0.0491628865388,0.234002405108,0.805567549017,0.578385749615,-0.105313877636,0.0737552424581,-0.0297116392986,-0.10513971055,-0.0268266011573,0.0477181962214,0.0678775372521,0.0401780587944,-2.45617866516,0.802965044975,-1.24215507507,-0.797560453415,-1.36715269089,0.263239294291
2017/07/09/09:34:51.839591,247650,1499564094,639026256,,0.721385426715,-0.0501959744846,0.234395691975,0.804571300671,0.57978830683,-0.105113103565,0.0739038352081,-0.0457563657422,-0.101742563945,-0.0201489134952,0.102864345929,0.119573866558,0.191672057461,-3.03711771965,0.534972846508,-1.35597634315,-0.933773636818,-1.63688921928,0.334532976151
2017/07/09/09:34:51.850015,247651,1499564094,649023204,,0.720577635912,-0.0507309238473,0.233757540654,0.803554971667,0.581267456405,-0.105623344875,0.0726034479284,-0.0387156522807,-0.0938039408265,-0.0159038944583,0.0999385116937,0.141901804156,0.345811865818,-2.46605825424,0.718914926052,-1.57993233204,-1.00483584404,-1.4815454483,0.261141568422
2017/07/09/09:34:51.859819,247652,1499564094,659022906,,0.719146589257,-0.0526278236154,0.232611721162,0.803834562009,0.580885797991,-0.106471764833,0.0713123404895,-0.0582318171228,-0.107456874103,-0.0283322283947,0.0872510196245,0.156341784509,0.221629337627,-1.30363845825,-0.182976454496,-1.78081381321,-0.59368377924,-0.977567791939,0.186997041106
2017/07/09/09:34:51.869489,247653,1499564094,669028492,,0.719466196893,-0.0532054472292,0.232994678787,0.803941747715,0.580628478971,-0.106515876374,0.07212907714,-0.0360548013987,-0.0993904018396,-0.0362883010537,0.0361894163296,0.0809174189752,0.0616501911808,0.83909714222,-0.349159985781,-1.01887917519,-0.400981962681,-0.0980004742742,-0.0700519531965
2017/07/09/09:34:51.879669,247654,1499564094,679036941,,0.71916795389,-0.0541428659937,0.232589499117,0.804448464177,0.580014184879,-0.106255752448,0.0718047971591,-0.0220789280915,-0.0978206365749,-0.0395173628423,0.00095131126449,0.0164781279893,-0.0933384454588,-0.432934999466,-0.426524996758,-0.345429688692,-0.279341876507,-0.431341350079,0.00593052431941
2017/07/09/09:34:51.889619,247655,1499564094,689028116,,0.719051864744,-0.055402463474,0.231963224482,0.804718429595,0.57955346278,-0.106585337117,0.0720111016526,-0.0169028416293,-0.106779893728,-0.0343907001513,0.0152891757007,-0.0360707507204,-0.180841510836,-1.57804834843,-0.15835660696,-0.981662869453,-0.384228259325,-0.793266355991,0.109501302242
2017/07/09/09:34:51.899680,247656,1499564094,699028049,,0.718436751449,-0.0559896285227,0.23157212538,0.804815038413,0.57949031464,-0.106731183322,0.071219264875,-0.0256328840569,-0.0990656340355,-0.0318768309622,0.00238700933422,0.00496176643281,-0.142687150333,-3.66616773605,0.37156111002,-1.32858467102,-0.544599235058,-1.50172686577,0.272276848555
2017/07/09/09:34:51.909594,247657,1499564094,709021956,,0.718584354275,-0.0566861779301,0.23212439642,0.803971452186,0.580675029211,-0.106554015308,0.0713628498767,-0.0353622058613,-0.0919846930612,-0.0303211146346,0.00812078023386,0.0759269318642,0.0183302621777,-4.01057195663,0.653397619724,-1.04868459702,-0.669234156609,-1.70273327827,0.314576268196
2017/07/09/09:34:51.919466,247658,1499564094,719027418,,0.717988681457,-0.0577144365262,0.23151902109,0.802947132951,0.582031929333,-0.107187919763,0.070890653681,-0.0373360513735,-0.112943747386,-0.0199860434554,0.0226921345713,0.115739087651,0.229509182188,-3.00473833084,0.757624685764,-1.16174542904,-0.588959634304,-1.39149534702,0.237754330039
2017/07/09/09:34:51.929780,247659,1499564094,729027789,,0.717495877584,-0.058173786737,0.23065674982,0.802204278701,0.5830981023,-0.107589010638,0.0699249820749,-0.0305086093547,-0.0790076258232,-0.0319921421235,0.055264851572,0.137368458053,0.318003927306,-1.23212981224,0.285028398037,-1.39038956165,-0.381089746952,-0.816251575947,0.092699162662
2017/07/09/09:34:51.939874,247660,1499564094,739027552,,0.716929812313,-0.0596060610551,0.230864735396,0.802376681534,0.582801249426,-0.107936051761,0.0698868609171,-0.048674847056,-0.0721509420836,-0.0474733354172,0.0563735488457,0.168491688766,0.222628821807,-0.669656872749,-0.532931268215,-0.727786898613,-0.146491616964,-0.615834534168,0.0129974111915
2017/07/09/09:34:51.949677,247661,1499564094,749021387,,0.716623448913,-0.060035005579,0.23068514183,0.802689782045,0.582361961933,-0.108161377534,0.0696044215814,-0.0550014201881,-0.104981427605,-0.0339800314974,0.0198097217502,0.104695416312,-0.0249532411156,-1.09522354603,-0.0793546065688,-0.622830331326,-0.220501959324,-0.849555850029,0.0983913689852
2017/07/09/09:34:51.959329,247662,1499564094,759028108,,0.716321663358,-0.0608658381627,0.229655646772,0.803120168393,0.581819782828,-0.108249219513,0.0690350773609,-0.0388369529248,-0.072543395621,-0.0282824294667,0.0313371919792,0.0493523181803,-0.106789836833,-2.17053103447,0.213653117418,-1.79741024971,-0.434500485659,-1.28677880764,0.23906069994
2017/07/09/09:34:51.969338,247663,1499564094,769019908,,0.716245194876,-0.0607553810714,0.229876483738,0.802869963998,0.582223183651,-0.108077538953,0.0688130140594,-0.0376944855057,-0.0538254712966,-0.0448998223116,0.0642176502277,0.0536119843395,-0.116212427901,-2.60673308372,0.950142979622,-1.16916191578,-0.62693297863,-1.48724031448,0.275998771191
2017/07/09/09:34:51.979495,247664,1499564094,779031438,,0.715712659581,-0.0617474939959,0.229120743849,0.803530763715,0.581355149334,-0.10813377061,0.0683490289654,-0.0414684608344,-0.0804897581965,-0.0346258485459,0.0574972362424,0.0230376107296,-0.149181063954,-2.91459035873,0.522445082664,-1.47897410393,-0.530601382256,-1.57608258724,0.33176445961
2017/07/09/09:34:51.989654,247665,1499564094,789031865,,0.715565915584,-0.0619389227966,0.228536910607,0.803650190459,0.581286310566,-0.107934248785,0.0678438977591,-0.0352839345423,-0.0676385504477,-0.0461758054174,0.0543048049551,0.0323057286631,-0.102103762924,-1.57172143459,0.291124403477,-1.61159980297,-0.374341070652,-1.06972122192,0.183698326349
2017/07/09/09:34:51.999603,247666,1499564094,799027868,,0.715239154535,-0.0629750583054,0.228166655021,0.80342872527,0.581611798013,-0.107993286335,0.0675829115203,-0.0253248859894,-0.0482353944802,-0.0438669712297,0.0762305092744,0.0403261401067,0.011743410791,-1.62524819374,-0.235525220633,-1.42444384098,-0.468601286411,-0.956274986267,0.148587197065
2017/07/09/09:34:52.009731,247667,1499564094,809024151,,0.715170278601,-0.0633987043104,0.227935635549,0.803212278482,0.582076035567,-0.107414390278,0.0670796040251,-0.0299923766241,-0.0551018814952,-0.0504067747144,0.0969268989433,0.0580027133708,0.0670016965171,-2.69653701782,0.32737377286,-1.37002134323,-0.677449405193,-1.36714565754,0.268368780613
2017/07/09/09:34:52.019416,247668,1499564094,819033179,,0.714782531188,-0.0634502245322,0.22777086713,0.803024165846,0.582390785663,-0.107456767254,0.0665297303008,-0.0226535922134,-0.0572467069328,-0.0316019608091,0.0871359837863,0.0273665277795,0.0678829085193,-2.43284964561,0.568670868874,-1.1298416853,-0.831593155861,-1.13299417496,0.183462902904
2017/07/09/09:34:52.030171,247669,1499564094,829022516,,0.714944713474,-0.0631042506367,0.226909219915,0.802873669495,0.582627556941,-0.107480080324,0.0662346816876,-0.00328393669461,-0.0345548589814,-0.0241392086256,0.069102744748,-0.0237630933252,0.0121693621582,-2.40865087509,1.05859327316,-1.26752054691,-0.942463994026,-1.09972417355,0.199488192797
2017/07/09/09:34:52.042361,247670,1499564094,839029147,,0.714578278986,-0.0640605239689,0.226461905198,0.803661061102,0.58161532548,-0.107263914933,0.0659315143862,0.00853216410485,-0.00656863092953,-0.0432702307463,0.0748914533283,-0.0269328348013,0.00179562151219,-2.17182016373,-0.0834128707647,-1.14985156059,-0.566140711308,-0.849034965038,0.129967659712
2017/07/09/09:34:52.049316,247671,1499564094,849020848,,0.714711172857,-0.0639802972793,0.226213542937,0.803572212028,0.581853293628,-0.10680107999,0.0656656231523,0.000845494073952,-0.0271947278234,-0.0487253406203,0.066862853525,-0.0308937436675,-0.0730377872649,-1.79640829563,-0.177394002676,-0.237859249115,-0.389621734619,-0.755159199238,0.105121083558
2017/07/09/09:34:52.059433,247672,1499564094,859027279,,0.714022714263,-0.0651877088155,0.226295077809,0.803946618725,0.581221968026,-0.107368638587,0.0657482590875,-0.0273848453385,-0.0230181247792,-0.0541001363857,0.0784566818444,0.042371880716,-0.0638507288323,-2.11741900444,-0.382369577885,-0.285247027874,-0.40259295702,-0.8326587677,0.0923990756273
2017/07/09/09:34:52.069551,247673,1499564094,869024899,,0.714025011518,-0.0648877582354,0.225829541699,0.80408084874,0.58114782318,-0.107040274265,0.0652960641151,-0.0329587017571,-0.0262017017651,-0.0320369916736,0.0437689626637,0.0552504277707,-0.0436456435252,-2.12709712982,0.566599488258,-0.60428750515,-0.620516061783,-0.890055239201,0.119350835681
2017/07/09/09:34:52.079741,247674,1499564094,879028684,,0.714392445399,-0.0645141766059,0.225906205403,0.803669721878,0.581723439961,-0.106996990105,0.0653028456092,-0.0284874724429,-0.014971383181,-0.0300170779747,0.0379603432973,0.0666552495871,-0.01203890482,-2.27426886559,0.399307101965,-0.454301327467,-0.522245526314,-1.05981218815,0.160534605384
2017/07/09/09:34:52.089566,247675,1499564094,889021028,,0.713811123032,-0.0648679634087,0.225424813185,0.803964716414,0.581411555193,-0.106866163613,0.0646603535701,-0.00300833421557,-0.00504748292375,-0.0155395876654,0.0187861402373,0.0175392969036,0.00384203663011,-2.33977627754,-0.137724220753,-0.380086988211,-0.332606166601,-1.04698681831,0.159544378519
2017/07/09/09:34:52.099517,247676,1499564094,899028637,,0.713224130628,-0.065663889449,0.225038528665,0.804180972014,0.580964287543,-0.107712345222,0.0645872397438,-0.0183619142759,-0.0269165699552,-0.0261262279567,0.032527438761,0.0279777159566,-0.0284330471276,-2.04031324387,-0.0704387202859,-0.676939845085,-0.246755033731,-0.916535377502,0.160877600312
2017/07/09/09:34:52.109381,247677,1499564094,909025588,,0.713891545658,-0.0657342931506,0.224863206769,0.8041131473,0.581161435211,-0.10694611976,0.0649304245328,-0.00614502660765,-0.00697264326629,-0.0322262772291,0.0545371385215,0.0143195575747,0.000569042633813,-1.17697608471,0.0305836200714,-0.706499099731,-0.183248460293,-0.724320948124,0.115471959114
2017/07/09/09:34:52.119418,247678,1499564094,919026380,,0.71360971173,-0.0653046894604,0.224161891762,0.803932039915,0.581420137368,-0.107356302122,0.0641757232582,-0.0100754402388,-0.0100919333622,-0.0361004344168,0.0391044236844,0.0301174205432,-0.0143676906745,-1.64409255981,0.391098499298,-0.936871290207,-0.329746812582,-0.83981949091,0.136222362518
2017/07/09/09:34:52.129870,247679,1499564094,929021998,,0.71336020201,-0.0653359674314,0.223784491818,0.804112316016,0.581246575891,-0.107225096411,0.0637069850627,-0.00323955805996,-0.00772765085122,-0.0202632652731,0.0244138176426,0.00488314615268,-0.0253363140849,-2.49370002747,0.702144145966,-0.820676386356,-0.435812562704,-1.18077945709,0.18804115057
2017/07/09/09:34:52.139553,247680,1499564094,939028526,,0.712971650337,-0.0661415193172,0.224186042561,0.804333083136,0.580835786647,-0.107566289237,0.0640903560838,-0.014655683571,-0.0273369784101,-0.0073162564027,0.00141613789036,0.00742550582248,-0.0411313232866,-3.49716615677,0.432774931192,-0.611863017082,-0.352876901627,-1.51496970654,0.278408885002
2017/07/09/09:34:52.149610,247681,1499564094,949028373,,0.71299572994,-0.0656108477415,0.223368553467,0.804022288925,0.581342057012,-0.107605451317,0.063329602143,-0.0240651962566,-0.00245414773889,-0.00902197448272,0.0227757519576,0.0502659464621,-0.0130300213817,-2.20029807091,0.85887247324,-0.977454602718,-0.460288733244,-1.14203298092,0.194124907255
2017/07/09/09:34:52.159310,247682,1499564094,959028178,,0.713200266655,-0.0652727863258,0.22372336836,0.804104247524,0.581265310411,-0.107358729806,0.0634121531049,-0.0224734551563,0.0235393397375,-0.0325742609637,0.0401936184979,0.0883500223381,0.00438713079291,-1.29663586617,0.557747364044,-0.721871078014,-0.235287874937,-0.922820985317,0.134005278349
2017/07/09/09:34:52.169422,247683,1499564094,969026041,,0.712472981417,-0.0652849978108,0.223354602327,0.804045774409,0.581294110127,-0.108063776716,0.0626878803934,-0.0241486302204,-0.000863117686142,-0.0232345908837,0.043781752639,0.0672138319897,-0.0138194582178,-1.67218446732,0.203256934881,-1.08130896091,-0.242368772626,-1.06950724125,0.178888767958
2017/07/09/09:34:52.179714,247684,1499564094,979030491,,0.711854210464,-0.0669126795425,0.223386866568,0.804642946889,0.580408131986,-0.108261295752,0.06289372138,-0.0312303625225,-0.0238462466714,-0.00668804163738,0.0237681587242,0.0510597364281,-0.0438876857226,-2.69780397415,-0.545382559299,-1.11659491062,-0.107705891132,-1.4215515852,0.253844350576
2017/07/09/09:34:52.189461,247685,1499564094,989026900,,0.712356959426,-0.0661659692818,0.223488219084,0.804447106327,0.580779225245,-0.107749949468,0.0628513566762,-0.0175142766881,0.00228068995032,-0.0234773544928,0.0623970321447,0.0377535687174,-0.0346143667441,-1.70761406422,0.105957485735,-0.863839030266,-0.265113651752,-1.1219547987,0.192367911339
2017/07/09/09:34:52.199563,247686,1499564094,999029817,,0.712438547566,-0.0660764393287,0.223386443783,0.804416908673,0.580807884663,-0.107756839729,0.0629611121692,-0.0027393393071,-0.0136990150513,-0.00359766828078,0.0157400556413,-0.0191507774804,-0.0387462749695,-2.3575026989,0.675948858261,-1.3153526783,-0.521602511406,-1.29701161385,0.220555409789
2017/07/09/09:34:52.209414,247687,1499564095,9027848,,0.71240075843,-0.066320769382,0.223307394474,0.804561412019,0.580695413148,-0.107379279959,0.0627969877808,0.0177986145898,0.00588472164198,-0.0077095313962,0.0152462306973,-0.0397287660875,-0.000901487068595,-2.56101703644,0.355101883411,-0.983430862427,-0.376735985279,-1.27095997334,0.244714379311
2017/07/09/09:34:52.219615,247688,1499564095,19027056,,0.712612767388,-0.0660792277867,0.223048677781,0.804650095632,0.580582473489,-0.10730468318,0.062832476028,0.0176460936297,-0.00677242779366,-0.00368541995297,-0.00826722163178,-0.0506012627382,-0.0053495126698,-2.48660373688,0.539264321327,-0.979760944843,-0.425731986761,-1.24577152729,0.226088225842
2017/07/09/09:34:52.229687,247689,1499564095,29028655,,0.712749991063,-0.0660291757805,0.223477603816,0.80468855648,0.580485494373,-0.107347076943,0.0631626706582,0.00426529920441,-0.0336951726522,0.0109822026452,-0.0320122093185,-0.0473188299809,-0.0519888798339,-2.72965240479,0.593872070312,-0.992289066315,-0.323068916798,-1.34832644463,0.239119946957
2017/07/09/09:34:52.239495,247690,1499564095,39035732,,0.712764346078,-0.0659359122985,0.223265719398,0.804694038534,0.580466836847,-0.107445282377,0.0630972817492,0.0132585108941,0.00436725457073,0.00825798176526,-0.0423572248292,-0.0162506893442,0.0079435773918,-2.20747828484,0.612243950367,-1.19938623905,-0.278966486454,-1.18646216393,0.242698848248
2017/07/09/09:34:52.254242,247691,1499564095,49022310,,0.712644595763,-0.0665716919632,0.223294704396,0.804733861249,0.580352273519,-0.10760869664,0.0633641822235,0.00395732315512,-0.00619196624559,0.00319228716804,-0.032347269227,0.00836992484841,0.0131726643836,-2.74591255188,0.223476111889,-1.5099697113,-0.241661831737,-1.35820043087,0.243233308196
2017/07/09/09:34:52.259328,247692,1499564095,59029841,,0.712657667064,-0.0659799104073,0.223348955449,0.80447781578,0.580705127202,-0.107750968096,0.0631405419148,-0.0196407363238,-0.0124635840929,-0.00928167603071,-0.0121425942526,0.0516354376909,-0.00133468940849,-2.25349116325,0.62061136961,-0.886518836021,-0.177442088723,-1.31449401379,0.237400084734
2017/07/09/09:34:52.269361,247693,1499564095,69020202,,0.712102841982,-0.067074864015,0.223202115872,0.804645358306,0.580394429787,-0.108149218723,0.0631814824013,-0.00907506898137,-0.0077005454968,0.000333771388117,-0.0137348100142,0.0328605269353,0.0250290032562,-2.34265494347,0.13914051652,-1.46539878845,-0.128706231713,-1.25511789322,0.20566958189
2017/07/09/09:34:52.279594,247694,1499564095,79028952,,0.713068629891,-0.0661373102152,0.223612086238,0.80443147756,0.580789525444,-0.107404586906,0.0635435264706,-0.000724154659912,0.0138045116112,-0.010829030679,0.0108651887011,0.0210511376812,0.0304155450236,-1.94971930981,0.367420732975,-1.21656656265,-0.145934954286,-1.18614149094,0.212276995182
2017/07/09/09:34:52.289562,247695,1499564095,89024014,,0.712458087113,-0.0663706660746,0.223202830411,0.804462103687,0.580674765024,-0.107994713441,0.0632035035843,0.00278261196689,-0.0172026792242,0.00743303034735,-0.00997573292979,-0.020457335921,-0.0244026740177,-2.33814501762,0.45424926281,-0.942413806915,-0.125479221344,-1.30854892731,0.239605516195
2017/07/09/09:34:52.299769,247696,1499564095,99027635,,0.712561269443,-0.0664971499533,0.22348206781,0.804587434414,0.580533451348,-0.1077765357,0.0632786741453,0.00342307917397,-0.0144413027706,0.0131775590988,-0.0160581216503,-0.0380248444619,-0.0325100185303,-2.07979059219,0.224809169769,-1.26035773754,-0.146783038974,-1.2035381794,0.213972717524
2017/07/09/09:34:52.309338,247697,1499564095,109025866,,0.713427876644,-0.0658094094193,0.223819409868,0.804343462002,0.580955641159,-0.107039665012,0.0637545939876,0.00141646615077,0.00774540726238,0.000730252460405,0.00525782170113,0.00180136956012,0.00808866254104,-1.29559516907,0.380408734083,-0.919937729836,-0.125438556075,-0.995260298252,0.186348631978
2017/07/09/09:34:52.319653,247698,1499564095,119096140,,0.712447668675,-0.0664391413614,0.222979202186,0.804562708753,0.580573215671,-0.107946274472,0.0629379913691,0.00326911506923,0.0147932221288,-0.000104795396257,0.00881151085081,0.00695673320683,0.0248068499017,-2.37701201439,0.419040799141,-1.8036891222,-0.265021145344,-1.31477344036,0.242399841547
2017/07/09/09:34:52.329710,247699,1499564095,129095258,,0.711842511635,-0.0663083271293,0.223235973725,0.804582297242,0.580531486783,-0.108275018984,0.0625063203465,-0.018943126623,0.000289243015966,-0.0140113499971,0.0191547836882,0.0419075099414,-0.0408374537158,-2.78807902336,0.354780137539,-1.42487061024,-0.167248338461,-1.44871854782,0.306665331125
2017/07/09/09:34:52.339352,247700,1499564095,139096363,,0.712504511727,-0.066468168103,0.22323062277,0.804686391292,0.580399058169,-0.107849304214,0.0631290149228,-0.0113740011799,-0.00777515879592,-0.00773506204477,0.000428490470732,0.0240101960077,-0.0111429589958,-2.66879320145,0.358452707529,-1.50382447243,-0.195542007685,-1.49686229229,0.291856259108
2017/07/09/09:34:52.349900,247701,1499564095,149094521,,0.712332065925,-0.0661635356383,0.223105020124,0.804698436344,0.58039476558,-0.107959290974,0.0628262216423,0.00246766035003,0.012390613638,-0.00877021405759,0.0129786506337,0.00406438242984,0.0024136815396,-2.73447132111,0.407217562199,-1.61999821663,-0.221291542053,-1.4840708971,0.305680602789
2017/07/09/09:34:52.359573,247702,1499564095,159091360,,0.712841520597,-0.0668067170888,0.223902480455,0.804644833858,0.580450698003,-0.1074876377,0.0637972278002,0.00973406725241,-0.00682654754652,0.00717293333203,-0.0179914170527,-0.0324432336103,-0.00896143743021,-2.07244420052,0.179469347,-0.989920735359,-0.142798051238,-1.22598433495,0.231489181519
2017/07/09/09:34:52.369536,247703,1499564095,169090266,,0.712479259555,-0.0664120829317,0.223390219934,0.80460706828,0.580512240499,-0.107799517358,0.063184399675,0.0123469478869,-0.0094255826209,0.0190557247893,-0.0335807708725,-0.0378188592085,0.00647536590146,-3.02805614471,0.650262475014,-1.51039493084,-0.269788354635,-1.51373720169,0.301687538624
2017/07/09/09:34:52.379855,247704,1499564095,179097725,,0.712671389648,-0.0666765568014,0.223512796356,0.804666629024,0.580390537157,-0.107784989835,0.0635675741239,-0.000473973347755,-0.00155174277283,-0.00758823064036,0.0137602968735,0.00263410624481,0.00308735057097,-2.81337189674,0.23153232038,-1.31639516354,-0.165387809277,-1.47803664207,0.33180680871
2017/07/09/09:34:52.389663,247705,1499564095,189099985,,0.712743918323,-0.0668094950643,0.223279851443,0.805080596745,0.579953735706,-0.107206636003,0.0632900812366,0.00403273301406,0.0101353627685,-0.0081281243342,0.0318657640508,-0.0073743384591,-0.0148803837045,-3.75665473938,-0.047304674983,-1.70098888874,-0.3273409307,-1.74351012707,0.336350142956
2017/07/09/09:34:52.399547,247706,1499564095,199090242,,0.712906549314,-0.0663061957236,0.223536184378,0.805103054727,0.579912439375,-0.107197930656,0.0633974572834,-0.00146704878296,-0.00559831556163,0.00174781367052,0.0113195555763,-0.0187329872261,-0.0558997380272,-3.37450385094,0.900009214878,-1.56402301788,-0.441270411015,-1.7093706131,0.392748117447
2017/07/09/09:34:52.409431,247707,1499564095,209101178,,0.713445644267,-0.0656380232536,0.22371503858,0.804792367173,0.580388606247,-0.106855785673,0.0635621943192,0.00223416364046,0.0192928494158,0.00125229329833,0.00531004275169,-0.00115580026535,-0.0351623126015,-2.28779292107,0.455318629742,-0.874840974808,-0.253475010395,-1.37633800507,0.280251353979
2017/07/09/09:34:52.419598,247708,1499564095,219094331,,0.712575750114,-0.0664039304135,0.223270233128,0.804926704309,0.580051847411,-0.107838189715,0.0632754284381,-0.00367276474904,0.00645488800448,-0.0111030514056,0.0108094986307,0.0142694692729,-0.0303750800992,-2.53459215164,0.1311943084,-1.22218632698,-0.232442259789,-1.37199556828,0.265110909939
2017/07/09/09:34:52.429930,247709,1499564095,229097132,,0.712649835795,-0.0667602721312,0.223608403387,0.805204673613,0.579759059581,-0.107356675663,0.0632408935446,0.0010966136495,-0.000660799426266,-0.0121156088665,0.00295833030788,0.00843903780188,-0.00418385657374,-2.81917238235,-0.262207865715,-0.848558306694,-0.166614443064,-1.45905220509,0.282111644745
2017/07/09/09:34:52.439840,247710,1499564095,239093594,,0.712705364323,-0.066576007524,0.223110623463,0.805297071723,0.579594594274,-0.107524894055,0.0632860942234,-0.000691132649884,-0.0176663360233,0.00139134341435,-0.000251094195642,-0.00627280155345,-0.0194122818945,-2.57831573486,0.336763948202,-1.56192803383,-0.319689303637,-1.36008131504,0.252566099167
2017/07/09/09:34:52.449597,247711,1499564095,249089517,,0.713403305299,-0.0660150245861,0.223442834873,0.804936647213,0.580221071102,-0.106789571015,0.0633757851668,0.0135911300572,0.0022836628724,-0.0109699306071,-0.00295392492653,-0.0217159026103,0.00502269145557,-2.26371121407,1.07707393169,-1.32577955723,-0.434429585934,-1.29047739506,0.284501940012
2017/07/09/09:34:52.459539,247712,1499564095,259098832,,0.713082720376,-0.0665864689914,0.223226431003,0.805085865314,0.579950497798,-0.107149837458,0.0633488903425,0.0106124714025,0.00553866181061,0.00269326778006,0.00344975911915,-0.0146788464365,-0.00278015242121,-2.58008909225,0.712197601795,-1.43567192554,-0.464016765356,-1.33808612823,0.228509321809
2017/07/09/09:34:52.469624,247713,1499564095,269089887,,0.713284196188,-0.0663700946242,0.223108832959,0.805222378037,0.579770233132,-0.107081499335,0.0633794223894,0.0188400701431,-0.0250500394585,0.0165375616694,-0.0323460813261,-0.0615665492442,-0.0208308261854,-3.67607903481,1.14289927483,-1.54023969173,-0.528831005096,-1.75959801674,0.391426324844
2017/07/09/09:34:52.479896,247714,1499564095,279118033,,0.713446004809,-0.066190920001,0.223363087461,0.805274112719,0.579721794096,-0.106865010904,0.0635304201014,0.00188771400221,-0.0164800811965,0.00817587919881,-0.00563343268066,-0.025047379182,-0.0401037363964,-3.66654849052,1.29442739487,-1.66327476501,-0.63528496027,-1.77722811699,0.375011771917
2017/07/09/09:34:52.489815,247715,1499564095,289090922,,0.713513961246,-0.0659133721571,0.223110584511,0.805373027372,0.579587271282,-0.106914084628,0.0634212918324,-0.00116102107801,-0.00278556176286,0.00152692030945,-0.000499691007765,-0.00805631440118,-0.0496890632036,-3.90062522888,1.47177100182,-1.78540897369,-0.647790908813,-1.89401948452,0.449553638697
2017/07/09/09:34:52.499517,247716,1499564095,299093015,,0.712819959887,-0.0661050774557,0.222701877611,0.805809719283,0.579002028048,-0.107219750302,0.0626998641981,0.00602140614813,0.00575909751871,0.00882132461467,0.000115785212612,-0.0297004743779,-0.0618675557304,-3.36978650093,0.799444913864,-2.0856692791,-0.519290030003,-1.63392090797,0.344464838505
2017/07/09/09:34:52.509755,247717,1499564095,309097397,,0.713664181608,-0.066593765853,0.22351709028,0.805818993502,0.578986193758,-0.106572774612,0.0638199095943,0.00302105244955,0.00529246499864,8.18590364134e-05,0.0194181113585,-0.0186976892725,-0.0512593576399,-1.9216285944,-0.0241063758731,-1.13523077965,-0.198073983192,-1.1881633997,0.207380384207
2017/07/09/09:34:52.519410,247718,1499564095,319101657,,0.712864062822,-0.0664944234913,0.223371422476,0.805844338606,0.57895642435,-0.107065805565,0.0629386520308,-0.00624107819654,-0.00569226603335,-0.00408320096991,-0.000205366738462,0.0184261798564,-0.0232982494905,-2.41592168808,-0.0605202242732,-1.47216582298,-0.22547967732,-1.34967112541,0.274725019932
2017/07/09/09:34:52.529652,247719,1499564095,329094184,,0.712969094421,-0.0662864345807,0.223374048831,0.805883821493,0.578927824609,-0.106934538107,0.0629193508311,-0.0076382476307,0.00518901836794,-0.00230637955213,0.0244090368072,0.0255975457272,-0.0160541833108,-1.91344988346,0.464578509331,-1.62978410721,-0.363530904055,-1.19426465034,0.208899661899
2017/07/09/09:34:52.539749,247720,1499564095,339097949,,0.713523665807,-0.0664902031528,0.22345240333,0.80588322387,0.578878317258,-0.106801245083,0.0636051675706,-0.000466230115683,0.00426423183478,-0.0165572421407,0.0230844079393,0.0196170090402,0.00475108429724,-2.79261279106,0.190888226032,-1.51876962185,-0.35386249423,-1.5440145731,0.321166276932
2017/07/09/09:34:52.549377,247721,1499564095,349094226,,0.713308644941,-0.0665187897504,0.22341915203,0.805875494669,0.578895833719,-0.106912493793,0.0633562898627,0.0190433267327,-0.00505119817435,0.00158777085038,-0.0189472930971,-0.0409532978385,-0.000519396596385,-3.53159952164,0.6162520051,-1.27343165874,-0.440167427063,-1.76147174835,0.355883210897
2017/07/09/09:34:52.559515,247722,1499564095,359102795,,0.713245928671,-0.0669027257309,0.223336790978,0.806061739119,0.578579099174,-0.107131600723,0.0635099901854,0.0159947312785,-0.0156282011211,0.00631623527626,-0.0236511157499,-0.0476853343085,-0.00560969482231,-2.97968626022,0.813553035259,-1.39883613586,-0.427898257971,-1.51957678795,0.320513486862
2017/07/09/09:34:52.569783,247723,1499564095,369095154,,0.714198557302,-0.0668279105719,0.223778653452,0.806023523993,0.578753693746,-0.105969832663,0.0643477685036,0.00624604783008,-0.0125906892161,0.00109619939544,-0.00927279346372,-0.0239777260546,-0.01284961717,-2.32733750343,0.3307069242,-0.973897635937,-0.305968880653,-1.34488785267,0.253777295351
2017/07/09/09:34:52.579840,247724,1499564095,379097238,,0.713552311224,-0.066468217617,0.223400237999,0.806070859375,0.578679729298,-0.106606171177,0.0633613828296,0.00269309606265,-0.00755840500676,0.00537911960992,-0.00272585098956,-0.0117862315649,-0.019136584773,-1.70685625076,0.908160090446,-0.939568400383,-0.430725216866,-1.17439615726,0.195156872272
2017/07/09/09:34:52.589647,247725,1499564095,389097469,,0.713772699831,-0.0665360969189,0.223277065936,0.80619687034,0.578520510498,-0.106437639038,0.0634953083504,-0.00648623203131,0.00324210214646,-0.00542178004271,0.0181304535361,0.0226000776248,-0.0297268143114,-2.24923443794,0.675465762615,-1.45120370388,-0.466846466064,-1.3618991375,0.292811840773
2017/07/09/09:34:52.599662,247726,1499564095,399096810,,0.71336231502,-0.0663780502077,0.223013622713,0.806132123679,0.578590808105,-0.106796849648,0.0630722510581,0.00768109439254,0.0230700963431,-0.0123886644969,0.0564463421347,0.00588477780364,0.0106844034138,-2.52026128769,0.551558375359,-1.33797669411,-0.448867946863,-1.4322988987,0.288486331701
2017/07/09/09:34:52.610324,247727,1499564095,409095763,,0.713974899548,-0.0660773484238,0.223352616463,0.805711972387,0.579236186544,-0.106358306215,0.0632579516688,0.0116457786638,0.0140780810379,0.0120188457333,0.00304099890486,-0.0155492991881,0.018263725796,-2.48617219925,0.282316207886,-0.871378183365,-0.334046632051,-1.50345718861,0.291843086481
2017/07/09/09:34:52.619489,247728,1499564095,419095118,,0.713904058084,-0.066141648755,0.223313032617,0.80591576166,0.578966350337,-0.106321315039,0.0631943688538,0.00776227622656,-0.00314968606005,0.00607376788896,-0.0129304127895,-0.0150565145814,0.00686742869815,-1.79277932644,0.662992477417,-1.25937235355,-0.435391664505,-1.19906795025,0.212272271514
2017/07/09/09:34:52.629974,247729,1499564095,429096925,,0.713965456975,-0.066592230996,0.223406586944,0.806186358116,0.578642910439,-0.105958749983,0.0633141492045,-0.00377030280556,-0.0161546886814,-0.00799054001448,-0.0159576153807,0.0135548045563,-0.00694826785828,-0.932944178581,-0.0937202349305,-0.65921318531,-0.221519112587,-0.874501526356,0.0995554924011
2017/07/09/09:34:52.639763,247730,1499564095,439097130,,0.713654688661,-0.0663576503184,0.222951419552,0.806161402559,0.5786294125,-0.106497655058,0.0628493872821,0.0178315219209,0.000381608793038,0.004077104088,-0.000273556718476,-0.0412216912503,0.00513059209938,-1.80672836304,0.336629152298,-1.42218768597,-0.322581470013,-1.10264360905,0.197754666209
2017/07/09/09:34:52.649447,247731,1499564095,449091679,,0.713909058528,-0.06652932427,0.223340941077,0.806066435976,0.578697114048,-0.106448842707,0.0635231837389,0.00599513195301,-0.00406249578786,-0.0150012434013,0.00458741095089,-0.00826531004124,-0.0211169013271,-1.15144515038,0.220607310534,-1.00646090508,-0.280256658792,-0.857195854187,0.118120148778
2017/07/09/09:34:52.659750,247732,1499564095,459097436,,0.71434462351,-0.0662773203473,0.223066624415,0.806057072189,0.578802152148,-0.105996341219,0.0634416321671,0.0290418233562,0.0187521758819,-0.00641416652221,0.0112827099607,-0.0443300287706,0.0320708150801,-1.82254123688,-0.0352153889835,-0.939498662949,-0.228210866451,-1.14185416698,0.220770135522
2017/07/09/09:34:52.669567,247733,1499564095,469095925,,0.714240706771,-0.0669850759502,0.22279761434,0.806277870565,0.578458761028,-0.106084335922,0.063620522622,0.00869988446758,-0.00916868768824,0.00241205667008,-0.00645312122088,-0.0247255515787,-0.0138136125977,-2.18005919456,0.00328411906958,-1.66690504551,-0.283642649651,-1.2470574379,0.233251959085
2017/07/09/09:34:52.679898,247734,1499564095,479098225,,0.714189225281,-0.0665484837499,0.22357763681,0.806091491676,0.578741222621,-0.105973875447,0.0635975000303,0.0024094827276,-0.01714471993,-0.000189451742312,-0.0109145911798,-0.00390959791735,-0.0117562780235,-2.02220392227,0.257477223873,-1.04152071476,-0.348839968443,-1.16985142231,0.207872569561
2017/07/09/09:34:52.689471,247735,1499564095,489095710,,0.71393711665,-0.0665510991326,0.222923407236,0.806306759674,0.578463372917,-0.106198923166,0.0630184434619,0.000344570613231,-0.000882299982583,0.00150697816766,0.00637005412902,-0.000279801642288,-0.00389183828132,-2.69721770287,0.263599544764,-1.52264511585,-0.337598532438,-1.45617818832,0.303258925676
2017/07/09/09:34:52.699429,247736,1499564095,499089769,,0.714292765492,-0.0663544459295,0.222478839489,0.805886263216,0.578988810443,-0.106398816233,0.0632343264818,-6.68686231714e-05,-0.00347672342153,-0.00768889052749,0.010727353392,0.00784858726247,-0.0157132847915,-0.964808881283,-0.0151527374983,-1.7161052227,-0.236291483045,-0.838063359261,0.119522333145
2017/07/09/09:34:52.709611,247737,1499564095,509094212,,0.714743534735,-0.0657132285564,0.222730250043,0.80593007088,0.579078714465,-0.105664479317,0.0630839212175,-0.0050684621461,0.00532880083735,-0.0271539144225,0.0306104240598,0.0352099319505,0.0093861488277,-0.555048704147,0.298410862684,-1.02945101261,-0.226423278451,-0.736116170883,0.110211655498
2017/07/09/09:34:52.719477,247738,1499564095,519094951,,0.714796718863,-0.0666114492464,0.223250553627,0.806236692977,0.578540320418,-0.105736873834,0.063978168623,0.0210142162789,-0.00895168919359,0.00784717964753,-0.022271593489,-0.0449949020082,-0.00209881177881,-1.08331382275,-0.0346605330706,-0.896589875221,-0.171774461865,-0.857551395893,0.105822779238
2017/07/09/09:34:52.729949,247739,1499564095,529093158,,0.714610029333,-0.0664435886988,0.222971236409,0.806074355001,0.578829226875,-0.105718337727,0.0634388949627,0.0015448644887,-0.00293171469047,-0.000218815649925,-0.00114130175176,-0.00418622648471,-0.0232193707902,-1.25501739979,-0.140613391995,-1.31789004803,-0.192992329597,-0.969468295574,0.174241065979
2017/07/09/09:34:52.739797,247740,1499564095,539097974,,0.714861877804,-0.0663874696394,0.222910619104,0.80633395625,0.578419061263,-0.105864182844,0.0636373738949,-0.00529768490576,-0.00957986000836,-0.0096524530125,0.00641327000336,0.00753813536374,-0.0335990962318,-0.961919724941,0.496522575617,-1.16507208347,-0.359537690878,-0.917010784149,0.158196762204
2017/07/09/09:34:52.749747,247741,1499564095,549088547,,0.714600918057,-0.0666528292174,0.22266852711,0.806298324654,0.578396652175,-0.106239234168,0.0636674919903,0.00822265419375,0.0076939544463,-0.0124449282473,0.00845246786017,0.00664177403456,-0.0170388114582,-1.6721817255,0.359668642282,-1.49665498734,-0.363492041826,-1.11669194698,0.231392085552
2017/07/09/09:34:52.759634,247742,1499564095,559097027,,0.714734082188,-0.0662383656758,0.222604861319,0.806349596853,0.578484386426,-0.105615039145,0.0632582470767,0.00934018724649,0.0108287909755,-0.00525252025099,0.01775482727,-0.0151930562414,-0.0188281554339,-2.45784330368,0.803948104382,-1.68873751163,-0.455588340759,-1.43158185482,0.286435037851
2017/07/09/09:34:52.769631,247743,1499564095,569101941,,0.714316962328,-0.0670032480546,0.222522346833,0.806577387831,0.578050021612,-0.106210189875,0.0633283942695,-0.00741237422894,-7.58908981456e-05,-0.00510921746335,0.00861922094951,0.0121440447325,-0.0261817697265,-2.14015746117,0.607261896133,-1.71016526222,-0.402237892151,-1.26902973652,0.257923275232
2017/07/09/09:34:52.780384,247744,1499564095,579092301,,0.714504899412,-0.0660884334102,0.222240865391,0.806414846966,0.578338941536,-0.106120318063,0.0629097877046,0.00627887969374,0.00209194305022,-0.00949995765659,-0.00643137448924,0.0021468393921,0.0144489649857,-1.65115654469,0.608633637428,-1.54582881927,-0.383522033691,-1.08515238762,0.211564272642
2017/07/09/09:34:52.789624,247745,1499564095,589118403,,0.714868807127,-0.0664832284175,0.222295617963,0.806230376223,0.578537042701,-0.106048488856,0.0635703444211,0.00514899426858,-0.00155441719507,-0.00535220988382,-0.00848929788745,-0.00694431010171,0.00682023195659,-1.39856481552,0.421303004026,-1.62860369682,-0.29111623764,-0.992438018322,0.182875871658
2017/07/09/09:34:52.799691,247746,1499564095,599102864,,0.714413991176,-0.0664848506656,0.222389293359,0.8065795922,0.578066960198,-0.106172163932,0.0632093551646,0.00380163806538,-0.00936304493452,-0.0131047364992,0.00242753328579,-0.011431842932,4.26255896968e-05,-1.82462120056,-0.142201036215,-1.27416932583,-0.202340602875,-1.06504428387,0.185847774148
2017/07/09/09:34:52.809339,247747,1499564095,609093154,,0.714194868519,-0.0669163747528,0.22224619079,0.806713702318,0.57785407517,-0.106296969022,0.063234679397,0.00457990758417,0.0082047529082,2.65473304508e-05,-0.000615489601032,-0.00671514039867,0.0138350411568,-1.92474067211,0.000147804617882,-1.42898857594,-0.230325609446,-1.09602725506,0.194586455822
2017/07/09/09:34:52.819514,247748,1499564095,619102408,,0.714586911295,-0.0662802049266,0.22250293652,0.806361837217,0.578394739754,-0.105972766314,0.0633236551716,-0.00245327092058,0.0151219987666,-0.00330039445101,0.0130477971348,0.0213344011292,-0.00100549967283,-1.62472116947,0.372092843056,-1.23992812634,-0.215247303247,-1.05798363686,0.209930360317
2017/07/09/09:34:52.829993,247749,1499564095,629103486,,0.715115667024,-0.0661364610427,0.222557073992,0.806140072787,0.578738862019,-0.105615561731,0.0635992590902,0.00778262795962,0.0241835586533,-0.00482953569286,0.032484390161,0.0009433151913,0.0264645024597,-1.70750999451,0.236230000854,-1.17060256004,-0.156674772501,-1.144551754,0.226786598563
2017/07/09/09:34:52.839498,247750,1499564095,639099807,,0.714691364283,-0.0657901758128,0.222141982294,0.806203476567,0.578646965026,-0.106018595276,0.0629579358966,0.00129657498557,0.00121275774511,-0.0132532989194,-0.00697163721028,0.0188471912538,0.00579873971541,-1.23203015327,0.670764684677,-1.73514163494,-0.316801726818,-0.928315639496,0.190828979015
2017/07/09/09:34:52.849831,247751,1499564095,649092233,,0.714942029195,-0.0668419991497,0.222635037382,0.806617779927,0.578088718465,-0.10555475052,0.0635561588838,-0.00762770915161,-0.009409143574,-0.0169242580318,0.00334857158227,0.0236104178435,-0.00772201392783,-1.60490000248,-0.0564296469092,-1.01244473457,-0.19744682312,-1.06682896614,0.209500908852
2017/07/09/09:34:52.859736,247752,1499564095,659340581,,0.714813455229,-0.0664201962443,0.221785568609,0.80649193125,0.578279854841,-0.105820643191,0.062969562395,-0.0030749278592,0.00473101945048,0.00247652833793,0.0278775535988,0.00500457972637,-0.00684218389752,-3.09405517578,0.12027682364,-1.85802733898,-0.369694054127,-1.56210827827,0.326596409082
2017/07/09/09:34:52.869642,247753,1499564095,669343700,,0.714804676395,-0.0669018310696,0.222025964928,0.806524746241,0.57818532752,-0.105863124551,0.0633447677547,0.00276400675864,-0.00363550065893,-0.0203167317349,0.0160654160782,0.00466531741056,0.00849469741034,-2.17733216286,-0.0293628871441,-1.53384482861,-0.203804820776,-1.20038223267,0.252168774605
2017/07/09/09:34:52.879860,247754,1499564095,679344292,,0.714966611509,-0.0662562181601,0.221903262424,0.806092128285,0.578887347783,-0.105536969838,0.0629830714702,0.0048267824597,-0.00841459686307,-0.00657860507623,-0.00117309113278,-0.0143364111346,-0.0157049970429,-1.58646678925,0.340177178383,-1.56206846237,-0.274095475674,-0.972331523895,0.173866331577
2017/07/09/09:34:52.890070,247755,1499564095,689340348,,0.715698312437,-0.0663513750083,0.221938599923,0.806435832974,0.578404378945,-0.105098573937,0.0637488154297,0.0131249291806,-0.0107300639092,-0.0018646465944,-0.0119731936227,-0.0346203889725,0.00043495963381,-1.40859365463,0.564894080162,-1.34601223469,-0.326675504446,-0.947482943535,0.157168075442
2017/07/09/09:34:52.899976,247756,1499564095,699354439,,0.714608835586,-0.0664650210236,0.2207870327,0.806489585712,0.578279574984,-0.106086947685,0.0625527043795,0.0205120792446,-0.00129066883504,0.00318890541569,-0.0154552368996,-0.0457748081866,0.000786708785146,-0.887790858746,0.483334213495,-1.75364601612,-0.269306868315,-0.647426486015,0.087025269866
2017/07/09/09:34:52.909904,247757,1499564095,709349240,,0.714891078852,-0.066441572322,0.22138960436,0.806461845491,0.578358804006,-0.10566683808,0.0628880348398,0.00841795560501,0.00863054762396,-0.0105345067207,0.0117545477129,-0.00291670265179,0.0150726299745,-1.39667248726,0.164738863707,-1.04138422012,-0.190030634403,-0.904155492783,0.138667926192
2017/07/09/09:34:52.919725,247758,1499564095,719352347,,0.715440992072,-0.0659221985712,0.221621318414,0.806447295142,0.578431350891,-0.10525218321,0.0631023802619,-0.00749069258603,-0.00212738568167,-0.00621016389029,0.00256005343515,0.0244050261098,-0.00620674429348,-1.46204161644,0.457396954298,-0.944292545319,-0.280664712191,-0.970304250717,0.173813462257
2017/07/09/09:34:52.930145,247759,1499564095,729343325,,0.715155525491,-0.0663069797782,0.221732778705,0.806341885856,0.578516469496,-0.105548513662,0.0631741157426,-8.24662869782e-05,0.00519603830724,-0.00232737965488,0.0246651258274,-0.00109065819525,-0.0318943641582,-1.40459811687,0.788011372089,-1.34552943707,-0.34120246768,-0.977974891663,0.166213467717
2017/07/09/09:34:52.939890,247760,1499564095,739354903,,0.715249892143,-0.0668924012772,0.221815510972,0.806718854184,0.578001282479,-0.105408473109,0.0633108328288,0.00560588896003,-0.0104439752529,0.00157183380566,0.000568181752092,-0.0193749318692,-0.0228912830933,-1.50385463238,0.20654708147,-0.721376955509,-0.292182087898,-1.0185085535,0.157460659742
2017/07/09/09:34:52.949990,247761,1499564095,749344160,,0.715471716405,-0.0661239894461,0.221681748133,0.806388529059,0.578482067205,-0.105382746471,0.063170522157,0.0103881673784,-0.00728087677334,0.00416192694899,-0.00749268009103,-0.0138284355975,-0.00324476802516,-1.06220328808,0.609831869602,-1.32028388977,-0.306534141302,-0.855443775654,0.165792629123
2017/07/09/09:34:52.959818,247762,1499564095,759353764,,0.715287624356,-0.0666458315366,0.221893424823,0.806353817494,0.578423619667,-0.105809904145,0.0634342289971,0.00538566443924,0.005161112326,-0.0016245908664,0.000605430849167,0.00281204088072,0.00737208662712,-1.59889948368,0.499460071325,-0.658831894398,-0.284345030785,-1.02108120918,0.172172084451
