time,.header.seq,.header.stamp.secs,.header.stamp.nsecs,.header.frame_id,.pose.position.x,.pose.position.y,.pose.position.z,.pose.orientation.x,.pose.orientation.y,.pose.orientation.z,.pose.orientation.w,.twist.linear.x,.twist.linear.y,.twist.linear.z,.twist.angular.x,.twist.angular.y,.twist.angular.z,.wrench.force.x,.wrench.force.y,.wrench.force.z,.wrench.torque.x,.wrench.torque.y,.wrench.torque.z
2017/07/09/09:33:40.189350,240485,1499564022,988870317,,0.81680456283,0.499498087167,0.250192968802,0.633490423124,0.763857805417,0.0799684820076,0.0938945088858,0.115300416548,-0.358360375974,-0.0180484710332,-0.0080584049696,0.00895030996793,-0.477559945881,1.11250972748,0.50469738245,1.22040855885,-0.0854782983661,0.615074515343,-0.151344627142
2017/07/09/09:33:40.199338,240486,1499564022,998850145,,0.817762734343,0.497054354427,0.249680888407,0.635052340594,0.762558714786,0.0801855072891,0.0937177444878,0.104510330129,-0.379030203823,-0.0264214666573,-0.029679360766,0.0377452931485,-0.49599387126,0.675999701023,0.611712992191,1.1664583683,-0.198388010263,0.470645934343,-0.204192265868
2017/07/09/09:33:40.209448,240487,1499564023,8860761,,0.819036790439,0.49291839262,0.250180841837,0.637135874302,0.760765919026,0.0798636538842,0.0944187000284,0.11595703457,-0.360978154294,-0.00229690366793,0.0109482756512,-0.00800220322058,-0.486096528592,-0.219991847873,0.285289436579,0.81129181385,-0.019415602088,0.120110183954,-0.149431541562
2017/07/09/09:33:40.219329,240488,1499564023,18842722,,0.819425984189,0.489889128353,0.249584041904,0.638586653031,0.759683008642,0.0792951899024,0.093814102397,0.108270880329,-0.351320245682,-0.00716802532007,0.0165415287165,0.000437050205896,-0.465079121707,-0.264386177063,0.0258636623621,0.866028726101,0.0454679578543,0.151843056083,-0.132570624352
2017/07/09/09:33:40.229410,240489,1499564023,28843170,,0.821258336202,0.48686400861,0.25001069859,0.640170819966,0.758170785961,0.0799094829037,0.0947251556973,0.0960166517704,-0.348571060135,-0.000671644370644,0.0217370296994,0.00906116284559,-0.456904826535,-0.388146102428,0.13848271966,0.856944084167,-0.036131426692,0.0885637775064,-0.198984354734
2017/07/09/09:33:40.239491,240490,1499564023,38849018,,0.82177484712,0.483420670829,0.249549676262,0.641734475188,0.756967280861,0.0791713512056,0.0943890682695,0.0909011637851,-0.343130280292,-0.0150906028433,0.0116075553816,0.0300521511436,-0.434762830422,0.0994280427694,0.369249820709,1.11028718948,-0.147144109011,0.32970303297,-0.201415926218
2017/07/09/09:33:40.249434,240491,1499564023,48842527,,0.822682457914,0.480473016151,0.249717518553,0.642923635663,0.755928799191,0.0795954798551,0.0942624466353,0.0919454357784,-0.34295355848,-0.0124813124018,0.0134689594054,0.0195411431247,-0.43849974063,0.629106581211,0.461195647717,1.23824846745,-0.21848423779,0.571502268314,-0.241050750017
2017/07/09/09:33:40.259535,240492,1499564023,58849141,,0.824025947537,0.475984603481,0.249816966037,0.645216952545,0.753934149974,0.0789279681435,0.0951249572721,0.0992549236462,-0.355313552723,-0.00179803562309,0.0109286838696,-0.00800873389258,-0.464784117792,0.917419373989,0.671727061272,1.2033867836,-0.311449348927,0.668270945549,-0.301544845104
2017/07/09/09:33:40.269513,240493,1499564023,68845580,,0.824741850983,0.472543850525,0.249022613324,0.646673707684,0.752766517719,0.0783177807984,0.0949842660813,0.0830275637467,-0.385219889017,-0.0241937911473,-0.0509483107025,0.0432456443909,-0.469963885214,0.693653583527,0.568052530289,1.12879812717,-0.313520550728,0.555070459843,-0.316746652126
2017/07/09/09:33:40.279385,240494,1499564023,78847749,,0.825582995963,0.469392968284,0.249606819953,0.64862561086,0.751039792662,0.0784393829938,0.0952434248139,0.0960911650982,-0.37492654056,-0.0179985279714,-0.0218946425963,0.0144450830586,-0.482516020733,0.752896547318,0.692120015621,1.01244151592,-0.382018744946,0.58134162426,-0.361664533615
2017/07/09/09:33:40.289585,240495,1499564023,88846948,,0.826221585381,0.465966117157,0.248761750213,0.649957771163,0.749991459475,0.0778763393406,0.0948840460254,0.0909370802637,-0.371421755084,-0.0133423367925,0.00188070205089,0.0243412523314,-0.462752209845,1.11541438103,0.810414791107,1.07858562469,-0.426198214293,0.727869808674,-0.364398360252
2017/07/09/09:33:40.299676,240496,1499564023,98847300,,0.827566073697,0.462511740515,0.249445519815,0.651532519506,0.748512589017,0.0780508952507,0.0956155733081,0.0917880114896,-0.366163010601,-0.00553339969275,0.000785750149494,0.0103180609344,-0.441785633448,0.871732831001,0.596062541008,1.14814960957,-0.340946406126,0.708772301674,-0.364466518164
2017/07/09/09:33:40.309971,240497,1499564023,108852673,,0.828455967797,0.459060101279,0.249174147242,0.653033868978,0.747201829712,0.0778315683342,0.0958041680397,0.100917609153,-0.346893910026,0.00798235387427,0.0108520617934,-0.0395336816056,-0.404031692753,0.84311413765,0.597065448761,1.13746881485,-0.32037705183,0.728360414505,-0.329476594925
2017/07/09/09:33:40.319488,240498,1499564023,118845134,,0.829102529944,0.457077635654,0.249263179861,0.653865310708,0.746466439866,0.0781273265636,0.0956249467999,0.0940302438685,-0.321439235867,0.00859846886197,0.00826045888265,-0.0367088410688,-0.365644775011,1.22665476799,0.978458285332,1.25268220901,-0.549963414669,0.871405780315,-0.435932099819
2017/07/09/09:33:40.329602,240499,1499564023,128841683,,0.829952586723,0.452735379749,0.248632158487,0.655949510373,0.744716338257,0.0771992123195,0.0957501801111,0.0874658402692,-0.350531531702,-0.0097409355899,-0.0226127127105,-0.00133564024647,-0.380940907785,1.18865060806,0.710609436035,1.17093551159,-0.418168336153,0.861973106861,-0.354131817818
2017/07/09/09:33:40.339483,240500,1499564023,138849637,,0.831183112912,0.448283891512,0.249045742322,0.657246269696,0.743492587113,0.076974020349,0.0965459168958,0.0869784212087,-0.369071251182,-0.0034295245326,-0.0268198525388,0.0104232161941,-0.398358774987,1.42344260216,0.640538692474,0.980827510357,-0.407918691635,0.868184447289,-0.358885765076
2017/07/09/09:33:40.349353,240501,1499564023,148842824,,0.831973231846,0.444922713641,0.248900380267,0.658235821055,0.742628344607,0.0767573402231,0.0966284450267,0.0956277405723,-0.376655607768,0.0031656557259,-0.00982602145527,-0.0134856348958,-0.39810986407,0.66862231493,0.419479966164,0.825470328331,-0.352432221174,0.574087023735,-0.352534860373
2017/07/09/09:33:40.359347,240502,1499564023,158843654,,0.832989491273,0.44175567634,0.249490877046,0.659183476283,0.741694854192,0.0769352834338,0.0971949073978,0.0912226527112,-0.361133613414,0.00368482417605,-0.0424368236581,-0.0244857853544,-0.299671168496,0.731038928032,0.447730481625,0.837168812752,-0.315706133842,0.620567381382,-0.304575055838
2017/07/09/09:33:40.369374,240503,1499564023,168847215,,0.833066152042,0.438695296673,0.248347893961,0.660202401637,0.740988279927,0.0760548280721,0.0963577760782,0.084728782237,-0.376738962763,-0.0157533098146,-0.0490180417624,0.0146332073201,-0.298790970209,0.742846727371,0.623399972916,0.842110097408,-0.382796347141,0.607628464699,-0.313964724541
2017/07/09/09:33:40.379544,240504,1499564023,178846982,,0.834202214557,0.43468600804,0.248765179412,0.661552908227,0.739715870761,0.0758914273769,0.0969983062278,0.0723864964377,-0.356561374149,-0.0144867538133,-0.0521436190035,0.0288680411671,-0.282320484211,1.01453828812,0.651780426502,0.796511948109,-0.409842699766,0.658376336098,-0.308007657528
2017/07/09/09:33:40.389293,240505,1499564023,188848558,,0.835231453497,0.431239894314,0.249232167223,0.662026093006,0.739202393772,0.0756157968557,0.0978954773507,0.0715255263152,-0.367908203938,-0.00791170127491,-0.054048846679,0.0274880863741,-0.284730845436,0.72276955843,0.480353593826,0.655166447163,-0.287918508053,0.453747689724,-0.228792831302
2017/07/09/09:33:40.399431,240506,1499564023,198842738,,0.83574901902,0.428340657825,0.248825148203,0.663012722457,0.738392408229,0.0755934694082,0.0973468474707,0.0794539176257,-0.369520454034,0.00293186177761,-0.0555195511556,0.00493570195184,-0.251130953829,1.03727245331,0.513778269291,0.739897966385,-0.336415976286,0.541145324707,-0.227552518249
2017/07/09/09:33:40.409458,240507,1499564023,208847021,,0.836336962664,0.424198222829,0.24848528447,0.66406976213,0.737497878547,0.0744670877538,0.0977899944038,0.0832518273606,-0.377465251026,0.00746396737257,-0.0674935123358,-0.00928151251755,-0.238675212716,0.963088989258,0.410254061222,0.720643162727,-0.263701528311,0.509397923946,-0.188791170716
2017/07/09/09:33:40.419493,240508,1499564023,218852996,,0.837219603452,0.420816444778,0.248565163449,0.66504191719,0.736581379585,0.0743382226011,0.0981883307207,0.073744612872,-0.364135389267,-0.00221109928366,-0.0527116780568,0.00875151750016,-0.278720566172,1.15235710144,0.502391338348,0.849905192852,-0.300031006336,0.58435946703,-0.199439942837
2017/07/09/09:33:40.429273,240509,1499564023,228844117,,0.837732046695,0.417593836039,0.248482628506,0.666130030192,0.735616749026,0.0741371132191,0.0981960787035,0.0760113734356,-0.368631924246,-0.0102705545479,-0.0630496446259,0.0120734757483,-0.293453444955,1.3516947031,0.466049313545,0.943115115166,-0.285457640886,0.679489135742,-0.180341213942
2017/07/09/09:33:40.439512,240510,1499564023,238846755,,0.838644565267,0.41323436533,0.248673747434,0.667580638816,0.734289035851,0.073774862857,0.0985544119643,0.068070297913,-0.368101488635,-0.0130659047295,-0.0281560364912,0.0274792785934,-0.340740586699,1.27150285244,0.366345643997,0.992218673229,-0.204233214259,0.6865914464,-0.145355969667
2017/07/09/09:33:40.449574,240511,1499564023,248852042,,0.839080783752,0.410586822656,0.248214478882,0.66852649857,0.733485763993,0.0734348614668,0.098378228547,0.0686677011743,-0.387521000883,-0.00581771295515,-0.0474861439656,0.0153992963448,-0.365958436881,0.758671343327,0.553224384785,0.97565984726,-0.363208293915,0.457429051399,-0.223789006472
2017/07/09/09:33:40.459567,240512,1499564023,258852426,,0.839508193264,0.405660675567,0.247469050656,0.670882607157,0.731432675321,0.0721606330383,0.0985678036987,0.0672083202054,-0.372905267044,-0.0145884124157,-0.0289952310399,0.0183009467296,-0.390630856319,0.402720868587,0.279394209385,0.955262720585,-0.223830759525,0.379914671183,-0.182336449623
2017/07/09/09:33:40.469218,240513,1499564023,268849931,,0.841021267901,0.402515165199,0.248908437445,0.6722797499,0.729911250278,0.0732326102244,0.099531348787,0.070203851803,-0.375696533165,-0.00688373105327,-0.0163157286338,0.00213266131483,-0.431841413368,0.443240940571,0.284503340721,0.959067881107,-0.215608581901,0.415854841471,-0.185418441892
2017/07/09/09:33:40.479532,240514,1499564023,278846285,,0.841213016089,0.399040182255,0.24800934031,0.673844445676,0.72860054841,0.0724902594381,0.099096247026,0.0738252478472,-0.36791570893,0.00940915508722,0.00823453448885,-0.026275605551,-0.459244963037,0.373413950205,0.273948729038,1.04207026958,-0.248544454575,0.40633225441,-0.177027285099
2017/07/09/09:33:40.489740,240515,1499564023,288850026,,0.842162667549,0.395459339247,0.24839023437,0.674606610258,0.727838514528,0.0725231277035,0.0994857482995,0.069314524151,-0.374188832517,-0.00924964019343,-0.0258269276856,-0.00382517361056,-0.392779301217,0.268126010895,0.278721690178,1.0527266264,-0.236534878612,0.341477513313,-0.158428519964
2017/07/09/09:33:40.499346,240516,1499564023,298850232,,0.842513634291,0.392135938485,0.247730778204,0.675151110872,0.727401544019,0.0716761646856,0.0996017000998,0.0652031253484,-0.367125217533,0.00695557733063,-0.0421083130549,0.000105045574347,-0.283938468979,-0.135084271431,0.143575921655,1.04302501678,-0.157502412796,0.174308508635,-0.131727159023
2017/07/09/09:33:40.509331,240517,1499564023,308846248,,0.842925475345,0.387968572357,0.247738246485,0.676249348348,0.726425925455,0.0711164236649,0.0996727042378,0.0472508252445,-0.384635292313,-0.0199481190284,-0.0684548981523,0.060466419092,-0.252618353536,-0.239369660616,0.0115983188152,0.92429548502,-0.112094186246,0.110839344561,-0.130514919758
2017/07/09/09:33:40.519538,240518,1499564023,318841167,,0.843539763788,0.38383477641,0.248169239964,0.676437953493,0.726236145102,0.0705807450383,0.10015545443,0.0488926615529,-0.402559613079,-0.015847148647,-0.0965103537442,0.0581321368888,-0.204666802691,0.0981767624617,0.187383264303,1.07983410358,-0.18661095202,0.253067612648,-0.151345700026
2017/07/09/09:33:40.529346,240519,1499564023,328848736,,0.844322857051,0.380223138515,0.247936757978,0.676819804763,0.725862769447,0.0703637655117,0.100434716678,0.0584877371966,-0.384415936678,-0.0105803945674,-0.0742873082412,0.0276195528467,-0.126845683711,-0.0629815980792,0.1195410043,1.19210660458,-0.197313323617,0.234810963273,-0.159050002694
2017/07/09/09:33:40.539787,240520,1499564023,338849439,,0.845021338818,0.377098473658,0.248289227766,0.677067203995,0.72555982669,0.0702950200386,0.101002719394,0.0527390862987,-0.366071085793,-0.0138060356854,-0.0869658912194,0.0203790903649,-0.0770238003265,-0.0727727487683,0.0398138314486,1.2372251749,-0.0867766812444,0.27843478322,-0.111569836736
2017/07/09/09:33:40.549449,240521,1499564023,348863440,,0.84529538359,0.373080703405,0.24803755571,0.677868496018,0.724875405733,0.0695034607362,0.101090144001,0.0705278856311,-0.368173550691,0.00834060673054,-0.0606266289773,-0.0286311595413,-0.142821790693,-0.39464610815,-0.081818766892,1.14038681984,-0.104037858546,0.119107589126,-0.127867549658
2017/07/09/09:33:40.559429,240522,1499564023,358847379,,0.845860629829,0.369615044348,0.247711843895,0.678747774212,0.724075203665,0.0690651817648,0.101225288874,0.0597534076822,-0.423241025226,-0.00247095300362,-0.0928110692171,0.0138566433408,-0.248890441242,0.00505211949348,0.199163109064,1.07914555073,-0.21900638938,0.270832926035,-0.165215849876
2017/07/09/09:33:40.569396,240523,1499564023,368842904,,0.846521629916,0.366195688986,0.247611800983,0.680230257506,0.722694415627,0.0692425186462,0.101020057449,0.0563569259926,-0.380085957271,-0.000168070000767,-0.0583992649535,0.0035374200606,-0.262853723938,0.197537332773,0.299017339945,0.995771944523,-0.223375663161,0.347933650017,-0.157829940319
2017/07/09/09:33:40.579590,240524,1499564023,378849348,,0.847114606637,0.36206160479,0.247632941125,0.68096608469,0.721970423526,0.0685880112557,0.101683743873,0.0500583343152,-0.371223733992,0.00466002600433,-0.0390148112581,0.0115223902486,-0.284524430998,0.463393181562,0.198242813349,0.751715481281,-0.157244995236,0.420026928186,-0.113812640309
2017/07/09/09:33:40.589629,240525,1499564023,388842082,,0.847938823792,0.358587256751,0.24818209187,0.681122507297,0.721723819631,0.0686805098793,0.102322264408,0.042860468467,-0.376798764446,-0.0118067193057,-0.0602058273481,0.0356003235808,-0.222669596764,1.29169940948,0.523174643517,0.527560532093,-0.281368255615,0.688999056816,-0.198577776551
2017/07/09/09:33:40.599635,240526,1499564023,398841865,,0.847571363085,0.355304832224,0.247487444791,0.682110743645,0.720953940023,0.0674002879134,0.102017405178,0.0498977728445,-0.377837187512,-0.00248219490392,-0.0704738653547,0.00443188091406,-0.216343483805,1.14689016342,0.467437982559,0.291533857584,-0.262165129185,0.62006264925,-0.266293108463
2017/07/09/09:33:40.609559,240527,1499564023,408879893,,0.848195409053,0.350842797165,0.24726095621,0.683896707738,0.719261129775,0.0671062137847,0.102203113512,0.0460754846215,-0.409906275539,-0.00878402372641,-0.041372647887,0.0234510297091,-0.347972122089,1.86063039303,0.658418178558,0.393092215061,-0.317353367805,0.929281115532,-0.28032875061
2017/07/09/09:33:40.619524,240528,1499564023,418859187,,0.849353814123,0.34805933124,0.247867532163,0.684824449464,0.718243140869,0.068124467645,0.102475952885,0.0629285842861,-0.432251841769,-0.00284084113933,-0.0272288638619,-0.0175737544174,-0.428423258126,1.3857998848,0.304210931063,0.520706236362,-0.184588357806,0.805369615555,-0.193399876356
2017/07/09/09:33:40.629454,240529,1499564023,428841600,,0.849331522392,0.34362650389,0.247162641341,0.68651587741,0.716736888558,0.0669713940208,0.102464701368,0.0552540319993,-0.39753937613,-0.00310484998468,-0.00469361130975,-0.0203058163496,-0.409422347529,1.54485595226,0.490975737572,0.771268904209,-0.369053155184,0.897093653679,-0.298346042633
2017/07/09/09:33:40.639370,240530,1499564023,438848513,,0.850052596319,0.33949088135,0.247241469005,0.687981588613,0.715269602285,0.066965968055,0.102889692869,0.032000547576,-0.366763382008,-0.0275005228809,0.0156781647463,0.0334846353201,-0.385447030439,1.2445371151,0.365119934082,0.736029028893,-0.276541054249,0.769447207451,-0.235872268677
2017/07/09/09:33:40.649285,240531,1499564023,448849023,,0.850329846557,0.33628521994,0.246894672734,0.68909451686,0.714221278792,0.0666619855496,0.10292177339,0.0386425810901,-0.388070947723,-0.00220396658926,-0.0186318200856,0.00759129154752,-0.373385676392,0.832060158253,0.366526484489,0.633199870586,-0.346240162849,0.598198711872,-0.283683001995
2017/07/09/09:33:40.659515,240532,1499564023,458846118,,0.85029195676,0.33297095805,0.246698158622,0.69049182282,0.712973960432,0.0665164806369,0.102297273514,0.031264575539,-0.387524443723,-0.00995438774226,-0.0246981012103,0.0238539472797,-0.373615833372,0.686016261578,0.351732850075,0.755091011524,-0.39263650775,0.516515731812,-0.274869829416
2017/07/09/09:33:40.669549,240533,1499564023,468841650,,0.850423553585,0.329186720096,0.246910929289,0.691549969957,0.711957279845,0.0658333178425,0.102671539342,0.0254635539638,-0.381619365881,-0.0155989896356,-0.0150350667946,0.0348905726051,-0.37863877937,0.70513176918,0.5872631073,0.722495853901,-0.472034752369,0.50619995594,-0.344095498323
2017/07/09/09:33:40.679373,240534,1499564023,478847818,,0.851224634672,0.325245417903,0.247155878779,0.692955429083,0.710482806104,0.0658365233867,0.103404582697,0.0365640553244,-0.404462530593,6.51202175897e-05,-0.0279896276943,0.000919432008845,-0.395165927131,0.325532764196,0.315014004707,0.629794359207,-0.355327367783,0.324313789606,-0.297556012869
2017/07/09/09:33:40.689716,240535,1499564023,488846355,,0.85146244252,0.321427640974,0.246901566802,0.694393821128,0.709124411078,0.065578574373,0.103243602106,0.0358170466934,-0.387772920473,-0.00477698782626,-0.0338609196088,-0.000528650420582,-0.347355140511,0.398185312748,0.357267439365,0.715531110764,-0.342059403658,0.337036848068,-0.321998327971
2017/07/09/09:33:40.699538,240536,1499564023,498846530,,0.851413289879,0.317327443869,0.246539630079,0.695397640157,0.708240793393,0.0647504819482,0.10307509751,0.0268575635641,-0.370040131105,-0.0101359737877,-0.0171972172213,0.0237614056461,-0.320891530866,1.45852220058,0.43334633112,0.796590864658,-0.365468293428,0.749353170395,-0.361943483353
2017/07/09/09:33:40.709545,240537,1499564023,508842190,,0.852145562118,0.313363005771,0.246664941193,0.696793933996,0.706763076686,0.0648323023939,0.103734948529,0.0355185493983,-0.390778503446,-0.00557551516196,-0.0171643705966,-0.00459386198746,-0.352897705656,2.16185808182,0.490613102913,0.724657058716,-0.46099293232,0.997613191605,-0.395393908024
2017/07/09/09:33:40.719553,240538,1499564023,518853732,,0.852200207618,0.310258807219,0.246544344178,0.697390130233,0.706209451475,0.0645214083702,0.103692838533,0.0224980669779,-0.39442265631,-0.00551086782759,-0.0296809599746,0.0164507913877,-0.326397060531,2.76336717606,0.547836124897,0.649292230606,-0.481515228748,1.2448362112,-0.408824801445
2017/07/09/09:33:40.729702,240539,1499564023,528848183,,0.852452598724,0.306796196606,0.246287141519,0.698138856756,0.705513633296,0.0640704564991,0.103670760221,0.0228485446621,-0.389797233004,-0.0122160154671,-0.0163546970283,0.0241428275525,-0.30529667717,2.25592970848,0.705483675003,0.473042607307,-0.564698636532,1.03444087505,-0.408757925034
2017/07/09/09:33:40.739517,240540,1499564023,538849708,,0.852583791868,0.303276433026,0.246032323896,0.699027299733,0.704680723464,0.0637780033931,0.103529119038,0.0174380950463,-0.382252498448,-0.0296010898072,-0.0217267534797,0.057274332859,-0.260231383204,2.60356259346,0.641346096992,0.441580295563,-0.621859192848,1.16037023067,-0.454969525337
2017/07/09/09:33:40.749549,240541,1499564023,548841979,,0.852825006472,0.299388004077,0.245530533525,0.699843352184,0.703903995818,0.0632971346196,0.10359497973,0.0197856976513,-0.363687665307,-0.0230694536918,-0.0154435960292,0.0412943270276,-0.217324660521,1.79523563385,0.613177478313,0.46591168642,-0.679821312428,0.861106753349,-0.48867970705
2017/07/09/09:33:40.759677,240542,1499564023,558845936,,0.852747149885,0.295496485372,0.245328098625,0.700441343709,0.703334702325,0.0627169813393,0.103772832572,0.0102472190357,-0.357502018992,-0.0263285183206,-0.0203677194608,0.0545892125285,-0.184665567895,1.07188534737,0.506942749023,0.611482024193,-0.704622387886,0.591953456402,-0.495470941067
2017/07/09/09:33:40.769509,240543,1499564023,568845297,,0.852740271183,0.291753299291,0.245441938006,0.701264810759,0.702571325375,0.0624346882339,0.103552439168,0.0140427807567,-0.372765152273,-0.0148091026893,-0.0420408050994,0.0343694889837,-0.159291430987,1.24792969227,0.546393811703,0.695254743099,-0.733940422535,0.669234097004,-0.499981760979
2017/07/09/09:33:40.779495,240544,1499564023,578842019,,0.852887351599,0.28944591791,0.244993495894,0.70077030942,0.703091273302,0.0620425611778,0.103606734548,-0.000159278631202,-0.389012529104,-0.027114794788,-0.0699999059614,0.0694492471954,-0.133615431622,1.45384001732,0.553310990334,0.805161297321,-0.707071661949,0.739953398705,-0.470516264439
2017/07/09/09:33:40.789530,240545,1499564023,588847664,,0.8526560242,0.285558957464,0.244557172838,0.701293848795,0.702677854539,0.061434177632,0.103230868453,0.00102464789675,-0.348251542136,-0.0236475420153,-0.0530622716207,0.0685378397165,-0.0770719859201,2.20829391479,0.824979245663,0.882829964161,-0.822596251965,1.01250636578,-0.532744646072
2017/07/09/09:33:40.799314,240546,1499564023,598878854,,0.853128497842,0.282005379357,0.245144129176,0.701372942904,0.702500638101,0.0612387934724,0.104012780968,-0.00645208626963,-0.35756950214,-0.0297046250702,-0.0812202086754,0.0899653653841,-0.0385702544928,2.65829014778,0.657160758972,0.78308981657,-0.712631702423,1.16740345955,-0.465858668089
2017/07/09/09:33:40.809545,240547,1499564023,608843242,,0.852388785745,0.279859099692,0.243736137706,0.700751407555,0.703360816426,0.0604074591469,0.102868681362,0.00469930773067,-0.34634061146,-0.0242200934429,-0.0755071038628,0.0606659279492,-0.0126720373536,1.78049409389,0.539594888687,0.642906069756,-0.665220439434,0.760900139809,-0.425870060921
2017/07/09/09:33:40.819515,240548,1499564023,618845283,,0.852981628137,0.275563877422,0.244357182484,0.700964884859,0.703037446039,0.0599770057231,0.103871740363,-0.0175776113227,-0.353473931593,-0.0521349731761,-0.0970674949525,0.129868755302,0.0325409919519,1.74810540676,0.729738354683,0.652197599411,-0.791637480259,0.746581614017,-0.504787683487
2017/07/09/09:33:40.829350,240549,1499564023,628844133,,0.852552814059,0.272522106784,0.243105471723,0.700607619083,0.703552515848,0.0590463413179,0.103326429837,-0.011868220174,-0.342873694861,-0.0403079739498,-0.0994399475458,0.104821403353,0.0564088765949,1.12965095043,0.53744405508,0.849758505821,-0.646301329136,0.52173691988,-0.396233052015
2017/07/09/09:33:40.839571,240550,1499564023,638846589,,0.852453147725,0.26898621935,0.243211841186,0.700693104818,0.703508304041,0.0585260467799,0.103343799305,-0.0192654939688,-0.328057702584,-0.0418240108552,-0.102637493415,0.119925241945,0.102017500586,1.04838550091,0.557914555073,1.07647621632,-0.660481333733,0.532487988472,-0.430383890867
2017/07/09/09:33:40.849294,240551,1499564023,648845449,,0.852780192471,0.266095478668,0.242698096091,0.699664396757,0.704530669879,0.058165119503,0.103552334514,-0.0128792488645,-0.325766741142,-0.0554352238246,-0.0994268055124,0.114387624836,0.14010915885,1.45819401741,0.31177982688,1.15941417217,-0.568325519562,0.713749110699,-0.365891575813
2017/07/09/09:33:40.859339,240552,1499564023,658842133,,0.852488785942,0.262553589393,0.241814029209,0.699252931973,0.705056533308,0.0569682791609,0.103417779589,-0.000355392102402,-0.331594819979,-0.0359766829522,-0.103530082437,0.0824720071471,0.148742354527,1.67595219612,0.286981254816,0.977925777435,-0.505265653133,0.752837538719,-0.326276600361
2017/07/09/09:33:40.869493,240553,1499564023,668840832,,0.852131726135,0.259564878599,0.241919015394,0.698494257582,0.705855279103,0.0562123040024,0.103509777151,-0.0136126417175,-0.325563507634,-0.0484755671741,-0.107508160548,0.118349593581,0.171678051498,1.93555235863,0.322151899338,0.571859180927,-0.511218011379,0.763794898987,-0.299829512835
2017/07/09/09:33:40.879861,240554,1499564023,678842293,,0.851860459526,0.256700253759,0.240587654664,0.69776387,0.706719233735,0.0555419821175,0.102900897056,-0.0228541570487,-0.332785158101,-0.0533136383734,-0.105293096241,0.142579983356,0.180748975514,2.07923269272,0.564850449562,0.521595776081,-0.656263709068,0.776523530483,-0.349092721939
2017/07/09/09:33:40.889735,240555,1499564023,688842943,,0.852195459692,0.254032558483,0.24071806289,0.696983952291,0.707479043007,0.0554440805323,0.103018094961,-0.0205434741723,-0.343729476076,-0.0616869224814,-0.117023252227,0.143414794271,0.196215753142,1.88753378391,0.548304736614,0.325408130884,-0.690127313137,0.662812650204,-0.338589996099
2017/07/09/09:33:40.899312,240556,1499564023,698842261,,0.851629480005,0.250183981906,0.239813849391,0.696501736221,0.708072758905,0.0539359964848,0.103001008831,-0.0211065064674,-0.297902943104,-0.0559798505117,-0.116340960044,0.139534960275,0.256791890423,1.9353826046,0.279710412025,0.386943876743,-0.588798642159,0.684923291206,-0.284244120121
2017/07/09/09:33:40.909407,240557,1499564023,708840964,,0.851270960568,0.246784209528,0.239021999172,0.695816372322,0.708871170932,0.0530702161529,0.102590404943,-0.0184882817134,-0.316858081284,-0.06015336212,-0.107450004958,0.125437682632,0.213512140875,2.68438529968,0.424900859594,0.744004607201,-0.607509791851,1.02671778202,-0.315471172333
2017/07/09/09:33:40.919390,240558,1499564023,718842450,,0.85146115598,0.245341554201,0.238871954113,0.694561415956,0.710094566872,0.0532397647411,0.102545955626,-0.0247575707569,-0.31320317326,-0.0644797839962,-0.0930069846317,0.135381768896,0.204342012013,2.27255129814,0.390017211437,0.78473764658,-0.560513198376,0.873492121696,-0.264622122049
2017/07/09/09:33:40.929670,240559,1499564023,728841760,,0.851511087062,0.241831346587,0.238819175449,0.694321673669,0.710320685968,0.0527671883903,0.102847267293,-0.0171359137033,-0.290321749049,-0.0478692638265,-0.0970356974765,0.100316259348,0.225378009408,2.00523161888,0.327606469393,0.834186375141,-0.504690468311,0.790048122406,-0.241693139076
2017/07/09/09:33:40.939414,240560,1499564023,738847575,,0.850877670406,0.238346430699,0.237548479992,0.694581392511,0.710258558178,0.0517976465183,0.102012124418,-0.0187708199568,-0.318974584404,-0.0511263808077,-0.0936269522215,0.107675936462,0.156283149988,1.31479763985,0.183698311448,0.64058983326,-0.390250772238,0.514930307865,-0.190903514624
2017/07/09/09:33:40.949506,240561,1499564023,748846815,,0.85052472671,0.235789030074,0.237367637264,0.694011625786,0.710858179658,0.0510015277606,0.102114425298,-0.018816497028,-0.312657721955,-0.0661597065929,-0.0799042457571,0.117806154,0.0999647454126,0.618929564953,0.313495755196,0.454997748137,-0.451113522053,0.254546046257,-0.184137016535
2017/07/09/09:33:40.959679,240562,1499564023,758849212,,0.850682746349,0.232067775267,0.236691988599,0.693994674272,0.710871194701,0.0506183452203,0.102329466693,-0.0224629623573,-0.308193382649,-0.0554096489414,-0.0852756608969,0.111012320061,0.0636125945127,-1.58977746964,-2.63098692894,-0.411278158426,0.0301327928901,-0.534863352776,-0.058812443167
2017/07/09/09:33:40.969398,240563,1499564023,768843886,,0.850384048283,0.229479480356,0.235776992077,0.693689426765,0.711275687904,0.0501916702622,0.101797206384,-0.0257172333951,-0.332885949731,-0.0655086572163,-0.0863893582816,0.102119236316,0.0297559286972,-2.24550080299,-2.00036120415,0.0380589589477,-0.0643407255411,-0.766372442245,-0.0441284477711
2017/07/09/09:33:40.979387,240564,1499564023,778844520,,0.850513260409,0.227005088664,0.23511683939,0.693140195526,0.711852216174,0.0499533074687,0.101625581167,-0.0201433118965,-0.272901774063,-0.0705377324187,-0.02281438527,0.105732237707,0.10962760928,-1.55513119698,-1.20447075367,0.446880638599,-0.0891468524933,-0.422619998455,-0.0109357237816
2017/07/09/09:33:40.989416,240565,1499564023,788848314,,0.849921166308,0.224046711699,0.234076353852,0.692848832776,0.712277231631,0.0491837978684,0.101007892008,-0.0149927365447,-0.286842128776,-0.0701934362785,-0.024183856631,0.0974623955614,0.10554713288,-1.94958460331,-1.46843671799,0.351234167814,0.245647937059,-0.464084386826,0.136536493897
2017/07/09/09:33:40.999450,240566,1499564023,798846352,,0.849330854252,0.221546980696,0.233140137149,0.692177385926,0.713079349763,0.0484284248879,0.100314480601,-0.023051980971,-0.308781862583,-0.0701804867328,-0.0490960102624,0.115449343905,0.115531198061,-2.41877818108,-0.983196079731,-0.0494382344186,0.288423776627,-0.589687287807,0.142914682627
2017/07/09/09:33:41.009552,240567,1499564023,808843652,,0.849805450677,0.218871019837,0.232991024731,0.692025815974,0.713173406598,0.0486109978978,0.100602848021,-0.0213695499827,-0.276617311573,-0.0797813041669,-0.028298237828,0.118557094286,0.132092635186,-2.86393141747,-1.58350491524,0.205006435513,0.314321011305,-0.789248108864,0.138836786151
2017/07/09/09:33:41.019429,240568,1499564023,818848380,,0.849382763679,0.216510226067,0.232238884379,0.69120233162,0.714081637335,0.047895777275,0.10016359869,-0.018224546566,-0.2808507522,-0.0756124480395,-0.020012582336,0.11341467794,0.111648979163,-2.68266940117,0.126757279038,0.0445701405406,-0.607555091381,-0.755875587463,-0.171009898186
2017/07/09/09:33:41.029692,240569,1499564023,828846679,,0.849104981787,0.213524491079,0.231423184451,0.691194548151,0.714199078935,0.0473330884764,0.0996461288269,-0.0262859572618,-0.245723483129,-0.0746924982084,-0.0162447269259,0.136675346495,0.17238071306,-2.42837762833,1.95616722107,-0.342742085457,-1.6142001152,-0.703297078609,-0.481288224459
2017/07/09/09:33:41.039462,240570,1499564023,838848453,,0.849013056862,0.211539142496,0.231175538967,0.690628757837,0.714783438573,0.0474436516117,0.0993260021993,-0.02838772676,-0.231231856712,-0.0732526580892,0.018814819275,0.139809241753,0.145523513194,-3.08682799339,2.45713639259,-0.657183289528,-1.87361717224,-1.03010082245,-0.465588510036
2017/07/09/09:33:41.049104,240571,1499564023,848847562,,0.848595730063,0.208435022398,0.230111384944,0.690787722157,0.714733980337,0.0465525017607,0.0989976002164,-0.021056375528,-0.261269757632,-0.0792036201372,0.0139141070804,0.121485392592,0.0707983153998,-2.62098169327,2.14327096939,-0.786158680916,-1.62111938,-0.839677274227,-0.373044669628
2017/07/09/09:33:41.059414,240572,1499564023,858845168,,0.84847294875,0.205997187128,0.228637590359,0.690825730209,0.714822651513,0.0461157625765,0.0982940680153,-0.0187055577178,-0.284257416072,-0.0630779933919,-0.0281665117925,0.0921645227951,0.0417571139951,-2.87661886215,0.668521225452,-1.35213649273,-0.854670107365,-0.952087700367,-0.0814330726862
2017/07/09/09:33:41.069541,240573,1499564023,868854489,,0.848051161347,0.203385361972,0.228532836182,0.690671153922,0.714995408088,0.0453614595662,0.0984746746085,-0.0230391537992,-0.329813305757,-0.0910317290352,-0.0720723071334,0.10817294437,-0.0364231081806,-3.59923005104,0.264328926802,-1.49197018147,-0.588176012039,-1.15301454067,-0.0688254386187
2017/07/09/09:33:41.079443,240574,1499564023,878846344,,0.847883652626,0.200159209767,0.227425107366,0.690622975771,0.715082554617,0.0447171978109,0.0984744517141,-0.0136767757992,-0.312366854676,-0.082836885293,-0.115442008801,0.0717633848973,-0.00688949068933,-3.72483539581,-0.297396123409,-0.982356727123,-0.440330982208,-1.06744110584,-0.0528917945921
2017/07/09/09:33:41.089544,240575,1499564023,888845883,,0.84843806182,0.196972100817,0.227073371019,0.690809806017,0.714779056997,0.044631647465,0.0994018492474,-0.00492484740967,-0.314268738751,-0.064935894482,-0.118795770114,0.031691234416,-0.0312931234398,-3.81668519974,-0.240863770247,-0.439426392317,-0.4873226583,-1.08684873581,-0.111803129315
2017/07/09/09:33:41.099207,240576,1499564023,898842547,,0.848278339319,0.195239479412,0.225983087726,0.69087337373,0.71482503499,0.0445707614946,0.0986539306936,-0.00699255943159,-0.289126136395,-0.0912779175283,-0.0512799195916,0.0532382770827,-0.043059499258,-4.29295110703,0.825680494308,-0.968633055687,-0.710234642029,-1.25986349583,-0.139191523194
2017/07/09/09:33:41.109235,240577,1499564023,908841521,,0.848590930617,0.191873925585,0.226098500465,0.691414306197,0.714181350757,0.0445940413919,0.0995119434506,-0.00882345688537,-0.270377445944,-0.0884879258267,-0.0343481248672,0.051941281983,-0.0698830727115,-4.25509929657,-0.168534606695,-0.131301030517,-0.427562266588,-1.26822400093,-0.0351688526571
2017/07/09/09:33:41.119431,240578,1499564023,918845936,,0.84787717357,0.189302911296,0.22443793251,0.69170027276,0.714073789696,0.0436838951812,0.0986968734775,-0.00953489665338,-0.30209864126,-0.0776492541509,-0.052133424997,0.0391272338566,-0.134734626862,-4.54223012924,0.499506622553,-1.0180478096,-0.550234973431,-1.49448502064,-0.0521877966821
2017/07/09/09:33:41.129678,240579,1499564023,928848297,,0.848298472594,0.186160242322,0.223878378791,0.692609216457,0.713116152786,0.043614995521,0.0992751634562,0.00315232287633,-0.301651925163,-0.0757460729812,-0.0480694757743,0.012345535653,-0.149601040388,-5.18935537338,0.130100309849,-1.10681724548,-0.406096667051,-1.86662900448,0.0260953009129
2017/07/09/09:33:41.139613,240580,1499564023,938849182,,0.848600242295,0.183473897087,0.223782575181,0.69279184121,0.712840036583,0.0436469163921,0.0999674631393,0.00175074393819,-0.275313999078,-0.0751112211543,-0.056754164861,0.00832090041394,-0.1153125949,-4.69594478607,0.138154014945,-1.0624525547,-0.465676367283,-1.75081121922,-0.017199665308
2017/07/09/09:33:41.149433,240581,1499564023,948866895,,0.848406594152,0.181069613498,0.222003174577,0.693427934232,0.712304678964,0.0432636420097,0.099538945307,0.00847728270076,-0.297094944126,-0.0796051754278,-0.0329394373315,-0.0122453329983,-0.177066112163,-4.97930574417,0.273780882359,-1.59257400036,-0.657464087009,-1.79597890377,-0.0989809855819
2017/07/09/09:33:41.159498,240582,1499564023,958852160,,0.848786321656,0.177679369792,0.221640452581,0.694447091738,0.71122349598,0.0433022158116,0.100146361137,0.0195282570557,-0.273424845794,-0.0895267678161,-0.0142080415291,-0.0355393715857,-0.17073565989,-4.81059074402,0.418071627617,-1.03644907475,-0.652795851231,-1.64077663422,-0.072972074151
2017/07/09/09:33:41.169520,240583,1499564023,968850220,,0.848878017595,0.176327412427,0.220254952874,0.694823721369,0.710887544609,0.0436912790103,0.0997495227112,0.0343230187215,-0.282285390252,-0.0872833173585,-0.00277712557549,-0.0795718139986,-0.221737880581,-6.4279589653,0.464254915714,-0.813376069069,-0.610185325146,-2.17127275467,-0.0087214820087
2017/07/09/09:33:41.179386,240584,1499564023,978847897,,0.849456173001,0.173550900119,0.22002877164,0.695972025791,0.709640714079,0.0442897266977,0.100356446466,0.0431782850684,-0.262982235332,-0.0663450332907,0.0359073354443,-0.119622337027,-0.247193473067,-6.87815904617,0.205769225955,-0.731636166573,-0.482901632786,-2.31438946724,0.0808880701661
2017/07/09/09:33:41.189577,240585,1499564023,988850800,,0.849839663973,0.171370660136,0.219232125928,0.696720349461,0.70887275516,0.0445150746419,0.100491690048,0.0268532376084,-0.258886963048,-0.091039352498,0.0431972463198,-0.0609071011678,-0.266382817278,-6.70436954498,0.0726493000984,-0.965121328831,-0.466833978891,-2.34377288818,0.063563555479
2017/07/09/09:33:41.199605,240586,1499564023,998843107,,0.850550366282,0.167853972897,0.21869837083,0.698198631754,0.707263528422,0.0448124095803,0.101433820436,0.0326381590478,-0.282474259404,-0.0814695201324,0.0287025172291,-0.0856086148399,-0.329257152072,-5.99936485291,0.390979915857,-1.39492022991,-0.644894897938,-2.28379964828,-0.0423205941916
2017/07/09/09:33:41.209450,240587,1499564024,8849810,,0.85007205942,0.165326882741,0.217426872967,0.69940872763,0.706175285694,0.0444459601019,0.100838753568,0.028302339476,-0.273479534881,-0.08048475999,0.026096880874,-0.0809077289717,-0.332645560818,-5.24132823944,0.210689648986,-2.09313631058,-0.633149087429,-2.02300930023,-0.04700184986
2017/07/09/09:33:41.219392,240588,1499564024,18846342,,0.85082287268,0.162319088671,0.216943222852,0.700818544274,0.704625650979,0.0449878756913,0.101647188963,0.0226559604533,-0.28551513747,-0.0851202527429,0.0409708246452,-0.0709710441617,-0.356690970722,-5.18191146851,0.316690474749,-2.1543431282,-0.799770772457,-2.02611374855,-0.133797198534
2017/07/09/09:33:41.229514,240589,1499564024,28841747,,0.850606132836,0.160519005976,0.215356328281,0.701666580507,0.703878640104,0.0451568945874,0.100894621642,0.0319034826143,-0.291298937545,-0.0808290180879,0.0410302797279,-0.0992250554316,-0.381146534989,-5.05196142197,1.01128327847,-1.982629776,-0.864677667618,-1.90594923496,-0.126992106438
2017/07/09/09:33:41.239894,240590,1499564024,38843389,,0.851645323245,0.158117015466,0.215470172184,0.702775019947,0.702574440665,0.0461529683027,0.101815176572,0.0253869687509,-0.268796342412,-0.095313400114,0.0550159787753,-0.0731473716908,-0.333251418359,-4.81724405289,1.21267330647,-1.31495010853,-0.861537337303,-1.77966713905,-0.134806603193
2017/07/09/09:33:41.249434,240591,1499564024,48849813,,0.851689506676,0.154960770243,0.214413069544,0.704147188894,0.701151836355,0.046096006991,0.102166515493,0.0321383906997,-0.241590180657,-0.0836797467111,0.0454193085357,-0.091569653231,-0.289867119152,-5.84029722214,0.30124899745,-0.839033067226,-0.642797112465,-2.06194090843,-0.0477520376444
2017/07/09/09:33:41.259502,240592,1499564024,58864760,,0.852211652924,0.152212065035,0.214142953171,0.704898982701,0.700267904486,0.0463913839274,0.102908336063,0.0341893463623,-0.267619320001,-0.0690224455352,0.0277609528427,-0.10821493265,-0.32531255143,-5.9822101593,-0.0509411394596,-0.650680184364,-0.423341214657,-2.12634682655,0.00530978292227
2017/07/09/09:33:41.269230,240593,1499564024,68842898,,0.851857927085,0.149996241333,0.212650871004,0.705322516166,0.699937923674,0.0457309728168,0.102546230149,0.0236418563487,-0.285672159604,-0.0743673499137,-0.00450453463208,-0.0768743726195,-0.317323032486,-5.70797491074,0.0456545352936,-1.57845032215,-0.42929187417,-2.03569841385,-0.0101695209742
2017/07/09/09:33:41.279506,240594,1499564024,78848696,,0.851928434391,0.1476039896,0.211604697465,0.706441148533,0.698819963982,0.045883983715,0.102402254067,0.0188350424256,-0.264137363511,-0.0877631702262,0.0161414098766,-0.0547927584794,-0.281649392394,-6.05565595627,0.092745885253,-1.96345043182,-0.388261884451,-2.18924665451,0.0416867062449
2017/07/09/09:33:41.289425,240595,1499564024,88847520,,0.852249205913,0.14529158495,0.210832376517,0.706979759652,0.698202641726,0.0457838246959,0.102939457572,0.0163401584006,-0.242886506982,-0.0898955935508,0.0100764871963,-0.0472606921907,-0.224972058746,-5.43669462204,0.451188981533,-1.88200092316,-0.388363927603,-1.9819880724,0.0479092001915
2017/07/09/09:33:41.299331,240596,1499564024,98849060,,0.852419932386,0.14184222814,0.210129009092,0.708093249306,0.696992573855,0.045706411407,0.103519207083,0.0300741496427,-0.263978566011,-0.0757395522336,-0.0566886972458,-0.0786786800722,-0.192609112872,-5.37518215179,-0.0442936569452,-1.61055338383,-0.527160167694,-1.919226408,-0.0440242700279
2017/07/09/09:33:41.309307,240597,1499564024,108842150,,0.853177722552,0.140130849268,0.209874730549,0.708719630085,0.696207639324,0.0463622688264,0.104220674094,0.0264443444107,-0.287660407579,-0.0778090663803,-0.0659278678924,-0.0817544788024,-0.249812910591,-5.82881546021,1.07966005802,-1.07188653946,-0.822293639183,-2.14647078514,-0.130130246282
2017/07/09/09:33:41.319583,240598,1499564024,118846197,,0.853408832429,0.137497084805,0.208383679376,0.709418616243,0.695467447341,0.0460700429794,0.104536155261,0.0298437998163,-0.283541975761,-0.0756061167121,-0.0449055469069,-0.0971948515825,-0.281061845686,-6.56985807419,0.651312351227,-1.46353125572,-0.717573344707,-2.45359826088,-0.0532982870936
2017/07/09/09:33:41.329537,240599,1499564024,128845879,,0.853233461023,0.134227635697,0.207959251476,0.710650378509,0.694160945713,0.0458306545692,0.104957953841,0.0356854508408,-0.260153834914,-0.0698489580518,-0.0158999690078,-0.111185217604,-0.28062253298,-6.90064668655,0.550051271915,-1.90629863739,-0.729143023491,-2.48055577278,-0.0382642075419
2017/07/09/09:33:41.339386,240600,1499564024,138845383,,0.853368500808,0.132299315752,0.20683075733,0.711127687974,0.693652247792,0.0457327171492,0.105130819038,0.0209318332188,-0.245455184573,-0.096672125531,0.00718951419092,-0.057481517003,-0.262924880233,-6.78682518005,0.702040791512,-1.79239869118,-0.650142192841,-2.43035888672,-0.0105671286583
2017/07/09/09:33:41.349724,240601,1499564024,148843545,,0.854002303951,0.129721639203,0.206890272261,0.711724698081,0.692874456955,0.0462713422656,0.105980677136,0.00307346313297,-0.258792919824,-0.10178996918,-0.0297010553212,-0.0239381965746,-0.205396771397,-6.25364112854,0.501900970936,-1.28440284729,-0.480609953403,-2.26435422897,0.0268579423428
2017/07/09/09:33:41.359435,240602,1499564024,158841270,,0.853464523413,0.127135560937,0.205212734235,0.711440378121,0.693275690016,0.0454844754015,0.10560572195,0.00781731426226,-0.263226324899,-0.0935270497321,-0.0522881803701,-0.0268124392677,-0.0913323685653,-5.95191812515,0.422561526299,-1.48660457134,-0.456165134907,-2.11542320251,-0.0332077220082
2017/07/09/09:33:41.369424,240603,1499564024,168849177,,0.853644457028,0.125560657429,0.204551750614,0.710914629165,0.693816390679,0.0458027058369,0.10545766071,0.0120168111198,-0.245686394886,-0.0755959987607,-0.0663644865044,-0.0200570281557,0.0937313519643,-6.64298343658,0.991077423096,-1.78870379925,-0.5389585495,-2.48408150673,-0.0756919234991
2017/07/09/09:33:41.379515,240604,1499564024,178845449,,0.853109478941,0.123123521774,0.202972939046,0.712124902921,0.692692432816,0.0452664783599,0.104910733941,-0.000703416031957,-0.257556933916,-0.0821403141688,-0.0283691081722,0.000942030560645,-0.0332442214952,-7.05401802063,1.42152571678,-1.97068762779,-0.730674564838,-2.60496711731,-0.158588826656
2017/07/09/09:33:41.389584,240605,1499564024,188844339,,0.853879077392,0.120501815824,0.203001605229,0.71293770261,0.691641931414,0.0459526172337,0.106017111241,-0.00211136890633,-0.23334408525,-0.0835991199248,0.0220857611295,-0.011942003454,-0.195766496324,-6.16771030426,1.07006621361,-0.912711620331,-0.645606935024,-2.23345732689,-0.150036931038
2017/07/09/09:33:41.399758,240606,1499564024,198842660,,0.853694472564,0.118707907418,0.201615376106,0.714153375651,0.690480146142,0.0461986058971,0.105298683008,0.00669736284288,-0.250108479117,-0.0821472647427,0.0368452140055,-0.0491061698654,-0.298776235284,-5.65536403656,1.22196817398,-1.20687532425,-0.659339249134,-1.94138562679,-0.189441934228
2017/07/09/09:33:41.409480,240607,1499564024,208851192,,0.853801130769,0.116293169822,0.200588635637,0.714820635132,0.68977972335,0.045984212756,0.105455417217,0.00891790210636,-0.236264485542,-0.0884442684842,0.0528006279403,-0.0486856491364,-0.312601693719,-5.726334095,1.12544429302,-0.672242999077,-0.612059772015,-1.95605897903,-0.153965353966
2017/07/09/09:33:41.419478,240608,1499564024,218848815,,0.853641721735,0.113751393986,0.200347618671,0.715875731948,0.688666183424,0.0459167375639,0.105605290721,0.0195702285254,-0.248664279865,-0.0725512235349,0.0528941591862,-0.0789111903583,-0.341291745417,-6.28589296341,0.974671602249,-0.933841049671,-0.592544138432,-2.11280083656,-0.140150293708
2017/07/09/09:33:41.429533,240609,1499564024,228844187,,0.854040061287,0.111300531144,0.19971268708,0.717237532504,0.687181258601,0.046807127218,0.105647208367,0.0026977616887,-0.231950323124,-0.0851781965606,0.0718933045367,-0.031929557155,-0.319985776608,-5.76420688629,0.784944176674,-1.47860193253,-0.743612527847,-2.03722906113,-0.252621531487
2017/07/09/09:33:41.439451,240610,1499564024,238842684,,0.85399025884,0.108933345858,0.199235466123,0.718379584939,0.685960092262,0.0467079856075,0.105867312457,0.00182314068847,-0.218624574234,-0.088527402978,0.0784125424459,-0.0149690455648,-0.277277695704,-5.9970035553,1.12538146973,-1.32872653008,-0.734431266785,-2.12891578674,-0.212427973747
2017/07/09/09:33:41.449510,240611,1499564024,248849545,,0.854034955144,0.1069389265,0.198328604106,0.719087421376,0.685217969839,0.0467369173926,0.105854970509,-0.00680392142473,-0.253325240957,-0.071861360928,0.035886501347,-0.0198643505273,-0.320087110723,-5.64647912979,0.910316586494,-0.981607198715,-0.716194391251,-1.97989368439,-0.259065240622
2017/07/09/09:33:41.459443,240612,1499564024,258842089,,0.854062775047,0.104186128537,0.198118643326,0.720147805763,0.684071372767,0.0467754025483,0.106045068406,-0.00235692962166,-0.222154743573,-0.0822331661082,0.0647330937082,-0.0125658753105,-0.27529526019,-5.24643373489,0.560987234116,-0.585168600082,-0.479212880135,-1.79392504692,-0.172881573439
2017/07/09/09:33:41.469536,240613,1499564024,268849550,,0.854130032065,0.102234225502,0.196913657057,0.721012651385,0.683180919528,0.0470003653961,0.10580904209,-0.00401492179046,-0.239719562144,-0.0769778579818,0.0417344247713,-0.0195076558413,-0.302459546145,-5.34653377533,0.916356980801,-0.603545188904,-0.699946165085,-1.92040920258,-0.276928901672
2017/07/09/09:33:41.479414,240614,1499564024,278847644,,0.853890741333,0.100392446148,0.196039316569,0.722052357055,0.682151842657,0.0468287934729,0.105433966692,-0.00110234623393,-0.23132598048,-0.0610855381704,0.0575145964513,-0.0388997642576,-0.291828623777,-5.93526649475,1.48971176147,-1.19099295139,-0.773236453533,-2.10697436333,-0.255563855171
2017/07/09/09:33:41.489395,240615,1499564024,288855980,,0.854836437392,0.0986194866407,0.196300071228,0.722967754236,0.681018949794,0.0480589981619,0.105929925196,0.00227819460469,-0.241581133005,-0.066739058786,0.0611802651722,-0.0315450569936,-0.306268530264,-5.74799966812,1.96963191032,-0.349542915821,-0.929887115955,-2.11057543755,-0.296822547913
2017/07/09/09:33:41.499413,240616,1499564024,298845893,,0.854657025359,0.096508623278,0.195318369984,0.723819606162,0.680152727369,0.0479713960358,0.105717502576,0.0198697557911,-0.236715919772,-0.0623532878215,0.0513562679316,-0.0737725536301,-0.297664413705,-6.23617744446,1.9001057148,-1.17668557167,-0.902839243412,-2.22803044319,-0.258332163095
2017/07/09/09:33:41.509266,240617,1499564024,308856426,,0.854362696535,0.0929370933153,0.19397666632,0.724976117666,0.678941638838,0.0474844638329,0.105797474265,0.0233994763187,-0.237161840441,-0.0664188951218,0.0548870694411,-0.0784652940492,-0.302659494041,-5.56061458588,0.774335622787,-1.50403022766,-0.704803347588,-1.86297035217,-0.188062548637
2017/07/09/09:33:41.519483,240618,1499564024,318844372,,0.854949245392,0.0911802550663,0.193935263162,0.725809883424,0.6779541049,0.0482476994147,0.106067922925,0.00706165334173,-0.216081971431,-0.0840558115411,0.0687076133206,-0.0233862300542,-0.250697092642,-5.1174530983,1.12452852726,-0.717909693718,-0.710196495056,-1.73323631287,-0.196992591023
2017/07/09/09:33:41.529525,240619,1499564024,328849080,,0.854396823424,0.0892530467042,0.192595579242,0.726491364748,0.677367236716,0.0479129256961,0.105300879017,0.0115253801531,-0.222216485594,-0.0635259866899,0.0288221808726,-0.0319290781836,-0.223902054122,-5.49729776382,0.673685193062,-1.25326347351,-0.726818621159,-1.85350084305,-0.212019205093
2017/07/09/09:33:41.539399,240620,1499564024,338846758,,0.854825651561,0.0873841651534,0.192897647727,0.727067378732,0.676644316713,0.0483040335212,0.105793269113,-0.00320271057459,-0.217712276011,-0.0628512798531,0.0269884764058,0.00503952554946,-0.181143649823,-5.15566015244,1.14125084877,-1.24768710136,-0.766474783421,-1.89239287376,-0.241288617253
2017/07/09/09:33:41.549414,240621,1499564024,348843812,,0.854121778613,0.0849520933259,0.191954343912,0.727621983431,0.6761799772,0.0477161105098,0.105214354817,-0.0153473017901,-0.212110394447,-0.0733824834266,0.0437857829885,0.0449490430419,-0.162959934963,-4.67709159851,0.564949631691,-0.980571389198,-0.600180089474,-1.76602649689,-0.191196680069
2017/07/09/09:33:41.559402,240622,1499564024,358847903,,0.854683205437,0.0829416431057,0.191512393593,0.728000545087,0.675689763951,0.0479835738638,0.105622563328,-0.0284247896369,-0.228757219347,-0.0902369078115,0.0327984153667,0.0803440664544,-0.174594669258,-4.00945520401,0.614749073982,-1.05105388165,-0.565657317638,-1.6158914566,-0.191603571177
2017/07/09/09:33:41.569690,240623,1499564024,368872908,,0.854256321448,0.0810614209994,0.190736342249,0.728180899719,0.675596817776,0.0475337615585,0.105176321517,0.00111138347814,-0.224101560802,-0.0596608951845,0.0119298604701,0.00753476323676,-0.130653536355,-4.08661079407,0.754974722862,-0.62859916687,-0.519270658493,-1.56499993801,-0.164663344622
2017/07/09/09:33:41.579585,240624,1499564024,378841758,,0.853697493242,0.0790932843479,0.189141850623,0.728813215668,0.675091287494,0.0471254820693,0.104222066557,-0.0203254105273,-0.222776931455,-0.0772141572351,-0.00282500639274,0.0613328916132,-0.0880338061271,-3.74760746956,0.942028701305,-1.05780100822,-0.585822999477,-1.45935857296,-0.194382354617
2017/07/09/09:33:41.589458,240625,1499564024,388846285,,0.853463165422,0.0766054389073,0.18805979619,0.728929617218,0.67501962344,0.0465693783963,0.104122111528,-0.0018265022852,-0.216522623011,-0.0630872980454,0.00133574798096,0.0163881936895,-0.046548549487,-4.36007165909,1.18288362026,-1.77034425735,-0.711754143238,-1.68992161751,-0.208296135068
2017/07/09/09:33:41.599517,240626,1499564024,398849100,,0.854043683643,0.0747988012943,0.188060958703,0.728826614858,0.675015829081,0.0470562636169,0.10464752276,-0.0142856232726,-0.239165710997,-0.0725279611404,-0.00926008599183,0.0401221848775,-0.0622224089529,-4.36747694016,1.23066997528,-0.946488201618,-0.616747140884,-1.69401705265,-0.145864844322
2017/07/09/09:33:41.609398,240627,1499564024,408846226,,0.853661041472,0.071419703274,0.187728806325,0.729091011168,0.674716967681,0.0463216244099,0.105060068863,-0.00571962619494,-0.238670604445,-0.0614047251159,-0.0331118468128,0.0126073177544,-0.0475729025216,-4.6326379776,1.15335249901,-0.876244485378,-0.657773733139,-1.76609873772,-0.181314945221
2017/07/09/09:33:41.619550,240628,1499564024,418847802,,0.853791376962,0.0694987198847,0.187266226343,0.729086722391,0.674709631287,0.0466900057562,0.10497384457,-0.00675377479466,-0.234826639211,-0.0625658510334,-0.0248541244436,0.0206331390597,-0.0369211316536,-4.17247343063,0.561981916428,-0.805965781212,-0.552643418312,-1.53172194958,-0.194619625807
2017/07/09/09:33:41.629554,240629,1499564024,428843919,,0.853551239648,0.0680513714809,0.186006521284,0.728819897058,0.67511102693,0.0465495374321,0.104306277542,-0.019553339367,-0.22587979888,-0.0784508850987,-0.010373205752,0.0574269971207,-0.00302856722883,-3.88442015648,0.982029259205,-1.11287379265,-0.540319800377,-1.52814292908,-0.179952323437
2017/07/09/09:33:41.639472,240630,1499564024,438849755,,0.853539005681,0.0653293714467,0.185719015001,0.728907204956,0.674984741155,0.0461378140142,0.104695691836,-0.00292055994928,-0.21745171389,-0.0715943572622,-0.00761982978802,0.0311409882036,0.0326375464095,-3.38958287239,1.05459094048,-0.930652141571,-0.570624470711,-1.3512390852,-0.182357802987
2017/07/09/09:33:41.649715,240631,1499564024,448850474,,0.853421706946,0.0634927216412,0.184785337835,0.728750017751,0.675218741551,0.0458383702778,0.10441219515,-0.00266034834963,-0.228628939333,-0.060839786746,-0.0237100399047,0.0278940113106,0.036423232393,-3.489164114,0.980370879173,-1.04051661491,-0.573523581028,-1.42544126511,-0.173908114433
2017/07/09/09:33:41.659259,240632,1499564024,458848605,,0.853578344184,0.0617073517782,0.184525424139,0.728250636188,0.675753395631,0.0460275042982,0.104354338836,-0.0102064588959,-0.238024720853,-0.0763570310577,-0.0198838744467,0.0404505069649,0.0281839168282,-3.135024786,1.275380373,-0.839863777161,-0.537296712399,-1.31901741028,-0.149243563414
2017/07/09/09:33:41.669475,240633,1499564024,468853754,,0.85354104263,0.0583305692425,0.183708498236,0.728483311989,0.675456123187,0.0457415591018,0.104779767002,0.00265921841442,-0.222161742749,-0.0556996392679,-0.0280564382598,0.0119494033363,0.0725451924356,-3.89693403244,0.185576796532,-1.04514455795,-0.380683004856,-1.58055531979,-0.0585004463792
2017/07/09/09:33:41.679661,240634,1499564024,478848112,,0.853122386603,0.0564229825075,0.182810170366,0.728178733169,0.675886080672,0.0452604507935,0.104332306158,-0.00736068562863,-0.24604096844,-0.0708502681496,-0.0289227908528,0.0295065824942,0.0670477832349,-3.01451873779,0.528980731964,-1.68930590153,-0.382207214832,-1.24530744553,-0.104489311576
2017/07/09/09:33:41.689340,240635,1499564024,488861558,,0.852601796285,0.0535454616474,0.181893640029,0.727862337535,0.67628761081,0.0444411890664,0.104290295703,-0.00916181210495,-0.24941671192,-0.0721348300382,-0.0507395195186,0.0398275445829,0.0904108759013,-3.17009949684,0.225236296654,-1.62470316887,-0.409448266029,-1.28654706478,-0.131253227592
2017/07/09/09:33:41.699477,240636,1499564024,498849533,,0.853371298063,0.0522827991299,0.181963567575,0.727305144932,0.676783145573,0.0452776411413,0.104602749664,-0.0075965697597,-0.260876590242,-0.0661682128554,-0.0657848272441,0.0323073936161,0.0819578233354,-3.23068809509,1.11219954491,-0.451321065426,-0.48756930232,-1.40801692009,-0.0991946980357
2017/07/09/09:33:41.709471,240637,1499564024,508847438,,0.853210564378,0.0492924907084,0.181134171095,0.726886548568,0.677234620687,0.0447013299978,0.104837994784,-0.00253012104517,-0.246281100052,-0.0624679787347,-0.0636829701769,0.0293266676942,0.114584043835,-3.64416909218,1.00508832932,-0.817832708359,-0.521588504314,-1.57037830353,-0.143666535616
2017/07/09/09:33:41.719345,240638,1499564024,518848318,,0.853210883243,0.0472865092975,0.180069630585,0.726346567687,0.677856925344,0.0444951282213,0.104646241864,-0.00121591197287,-0.251794023577,-0.0734257541505,-0.0538395104497,0.0232929796052,0.117528520331,-3.31369638443,1.20117807388,-0.994338274002,-0.611950516701,-1.48590934277,-0.179438620806
2017/07/09/09:33:41.729376,240639,1499564024,528848834,,0.85339422553,0.0450408474111,0.179358950773,0.725780063819,0.678435420417,0.0444546999999,0.104844928028,-0.000465730062289,-0.246549734841,-0.0761246519265,-0.0310567752386,0.0249081151343,0.148419104342,-3.06674051285,1.3639755249,-0.913876116276,-0.531688392162,-1.35047054291,-0.159016400576
2017/07/09/09:33:41.739520,240640,1499564024,538850030,,0.853071828396,0.0417773324516,0.178539287405,0.725656944102,0.678610253274,0.0440104727333,0.104753052072,0.00748473694578,-0.255657279319,-0.069026745887,-0.0573800249166,-0.0012451208724,0.136253106254,-3.11206698418,1.11520254612,-1.00191044807,-0.525699973106,-1.35080575943,-0.135785073042
2017/07/09/09:33:41.749378,240641,1499564024,548847409,,0.853575608825,0.039774251687,0.178375341085,0.725064395986,0.67913738212,0.0444140892937,0.105268354947,0.014552534168,-0.249614759711,-0.06935935668,-0.048508289729,-0.0155474141974,0.147518749797,-2.62437987328,1.02727758884,-0.238432094455,-0.562695503235,-1.07979953289,-0.168293073773
2017/07/09/09:33:41.759633,240642,1499564024,558845102,,0.853685085362,0.0377410480364,0.177335043636,0.72437506376,0.679884526706,0.0443071655932,0.105236269529,0.0157090465969,-0.253090633127,-0.0607618081688,-0.0604249036933,-0.0234383964487,0.161348265707,-3.08944797516,1.71561002731,-0.61055803299,-0.727175891399,-1.28058040142,-0.21763138473
2017/07/09/09:33:41.769264,240643,1499564024,568849447,,0.853981083473,0.0349396083583,0.177382149881,0.723795615748,0.680410796929,0.0444678882529,0.105752829565,0.000250652663356,-0.236907826323,-0.0708334164011,-0.0452570754644,0.0225065119121,0.209036656979,-3.32626628876,0.829863965511,-0.399647086859,-0.555580854416,-1.35409414768,-0.156103014946
2017/07/09/09:33:41.779485,240644,1499564024,578859498,,0.853094864335,0.0322853627872,0.175838744608,0.723302270254,0.681099897551,0.0434847756441,0.105099142187,-0.00931844074363,-0.246954860551,-0.0632241697602,-0.0496707611615,0.0336106458779,0.194376409055,-3.58088731766,0.748754739761,-1.03483724594,-0.524673700333,-1.48713850975,-0.136941671371
2017/07/09/09:33:41.789495,240645,1499564024,588840630,,0.853424793032,0.0306273766022,0.175814448894,0.722317923922,0.682090737764,0.043713410382,0.105347899791,-0.0109895317203,-0.254776283472,-0.0678416636941,-0.0572539171918,0.0351017534718,0.19581970821,-2.90485978127,0.902325749397,-0.762930870056,-0.527878284454,-1.29629027843,-0.141866832972
2017/07/09/09:33:41.799788,240646,1499564024,598849247,,0.853387306478,0.0274635403459,0.175079650049,0.721888653361,0.682501349287,0.0438226874164,0.105585285133,0.00267022155178,-0.248052425973,-0.051126643761,-0.0572970168236,0.00318779387161,0.213420173154,-1.81491577625,0.243032753468,-0.527114987373,-0.357088208199,-0.870249807835,-0.168063685298
2017/07/09/09:33:41.809575,240647,1499564024,608849047,,0.853355828465,0.0255381174049,0.174633371849,0.72109719197,0.683355011661,0.0436212101206,0.105555472611,0.00730860065524,-0.264319447488,-0.0592146488408,-0.0609494085847,-0.0208995470243,0.181103911448,-2.12937569618,0.408775985241,-0.388789951801,-0.35485970974,-0.919919967651,-0.144795119762
2017/07/09/09:33:41.819498,240648,1499564024,618869524,,0.853404773055,0.0234425657242,0.173614234717,0.720191173271,0.684320341528,0.0435897433341,0.105500134549,-0.00273097486739,-0.236876690565,-0.0778089839142,-0.0342980134457,0.0253452205581,0.213108592775,-2.15929150581,0.571507513523,-0.54225987196,-0.531963586807,-0.935155034065,-0.148676291108
2017/07/09/09:33:41.829653,240649,1499564024,628843321,,0.852925067748,0.0207762480093,0.172889157474,0.719577083243,0.685037277978,0.0431129248415,0.105233192307,0.00836808470792,-0.228944603026,-0.0676284257081,-0.0303207033173,-0.00464707478687,0.256196061848,-3.0462667942,0.847468852997,-0.412905663252,-0.60844630003,-1.24200987816,-0.158278092742
2017/07/09/09:33:41.839464,240650,1499564024,638848361,,0.853266546281,0.0189211438002,0.172183849531,0.718108659903,0.686524433556,0.0432249672587,0.105526095865,-0.00791494585804,-0.255186206189,-0.070053359,-0.0465806556594,0.0187875839909,0.222485708329,-3.17967653275,0.869767069817,-0.972840368748,-0.655153393745,-1.33159196377,-0.161234170198
2017/07/09/09:33:41.849783,240651,1499564024,648843996,,0.853621162881,0.016073936007,0.171761339815,0.717649873513,0.686909793204,0.0429825473764,0.106236037518,-0.00420148948,-0.236920057976,-0.0710512340539,-0.0628867646928,0.0250876206987,0.288942082849,-2.31180882454,0.332083284855,-0.375715136528,-0.504231750965,-1.07927906513,-0.167655959725
2017/07/09/09:33:41.859456,240652,1499564024,658841109,,0.8528930859,0.0139450899786,0.170814647777,0.716615568803,0.688086351075,0.0423680385888,0.105850126685,-0.000986913855834,-0.252885457285,-0.0635563002454,-0.0795203833238,0.00823602289784,0.261100833362,-1.90796434879,0.780707776546,-0.995505094528,-0.575751423836,-0.84627944231,-0.194867402315
2017/07/09/09:33:41.869483,240653,1499564024,668844799,,0.853475519423,0.0121060772062,0.170750166121,0.715873550108,0.68875757319,0.0432500059638,0.106148493226,-0.00857192923837,-0.231112957121,-0.0780326458617,-0.0601086385993,0.0318625459268,0.266850584981,-0.499968349934,0.709912657738,-0.399069547653,-0.461100846529,-0.372277736664,-0.237887308002
2017/07/09/09:33:41.879436,240654,1499564024,678847924,,0.85321460143,0.00929381949657,0.170056963941,0.714740285272,0.689936553221,0.0426655760551,0.106365058921,0.00230272593819,-0.216469714061,-0.0546714332357,-0.0446099992188,0.00198699121655,0.294950288971,-0.689695894718,0.403328597546,-0.329688727856,-0.408942878246,-0.436712384224,-0.215180441737
2017/07/09/09:33:41.889529,240655,1499564024,688850826,,0.853075171402,0.00815286454782,0.168954604238,0.713387123185,0.69141727025,0.0428197333225,0.105770701581,-0.00229589843596,-0.226089950989,-0.0556106271447,-0.067201719484,0.0142973091973,0.321968980108,-0.806306540966,0.768635630608,-0.527290344238,-0.473835647106,-0.463357031345,-0.199299752712
2017/07/09/09:33:41.899583,240656,1499564024,698850031,,0.853183388936,0.00554115205978,0.168460108111,0.712514188842,0.692259327986,0.0425220921048,0.106265823284,-0.00616997959409,-0.214079954842,-0.0702534333964,-0.0482625424606,0.0291625784064,0.339125038844,-0.92675280571,0.750799894333,-0.681520819664,-0.524541735649,-0.538935542107,-0.213680773973
2017/07/09/09:33:41.909587,240657,1499564024,708850696,,0.852607287835,0.00306269876928,0.167740218127,0.711309471422,0.693557800344,0.0419602101507,0.106093139321,-0.0106900128806,-0.216144164655,-0.0707002536423,-0.0508894957553,0.0307216587402,0.314716364346,-1.64299869537,-0.0993880331516,-0.682804167271,-0.38607609272,-0.75812548399,-0.155559450388
2017/07/09/09:33:41.919144,240658,1499564024,718855749,,0.852654632713,0.000834023855776,0.167357087884,0.710887691442,0.693963679891,0.0425183354686,0.106043822537,-0.00730809387962,-0.224935985383,-0.0658538020278,-0.073623551848,0.0242137572507,0.320143189573,-1.51585781574,-0.276522874832,-0.688211798668,-0.320137947798,-0.72738134861,-0.115873984993
2017/07/09/09:33:41.929282,240659,1499564024,728842329,,0.852515572295,-0.000886334217782,0.16668545688,0.709026461393,0.695875803421,0.0416829451455,0.106305575306,-0.00529720063541,-0.208657260154,-0.0603663350035,-0.0538793628226,0.0163113302414,0.330254890445,-0.626976788044,-0.0171479284763,-0.319894433022,-0.404871791601,-0.389928549528,-0.145409032702
2017/07/09/09:33:41.939228,240660,1499564024,738845236,,0.852309064249,-0.00265924185057,0.165716867612,0.708300249575,0.696665001388,0.0418456561692,0.105913046188,-0.00716288263044,-0.194910962428,-0.0512983433356,-0.0303854916501,0.0152838424418,0.313934297678,-0.761943101883,0.213514298201,-0.83931440115,-0.409957200289,-0.579719007015,-0.0941100493073
2017/07/09/09:33:41.949441,240661,1499564024,748842330,,0.852723126695,-0.00404811953665,0.165932239104,0.707241897267,0.697653745345,0.042040523384,0.106398988485,-0.00258940526546,-0.177939329575,-0.0538401885751,-0.0289772200159,0.017593150918,0.330489105321,-0.0956445112824,-0.0941750556231,-0.406258612871,-0.338611841202,-0.362978070974,-0.140173897147
2017/07/09/09:33:41.959454,240662,1499564024,758844934,,0.85243570197,-0.00615812361588,0.165009767547,0.706363736292,0.69857810574,0.0419978111289,0.106184208307,-0.0105389286322,-0.196394489914,-0.0511205576545,-0.0500328425549,0.0164460588461,0.264639034555,-0.123408846557,-0.613326847553,-1.3077198267,-0.162097141147,-0.3107406497,-0.087667748332
2017/07/09/09:33:41.969628,240663,1499564024,768865628,,0.852561700177,-0.00788376191432,0.164715797321,0.706110719036,0.698807000357,0.0423811609948,0.106208596198,-0.0223038360418,-0.195694910546,-0.0676301824642,-0.00383844146961,0.0283174589206,0.175949416794,1.20003271103,-1.09952163696,-0.505704045296,0.155955940485,0.251699447632,-0.0671771094203
2017/07/09/09:33:41.979480,240664,1499564024,778848262,,0.852694164628,-0.0085018723952,0.163939724762,0.705384306809,0.699572283078,0.0426563468764,0.105886904416,0.00228663027553,-0.184387397721,-0.0518889847077,0.0131625464882,-0.0336546116228,0.124077631891,1.59363651276,0.00294843316078,-0.199201762676,-0.0871933847666,0.560907423496,-0.128668949008
2017/07/09/09:33:41.989903,240665,1499564024,788844518,,0.852358283141,-0.0114417669944,0.163539603818,0.705683684343,0.699252647105,0.0427250577943,0.105975669871,-0.0106017741196,-0.148017700313,-0.0701798503696,0.0670131848629,0.0222061201783,0.125227785907,2.06061983109,-0.589938223362,-0.225606232882,-0.103415101767,0.820117413998,-0.178334742785
2017/07/09/09:33:41.999577,240666,1499564024,798849337,,0.85216800519,-0.0118723739986,0.16294668727,0.704627097295,0.700414272668,0.0428472950061,0.105283473117,-0.0152404369666,-0.170251036008,-0.0569033662184,0.0455665681859,0.0187248786907,0.124137056258,0.161414682865,0.819584429264,-0.310065329075,-0.366011291742,0.124672152102,-0.145583152771
2017/07/09/09:33:42.009470,240667,1499564024,808841684,,0.851943234006,-0.0139749058569,0.162846378436,0.703505742152,0.701538216501,0.0426427312045,0.105382157041,-0.0253429978017,-0.151610228755,-0.0519661339269,0.0217797605621,0.0633274884002,0.255660649384,-0.596348941326,0.272444903851,-0.221055299044,-0.445870101452,-0.239983767271,-0.159100830555
2017/07/09/09:33:42.019548,240668,1499564024,818845754,,0.85123777555,-0.0157570812494,0.162213959719,0.702720645315,0.702448141811,0.0422880815243,0.104699669892,-0.0346182621502,-0.147500101489,-0.0519019823286,-0.00762820246713,0.101092874033,0.349657871924,-0.368723273277,0.0739301592112,-0.493890732527,-0.360283702612,-0.176162213087,-0.113384746015
2017/07/09/09:33:42.029515,240669,1499564024,828861565,,0.850598882022,-0.0170449678507,0.161092196258,0.701949935746,0.70336064565,0.0420852170769,0.103821598717,-0.037270121378,-0.139975667974,-0.0565232925008,0.0204411116422,0.0954403859737,0.350584619067,0.214311912656,-0.540423631668,-0.696799457073,-0.076387912035,0.0447726771235,-0.0643317773938
2017/07/09/09:33:42.039660,240670,1499564024,838858238,,0.850554571461,-0.0178288071915,0.160833450096,0.700788289956,0.704541173771,0.0420667383474,0.103672062997,-0.0404927784977,-0.145911748037,-0.0611459998529,0.0206343604602,0.0939209618869,0.271976745087,1.53700327873,-0.228476956487,0.114390283823,0.0391910113394,0.500265240669,-0.0509432777762
2017/07/09/09:33:42.049419,240671,1499564024,848846038,,0.849851272964,-0.0189273120386,0.159815966485,0.699601411445,0.705877595948,0.0415595259695,0.102798299815,-0.033053185046,-0.132224821411,-0.0443756453594,0.0282085989227,0.0719822965924,0.275511133025,0.703965425491,-0.260457098484,-0.481477886438,-0.0591259412467,0.23603220284,-0.0271584857255
2017/07/09/09:33:42.059572,240672,1499564024,858846004,,0.850906758208,-0.0198584283069,0.160435264057,0.698655493073,0.706629540742,0.0427761275893,0.103563492883,-0.0248000654889,-0.121885064925,-0.0400294060122,0.0151879810722,0.0611630871038,0.306476299357,0.425705581903,-0.170555070043,0.397444188595,-0.118498340249,0.0519750490785,-0.0306316372007
2017/07/09/09:33:42.069301,240673,1499564024,868844758,,0.850326802693,-0.0206265716156,0.159892211956,0.697415011236,0.707979893821,0.0427316438896,0.1027169833,-0.0129512833259,-0.120824030849,-0.0253807724342,0.0230915780742,0.0250278273635,0.285746067102,-0.07070492208,0.305225163698,-0.169228583574,-0.288132876158,-0.0258520767093,-0.0529629848897
2017/07/09/09:33:42.079467,240674,1499564024,878844866,,0.849975501468,-0.021733499653,0.159525104402,0.697007469677,0.708441544028,0.042567066292,0.102368016381,-0.00962488700072,-0.118840613465,-0.0326580541827,0.00162475058748,0.0211715360074,0.275340683947,-0.49827709794,0.120618477464,-0.363035142422,-0.203819647431,-0.0835222005844,-0.0572876036167
2017/07/09/09:33:42.089319,240675,1499564024,888847766,,0.849913246951,-0.0228207129692,0.158845046201,0.696433718401,0.709038728736,0.0428335144956,0.102026697797,-0.0247822102406,-0.105928660945,-0.0434024375811,0.0430144244161,0.0491357140378,0.235470046238,0.495770037174,-0.166962116957,-0.414679378271,-0.024212218821,0.311386674643,-0.0152508374304
2017/07/09/09:33:42.099245,240676,1499564024,898848793,,0.849512752809,-0.024229627353,0.159102545557,0.695675803243,0.709803097051,0.0427162653757,0.101931648032,-0.0243096696914,-0.096667364863,-0.0430277148571,0.0596697263873,0.0508137184184,0.219593105743,0.867560684681,-0.876083016396,0.211707949638,0.18773342669,0.48485031724,0.0294691622257
2017/07/09/09:33:42.109579,240677,1499564024,908848417,,0.849335472045,-0.0249988966708,0.158546616911,0.695135421314,0.710390142444,0.0430242591864,0.101397754781,-0.0183138944057,-0.111787103722,-0.0187585825518,0.0350048639202,0.0227436375608,0.200809564851,0.835076749325,0.0322086289525,-0.120476052165,-0.140910446644,0.405627667904,-0.0733122974634
2017/07/09/09:33:42.119501,240678,1499564024,918841152,,0.84949836213,-0.026215863207,0.158735363227,0.694783371222,0.710677906074,0.0434883230341,0.101595997225,-0.015146908829,-0.100941045664,-0.0111939145672,0.053813821441,0.0124332337206,0.174233537777,0.464573264122,-0.0415516979992,-0.238419935107,-0.195746824145,0.122651785612,-0.0340489596128
2017/07/09/09:33:42.129451,240679,1499564024,928847857,,0.84909684415,-0.026322776116,0.15812203083,0.694381714784,0.711193755126,0.0443637702467,0.100346064859,-0.0200028291669,-0.0609152239726,-0.0475460865812,0.141480278934,0.0437536792437,0.154601442831,0.18748639524,0.355711698532,-0.421356290579,-0.298666447401,0.0257097296417,-0.0683632194996
2017/07/09/09:33:42.139411,240680,1499564024,938842471,,0.84922237942,-0.027004836444,0.157991940469,0.69389531768,0.711665640631,0.0445804440274,0.100269078274,-0.00877292972889,-0.0668616506488,-0.0366470614851,0.153860754243,-0.00708144088319,0.10117450384,0.774075806141,0.146365046501,0.178560435772,-0.178593486547,0.305743515491,-0.00327189732343
2017/07/09/09:33:42.149478,240681,1499564024,948842403,,0.849334291568,-0.0278927719888,0.157478454858,0.69430046072,0.711241447056,0.0453154887561,0.100144798732,0.0107963725923,-0.0491207465537,-0.0289514503159,0.141478355147,-0.0448059697558,0.0888229183826,0.855003476143,-0.405817598104,-0.180011957884,-0.0532861687243,0.46115347743,0.00054079759866
2017/07/09/09:33:42.159737,240682,1499564024,958842759,,0.849515525739,-0.0284502032403,0.157082710061,0.693909784531,0.711626896997,0.0460292458346,0.0997881702886,0.00362054444139,-0.057950872417,-0.0318421295304,0.11792480588,-0.0409239283487,0.0751969924673,0.611187815666,-0.575605452061,-0.0247668251395,0.0209323167801,0.353094309568,0.0450472421944
2017/07/09/09:33:42.169416,240683,1499564024,968845247,,0.849451269183,-0.0287209948403,0.15665263112,0.693983574529,0.711603912311,0.0463287314962,0.0992991384948,0.00405112669709,-0.0357803288712,-0.0327018673268,0.114340467743,-0.0105746525821,0.0660330075943,-0.0318275690079,-0.160286769271,0.0851356759667,-0.0832126438618,0.0869978815317,0.0472146011889
2017/07/09/09:33:42.179621,240684,1499564024,978849517,,0.849252100916,-0.0285329257019,0.156033030422,0.693614559834,0.712043446195,0.0467937354759,0.0985054284647,-0.00220045051783,-0.0504142383407,-0.0195322892572,0.107158090112,-0.0192926574407,0.0259676666104,-0.729623794556,0.462836533785,-0.361717492342,-0.2308845222,-0.243069022894,0.0181954633445
2017/07/09/09:33:42.189494,240685,1499564024,988842809,,0.849690733147,-0.0299593594195,0.15689687097,0.694201895085,0.711330018673,0.047171516826,0.0993387205281,0.0171640348105,-0.0432905502756,-0.00551269891533,0.0886057799314,-0.0601006171129,0.0026198568105,-0.604021966457,-0.116551816463,0.130809053779,-0.0524986498058,-0.25417470932,0.0823770835996
2017/07/09/09:33:42.199357,240686,1499564024,998848906,,0.849161417193,-0.0298917401165,0.155683920381,0.694612208658,0.711064467572,0.0475973718445,0.0981615644418,0.00310814601028,-0.0978592347665,-0.00599388903382,0.0710729545183,-0.0698251376334,-0.111503508176,-0.93311303854,0.185250878334,-0.69341135025,-0.131256312132,-0.33124551177,0.00729467719793
2017/07/09/09:33:42.209682,240687,1499564025,8846563,,0.849632804732,-0.0301333270862,0.156104250915,0.694994469717,0.710607276895,0.048479006607,0.0983349937961,0.0166535022622,-0.0354359623546,-0.0215810060991,0.120729163309,-0.0671260129944,-0.0752106214873,0.307554900646,-0.22622384131,-0.10913644731,-0.0276677906513,0.11853056401,0.0290727578104
2017/07/09/09:33:42.219370,240688,1499564025,18853130,,0.84958853542,-0.0309894766506,0.155652152277,0.695036303193,0.710556518441,0.0482015386026,0.0985422905222,0.0164894088319,-0.0276367777386,-0.0222519945885,0.130639131182,-0.0706614086257,-0.0909979426817,0.282619684935,-0.160237729549,0.0816157907248,-0.119194418192,0.142467170954,-0.0342468991876
2017/07/09/09:33:42.229591,240689,1499564025,28844535,,0.849401605842,-0.0306932551431,0.154858995022,0.695395537434,0.71028571092,0.0486655944826,0.0977287843639,-0.00291543975555,-0.0493445143683,-0.0384413347181,0.0719134373976,-0.0134953976351,-0.0915596357145,-0.60113286972,0.292891919613,-0.290890902281,-0.25370401144,-0.119465135038,-0.0979634448886
2017/07/09/09:33:42.239619,240690,1499564025,38849450,,0.848954343213,-0.0320401108423,0.154672111313,0.695808158509,0.709898651498,0.0485045165919,0.097684302852,-0.00901985514891,-0.0415011236025,-0.030607533701,0.0732618626728,-0.0047758848907,-0.085760104081,-1.3213313818,-0.366400182247,-0.139573276043,-0.054371483624,-0.390529334545,0.0192863792181
2017/07/09/09:33:42.249538,240691,1499564025,48847579,,0.849395149423,-0.0318458687473,0.154787176589,0.695997373419,0.709655817843,0.0493355015487,0.097684618454,-0.000198547361952,-0.0212450982205,-0.026577754223,0.0709639560657,-0.00184726164079,-0.0372039187746,-0.441489040852,-0.516636967659,0.296700239182,0.0602624937892,-0.075926207006,-0.00547102093697
2017/07/09/09:33:42.259442,240692,1499564025,58851320,,0.849325465304,-0.031477171286,0.154586785459,0.696027317477,0.70966883645,0.0494821642293,0.097301753943,-0.0145304800347,-0.04730609762,-0.0223455814873,0.0560811894013,0.00246594308546,-0.0630767650933,-0.418718963861,-0.113184779882,0.393610566854,-0.0304489191622,-0.107577264309,-0.00601579993963
2017/07/09/09:33:42.269266,240693,1499564025,68841959,,0.84979540829,-0.0318186950265,0.154710627431,0.696523469419,0.709101123931,0.0504236951839,0.0974068968421,7.91626960557e-05,-0.0117065028795,-0.0203954326757,0.103063534543,-0.017385506756,-0.0648191360215,-0.0780184268951,0.24175991118,0.173364490271,-0.197667717934,-0.0532675273716,-0.0749873295426
2017/07/09/09:33:42.279326,240694,1499564025,78841584,,0.849309474232,-0.0319557640168,0.15409717446,0.696273015484,0.709438661614,0.050174852002,0.0968666998686,0.00573660718145,0.00322425902826,-0.0212898166602,0.108509561986,-0.0203188410893,-0.0396845999869,0.265798181295,0.585455775261,-0.395156532526,-0.251388311386,0.0557564757764,-0.107424080372
2017/07/09/09:33:42.289367,240695,1499564025,88885964,,0.849400107354,-0.0325346071035,0.153983093773,0.696891214068,0.70880945751,0.050356894905,0.0969328212503,-0.00341034887654,0.000228679136533,-0.0323619991595,0.0932442597433,0.00339598539775,-0.0284815453419,0.526206493378,-0.393557012081,-0.0842795819044,-0.0271113179624,0.172028496861,-0.0582415647805
2017/07/09/09:33:42.299423,240696,1499564025,98847538,,0.849250905964,-0.031951169152,0.153355708979,0.696857689754,0.708914518692,0.0509033054713,0.0961166942355,-0.0155601736772,-0.0511852611846,-0.0138299926295,0.0511928284356,-0.00242432434589,-0.0908990643844,-0.410063952208,0.33833989501,-0.305000960827,-0.154968261719,-0.180783480406,-0.0555743128061
2017/07/09/09:33:42.309565,240697,1499564025,108849114,,0.849601892092,-0.0322036484442,0.154216703823,0.696567899631,0.709088608402,0.0508254182232,0.096970529028,-0.00737889356426,-0.0125001168645,-0.0242254807576,0.0535906931744,0.00776517615639,-0.0264490011029,0.0820192396641,0.227712839842,0.500317811966,-0.0619836971164,0.0132594294846,-0.0225430056453
2017/07/09/09:33:42.319417,240698,1499564025,118849147,,0.849262540116,-0.0330465316266,0.15376743829,0.697114242109,0.708585171404,0.0506445857101,0.0968189767172,0.00658657024775,-0.00911565104857,0.00746619456438,0.0145676379232,-0.0307020844531,-0.00217312353924,0.300167769194,0.22046032548,0.122002460063,-0.141532570124,0.175188601017,-0.0892061591148
2017/07/09/09:33:42.329753,240699,1499564025,128844366,,0.849415370168,-0.0320529866525,0.153265757795,0.696805581484,0.708938223858,0.051302966967,0.0961071378544,0.0110490447892,0.0110070776912,-0.0125214560564,0.0495071692489,-0.0277389033597,-0.0119693982379,1.01137208939,-0.202957436442,-0.047666311264,0.0102528296411,0.44554901123,-0.0596468932927
2017/07/09/09:33:42.339658,240700,1499564025,138843244,,0.849241987581,-0.0323615727925,0.15352423342,0.697074269954,0.708674779921,0.0512558617268,0.0961267658359,0.000637987647082,-0.0190626421115,-0.011273734947,0.0377255253817,-0.0255667743777,-0.0473106600016,1.35038614273,-0.762855291367,-0.269974857569,0.21756593883,0.627351343632,-0.0337580144405
2017/07/09/09:33:42.349389,240701,1499564025,148843154,,0.849068172843,-0.0320722632673,0.152560628452,0.69711710312,0.70871083497,0.0511341872904,0.0956137637819,0.000352123361179,0.00338771576856,-0.0169541653786,0.0421355384098,-0.00458170114562,-0.00493438300651,1.30704176426,-0.323893129826,-0.303177177906,0.0688306093216,0.540416657925,-0.080818131566
2017/07/09/09:33:42.359281,240702,1499564025,158842581,,0.849237803199,-0.0318908948569,0.153395506767,0.697137603051,0.708636304046,0.0515058650777,0.0958169967286,-0.0210967423889,0.00337323862805,-0.0318137931202,0.0516672358123,0.0497214982443,-0.0123441276712,2.14706969261,-0.413873493671,0.637899816036,0.112393505871,0.845272421837,-0.073484711349
2017/07/09/09:33:42.369188,240703,1499564025,168843498,,0.849795744068,-0.0322876628331,0.153606517461,0.697290918268,0.708387542286,0.0518097913807,0.0963753638211,-0.00925149209082,-0.00266445188646,-0.00957841417165,0.0265806318247,0.0115662855083,-0.0189503327161,1.23376047611,0.0202611833811,0.414100527763,0.000529985874891,0.481496423483,-0.0716059505939
2017/07/09/09:33:42.379667,240704,1499564025,178843576,,0.849300310227,-0.0324991700124,0.15307620307,0.697355009935,0.708415163524,0.0512731631708,0.0959948381194,-0.00672503492136,0.0140498860824,-0.0244404572967,0.0132144807498,0.0388845813489,0.0226385743919,1.14634132385,-0.560266435146,0.6280849576,0.181829735637,0.462470978498,-0.00393056869507
2017/07/09/09:33:42.389691,240705,1499564025,188853909,,0.849072757744,-0.0328944069249,0.152788436942,0.697343177373,0.70845432258,0.0510271647308,0.0959228557193,-0.00419568797288,0.000750920636944,-0.0138525564085,0.0109154485111,0.0152551522641,-0.00980560703839,1.10708296299,-0.9026517272,0.218603521585,0.25291800499,0.484133094549,0.00292483717203
2017/07/09/09:33:42.399427,240706,1499564025,198840503,,0.849547668716,-0.031712830054,0.15284249783,0.697231620848,0.708530228473,0.0516486566788,0.0958404846279,-0.000542640922559,-0.00610322127355,-0.00763257172892,-0.017765099096,0.00705547210121,0.0184852866395,0.648943006992,0.0244231000543,0.167145639658,-0.0140887890011,0.26971924305,-0.0456908419728
2017/07/09/09:33:42.409346,240707,1499564025,208843274,,0.849192472501,-0.0320130768007,0.152480933117,0.697180456322,0.708642669294,0.0511753422803,0.0956350506874,0.00658208387663,0.0114794628243,-0.00614591119539,0.0106316609111,-0.0041165869525,0.0265608223687,0.910451471806,-0.133933573961,0.444904267788,0.0876277536154,0.37729087472,-0.0210689678788
2017/07/09/09:33:42.419477,240708,1499564025,218891553,,0.849184236433,-0.032277249077,0.152812347335,0.697110678394,0.708678288428,0.0514630752119,0.0957253230311,0.00192274960058,-0.00392796135967,-0.00383343227179,0.00135268866169,-0.00620802500364,-0.0147401904455,0.14556337893,0.0391415804625,0.00610069744289,0.0380495265126,0.181305408478,-0.00999656319618
2017/07/09/09:33:42.429384,240709,1499564025,228879519,,0.849499107382,-0.0322273073117,0.152860170947,0.697080874781,0.708677345675,0.0511642994435,0.0961087311561,-0.00470469603832,0.0105216845582,-0.018628216919,0.000199325322475,0.027292279506,0.00350660691712,0.950739145279,-0.0147308111191,0.522657871246,0.0611362606287,0.402025014162,-0.0486707165837
2017/07/09/09:33:42.439401,240710,1499564025,238853506,,0.848662350576,-0.0313645670373,0.151654179408,0.696606544243,0.709348248719,0.0507518659208,0.094808399749,0.0002421014681,-0.00033172191229,-0.000764474633229,-0.00789650312141,0.000970302823562,0.00788973619127,0.483234196901,-0.1194460392,0.337544649839,-0.0012359842658,0.256371974945,-0.0630755648017
2017/07/09/09:33:42.449282,240711,1499564025,248845015,,0.848915860958,-0.0323582775715,0.15240925359,0.69738280368,0.708477033185,0.0507857090737,0.095594614569,-0.00314915146299,-0.0015773849024,-0.0012903234827,-0.00359216600865,0.0070176003549,0.0121327781481,0.705073952675,-0.358626723289,0.117409020662,0.141252294183,0.327999442816,-0.0188639312983
2017/07/09/09:33:42.459372,240712,1499564025,258848401,,0.849275523017,-0.0314097718541,0.152571557733,0.696980596512,0.708853181346,0.0516593771009,0.0952707937387,-0.00921720042555,0.0156996502767,-0.0108459892833,0.0238544633097,0.0347338209068,0.00800599921004,1.43612444401,-0.352871000767,0.25547131896,0.218243703246,0.510003209114,0.00727657228708
2017/07/09/09:33:42.469458,240713,1499564025,268852305,,0.849015293223,-0.0321158597273,0.152449849431,0.697029536771,0.708819450643,0.0508998036947,0.095572073547,-0.00256165049771,0.00212011359078,0.00139867273021,0.0183844577436,0.00291649361707,-0.0220754880225,1.23963880539,-0.332705676556,0.122040368617,0.219401106238,0.425334751606,0.0102743804455
2017/07/09/09:33:42.479558,240714,1499564025,278849165,,0.848998918245,-0.0319680323936,0.152201935644,0.697071947097,0.708800020133,0.0508593192686,0.0954283064599,-0.0172548188348,0.00476493861286,-0.0109336296381,-0.00141359861198,0.0517038761794,0.00519135424776,1.77175378799,-0.715872645378,0.0416396036744,0.198382511735,0.6060359478,-0.0565203800797
2017/07/09/09:33:42.489243,240715,1499564025,288842563,,0.84919340731,-0.0319184494171,0.152780039563,0.696658001857,0.709151149507,0.0510607831411,0.095734382678,0.0048329778753,-0.00501149883933,0.0150106163612,-0.0211450595625,-0.0141526670039,0.0080790965955,1.27899944782,-0.746692955494,0.163088843226,0.272671371698,0.484263122082,0.0198717340827
2017/07/09/09:33:42.499576,240716,1499564025,298840743,,0.848721012453,-0.032142831994,0.151992278891,0.697328328348,0.708582534656,0.0509342046451,0.0951299157044,0.00300669585689,0.00087040223881,0.0153737214295,0.00438980156383,-0.0163372870264,-0.00441667950214,0.880830287933,-0.565675914288,-0.257188051939,0.145777374506,0.321352809668,-0.0260720252991
2017/07/09/09:33:42.509653,240717,1499564025,308848547,,0.848887516763,-0.0320555099542,0.152500447956,0.697183074235,0.708687695641,0.0512335923789,0.0952503546392,-0.00187333886018,-0.00819883798765,-0.00676972291684,0.00546647415565,0.000643399475966,-0.0193615602125,1.68886852264,-0.733389496803,0.288342028856,0.261868864298,0.584342062473,-0.00134406983852
2017/07/09/09:33:42.519431,240718,1499564025,318841659,,0.848825458556,-0.0322249171426,0.15232418364,0.69716871298,0.708704603244,0.0508066850651,0.0954581150813,0.0079095101913,-0.00785459751951,0.00306101638974,-0.016582065801,-0.0208766685255,0.0152448308525,1.1149559021,-0.672886371613,-0.0436816066504,0.181056082249,0.416388779879,-0.0183507800102
2017/07/09/09:33:42.529553,240719,1499564025,328850134,,0.849701617979,-0.0319484645472,0.153231483144,0.697201344988,0.708520585368,0.0516758544097,0.0961169637897,0.00136752872329,0.0130812165204,-0.0052496128859,0.0108449249399,0.00498720031984,0.00873643286255,1.75172781944,-0.869011342525,0.499290883541,0.268713951111,0.600407779217,-0.0137769952416
2017/07/09/09:33:42.539415,240720,1499564025,338849430,,0.84954830691,-0.0318163902281,0.153115096327,0.697031669122,0.70872890605,0.0515861497128,0.0958595802643,0.00937518758016,-0.00340291106072,0.0122382271417,-0.00953105024845,-0.0273369786802,-0.0108288006865,1.40999901295,-0.472471863031,-0.186802849174,0.197153002024,0.44795614481,0.0197764113545
2017/07/09/09:33:42.549492,240721,1499564025,348845409,,0.849010869475,-0.0316450568263,0.152321435282,0.697092880865,0.708780854575,0.0511497452241,0.0952623703159,-0.000810922314333,6.96678408378e-05,-0.00615586660537,0.000129715197577,0.00840291114903,-0.00995849889283,1.16713941097,-0.359727561474,-0.370700150728,0.107295244932,0.417059272528,-0.0427086316049
2017/07/09/09:33:42.559587,240722,1499564025,358848623,,0.849820799583,-0.0313168394884,0.153033722706,0.697125146806,0.708631864901,0.0518263514478,0.0957676304016,-4.16106306264e-06,-0.0132289917529,0.00737173063331,-0.0128717525138,-0.00906342418087,-0.0228299479794,1.21178233624,0.140891835093,-0.280472517014,0.0402069576085,0.379901707172,-0.0413548611104
2017/07/09/09:33:42.569526,240723,1499564025,368844515,,0.849102425315,-0.0319315709971,0.152532242057,0.697274103274,0.708568384522,0.0512200321816,0.0954786764844,-0.00425612023192,0.0139158149114,-0.0128866349318,0.0261203804329,0.0141147014721,-0.0107569006427,0.943018436432,-0.605401575565,-0.051920838654,0.166027694941,0.348732322454,-0.0310242697597
2017/07/09/09:33:42.579541,240724,1499564025,378849440,,0.849109621317,-0.0315489834944,0.152199399784,0.697433681358,0.708446339227,0.0513835622214,0.0951303005232,0.00447195526321,-0.00844276253108,0.0153138725133,-0.0132586923935,-0.0206883390814,0.0154119048282,0.825110912323,-0.28490626812,-0.630011737347,0.142508253455,0.296646058559,-0.00811284780502
2017/07/09/09:33:42.589454,240725,1499564025,388840859,,0.849572951031,-0.0319479907615,0.152858389522,0.697004923171,0.708753626103,0.0514711261861,0.0959330898589,0.000313708710664,0.0149065425974,-0.00394362329842,0.0213363061873,0.00628922410874,0.00830978837856,1.314209342,-0.711835980415,0.171699091792,0.196344509721,0.440579682589,-0.00879203528166
2017/07/09/09:33:42.599720,240726,1499564025,398845708,,0.849060531153,-0.03174679176,0.152241966098,0.69718628369,0.708683764291,0.0513173999084,0.0952109895553,0.00566795411427,-0.00677784688552,0.00425365078398,-0.0165426233982,-0.0131502893492,0.0110159974905,0.811720907688,-0.606203615665,-0.447273433208,0.102294154465,0.362041562796,-0.0464502722025
2017/07/09/09:33:42.609416,240727,1499564025,408851945,,0.849362183595,-0.031190637564,0.152529468549,0.696760474925,0.709074367526,0.0513817954229,0.0953849726095,-0.00519728004052,-0.00260088424407,0.000481581356281,0.00528984330321,0.00562574716971,-0.0036078840602,1.5052241087,-0.169752508402,-0.0444007627666,0.163346469402,0.512653172016,-0.00479009002447
2017/07/09/09:33:42.619456,240728,1499564025,418847750,,0.849593810195,-0.03171237151,0.152745822741,0.696977543459,0.708804650928,0.0515620847431,0.095705914937,-0.00771736951768,-0.00285202609796,0.000531964080458,-0.000867273984003,0.00955102477726,0.00472385871504,1.23617827892,-0.367289364338,-0.132312208414,0.0814835131168,0.407455414534,-0.0725409984589
2017/07/09/09:33:42.629319,240729,1499564025,428849677,,0.848941180236,-0.0321303289449,0.152612726068,0.697180678582,0.708665381734,0.0510162112306,0.0955501142639,0.00427812282052,0.00643770233782,-0.0008443259982,-0.00479030037921,-0.00302996103644,0.00456666453074,1.58203268051,-1.25628399849,-0.363275766373,0.354190468788,0.673017024994,0.00576381385326
2017/07/09/09:33:42.639360,240730,1499564025,438848264,,0.84928014702,-0.0321454456948,0.152538441878,0.696842214199,0.708969613828,0.050985974941,0.0957781057338,-0.00828950158983,-0.00412683164979,-0.0204037218788,-0.00208670161273,0.0274975258078,0.00558056345407,1.61231195927,-0.772379219532,0.0166694913059,0.209734916687,0.569411695004,-0.0324432700872
2017/07/09/09:33:42.649424,240731,1499564025,448849843,,0.849458209726,-0.0319480331265,0.152868770495,0.697014452042,0.708766727774,0.0512204730946,0.0959012115732,0.0118147099604,-0.0170637044193,-0.00416789604177,-0.0186360769971,-0.0283124909347,-0.00554928464508,1.68891954422,-0.6273188591,0.405678510666,0.25153195858,0.684534728527,-0.0103193819523
2017/07/09/09:33:42.659549,240732,1499564025,458845950,,0.848679670956,-0.0318116517758,0.151864903698,0.697361618634,0.708572589245,0.0510214655864,0.0949129531503,0.00918477564411,0.018104696826,0.00765038322666,0.02509520225,-0.0211401169454,0.00419587347243,0.874078512192,-0.18162932992,-0.457414060831,0.0494031608105,0.453557044268,-0.0624925717711
2017/07/09/09:33:42.669286,240733,1499564025,468842096,,0.849427941308,-0.0313884483156,0.152561686702,0.697047325267,0.708763818074,0.0516394187385,0.0954580900682,0.00627705761062,0.00187919410916,0.00170932714832,0.010048428872,-0.0159355900736,-0.0142349723823,0.842220425606,-0.169690519571,0.0636401250958,0.0962184071541,0.416608899832,-0.0480577275157
2017/07/09/09:33:42.679322,240734,1499564025,478842968,,0.849241208014,-0.030960794962,0.15194985637,0.696826627344,0.709066416193,0.051450442427,0.0949227097522,0.0148297288005,0.000478218644965,0.0108717931676,0.0148316581013,-0.0443294490034,-0.00808581541899,0.322785794735,-0.346436679363,0.0329398997128,0.128722175956,0.2945535779,-0.0207691639662
2017/07/09/09:33:42.689553,240735,1499564025,488847742,,0.84902538328,-0.0309810334839,0.151645819648,0.697071524039,0.708853213519,0.0515445661939,0.0946655679371,0.00147993903642,-0.00505814789948,-0.00824693401513,-0.016454448466,0.00374415107989,-0.00540554030053,0.319455981255,0.0271960869431,-0.125788375735,0.0286593958735,0.279209166765,-0.0496462807059
2017/07/09/09:33:42.699525,240736,1499564025,498849248,,0.849948481088,-0.031360198712,0.152971502659,0.696992654124,0.708726446166,0.052048300369,0.0959116209404,0.000588730183445,0.0227105176612,-0.00915898807187,0.02090128413,0.00844378846564,0.00289852473477,1.49834704399,-0.548867464066,0.820749998093,0.15525701642,0.728662669659,-0.0552942715585
2017/07/09/09:33:42.709630,240737,1499564025,508848274,,0.84945174535,-0.0312031777655,0.152330408448,0.696923886679,0.708878388247,0.0519423468268,0.0953442156567,0.000538339125771,-0.00223907758276,0.00804717914143,0.012497280806,-0.0118766936348,-0.0174590399178,1.08608746529,-0.185690537095,-0.0900738909841,0.135155722499,0.549025833607,-0.0351395010948
2017/07/09/09:33:42.719581,240738,1499564025,518858583,,0.849910889489,-0.0313817890153,0.152971189961,0.697188247564,0.708535091054,0.0523554956389,0.0957364835411,0.00206753535857,-0.000272445402711,0.00729464588928,0.000965539062445,-0.010086195881,0.00323191357426,1.20745456219,-0.444806665182,0.342744410038,0.177380591631,0.51839029789,-0.0207004025578
2017/07/09/09:33:42.729554,240739,1499564025,528846721,,0.849630400355,-0.0315208532914,0.152608792379,0.697243289761,0.708542921245,0.0517742492747,0.0955936752548,0.000119535881712,0.00654905888856,-0.0047927166612,-0.00269769772372,0.00981365141819,0.02494788514,0.42595949769,-0.596421778202,0.543828070164,0.120582565665,0.317429423332,-0.0230881646276
2017/07/09/09:33:42.739644,240740,1499564025,538853273,,0.850088233986,-0.0315437282924,0.152840876037,0.697128252035,0.708569787036,0.0521894384892,0.0960068727958,0.00457883442831,0.0179047408703,-0.000127384031219,0.0113951427976,0.00372018851255,0.0329234747265,0.489253938198,-0.625457286835,0.36080878973,0.118789717555,0.301555484533,-0.0470323301852
2017/07/09/09:33:42.749287,240741,1499564025,548841983,,0.848972734397,-0.0316144084285,0.152184585769,0.697116934477,0.708757501367,0.0514517284202,0.0950973373097,-0.00146791161243,-0.00951624127194,-0.000332472287829,-0.00672669826443,0.00304859254451,-0.0057167745666,0.734435975552,-0.528718113899,-0.0327077023685,0.175212591887,0.467447429895,-0.0232884660363
2017/07/09/09:33:42.759449,240742,1499564025,558848546,,0.848848239892,-0.0310838688667,0.151614704918,0.697056311892,0.708896526828,0.0512873762431,0.0945929032327,-0.00180226669368,0.0073830537227,-0.0177920624733,0.0100929377979,0.0133778767515,-0.00800915227163,-0.299097716808,-0.42518004775,-0.535144686699,0.154395967722,0.0604828521609,0.00542421638966
2017/07/09/09:33:42.769757,240743,1499564025,568849866,,0.849671519418,-0.0315873345757,0.15289802117,0.697148914434,0.708608526222,0.0520918232638,0.0956231646458,0.0047348417048,0.0169999919537,-0.00923631791629,0.0241797302155,-7.50521170236e-06,0.00437907824635,1.12439572811,-0.836099863052,0.822131037712,0.266005456448,0.540425240993,-0.00746966153383
2017/07/09/09:33:42.779496,240744,1499564025,578849112,,0.849298541102,-0.031583857313,0.151879419029,0.697168678498,0.70867076906,0.051635197294,0.0952647951859,0.00589748883445,-0.00325261088643,0.00825955911646,0.00211657474951,-0.0247489582288,0.000980216111309,0.57321113348,-0.314614415169,-0.316941916943,0.166374057531,0.302655130625,0.00868056714535
2017/07/09/09:33:42.789805,240745,1499564025,588841162,,0.84947283062,-0.0312322698779,0.152056332267,0.696957163638,0.708873909305,0.0516283859754,0.0953047875068,-0.00438215796683,0.00151195304723,0.00122927486786,-0.00428291977859,0.014063976937,-0.00262924153114,0.565303146839,-0.0485543161631,-0.0136162489653,0.0471603795886,0.317698419094,-0.0322805903852
2017/07/09/09:33:42.799564,240746,1499564025,598855522,,0.849588549971,-0.031137710649,0.152345136737,0.696833058467,0.708968259974,0.0518195728683,0.0954066394124,-0.00530634757082,-0.0053023460068,0.0015512395629,-0.0145332054294,0.0166946721146,-0.0132001264298,0.80326795578,-0.435499370098,0.229676127434,0.108766973019,0.453932285309,-0.0464948937297
2017/07/09/09:33:42.809530,240747,1499564025,608854706,,0.849411356274,-0.0314389113474,0.152287198597,0.697140515332,0.708701525452,0.0516143179856,0.095253408779,-0.00837218532592,0.00703021133367,-0.00976609353763,0.0208334046549,0.0231290356219,0.00633853055877,0.282502740622,-0.334942936897,-0.019402500242,0.092709004879,0.185737073421,-0.021539978683
2017/07/09/09:33:42.819471,240748,1499564025,618855397,,0.848993138089,-0.0315250389528,0.151909570348,0.697511607176,0.708398948153,0.0516256444033,0.0947801717155,0.00294791651926,0.00752808778197,0.00415228191164,0.0215377541661,-0.0116156865751,0.0171544386169,0.282495856285,-0.825981020927,-0.166187018156,0.155072152615,0.260158985853,-0.00411284714937
2017/07/09/09:33:42.829537,240749,1499564025,628849030,,0.848902217018,-0.0309457916115,0.152024489653,0.697165062969,0.708762018484,0.0514802182394,0.0946945788323,-0.00131511304317,-0.00433472268629,0.0015132861481,0.000768683699162,0.00130752081448,-0.0213299965157,1.00765144825,-0.391440033913,0.377820849419,0.156738117337,0.461389392614,-0.032131601125
2017/07/09/09:33:42.839588,240750,1499564025,638842772,,0.849389051792,-0.0308481238896,0.151748041054,0.697350581464,0.708547690509,0.0523036834613,0.0944810113337,9.58613916589e-05,0.0145950871839,-0.0136737238078,0.0311571061569,0.00873351942972,-0.00307719246701,0.705641627312,-0.621378958225,0.270095825195,0.158486574888,0.344229906797,-0.014271683991
2017/07/09/09:33:42.849416,240751,1499564025,648843608,,0.850096280334,-0.0310662539555,0.152807028767,0.697037286933,0.70868929248,0.0522753794027,0.0957381431739,-0.00151544164363,-0.000597507968111,-0.0061987070465,0.0107984138587,0.00474416695672,-0.0039864614539,1.07378757,-0.214386552572,0.521569848061,0.0592597387731,0.456952542067,-0.0612562336028
2017/07/09/09:33:42.859538,240752,1499564025,658843515,,0.848798031591,-0.0315742052424,0.151331529057,0.697381935083,0.708582208122,0.0513509544487,0.0945133346736,0.0070669967014,0.00650622979939,0.000591279476335,-0.00338364230495,-0.00882079893429,0.0177641455919,-0.186451852322,-0.545736014843,-0.0838009342551,0.0405224449933,0.0799244567752,-0.0286970287561
2017/07/09/09:33:42.869435,240753,1499564025,668846856,,0.849489275643,-0.031578608551,0.152277620327,0.697508722765,0.708315919281,0.0517572834266,0.0953484335057,-0.0034749704836,0.00126614786328,-0.011294006093,-0.0010902123526,0.0183399351574,-0.00519540412664,0.496498316526,-0.670577287674,0.44237151742,0.0968858599663,0.303397417068,-0.0456224493682
2017/07/09/09:33:42.879596,240754,1499564025,678856559,,0.849541186467,-0.030628453434,0.151764462613,0.697231120741,0.70863481326,0.0522497166864,0.0947387608793,0.00377651049544,-0.00601629883616,-0.0023424277891,-0.00112568520666,-0.0114307993212,-0.0190362797993,0.311016440392,0.135256588459,0.285768449306,-0.0406958758831,0.185971781611,-0.0585954971611
2017/07/09/09:33:42.889500,240755,1499564025,688841556,,0.849644592591,-0.0308049880676,0.151796945531,0.697050469054,0.708782937387,0.0521636670804,0.0950070686694,0.0042884261255,0.00568244597344,0.000513344729722,0.00191181047085,-0.00764855180305,0.0225966611892,0.0779473036528,-0.0927937701344,0.316797733307,-0.00238148868084,0.179031118751,-0.0358690135181
2017/07/09/09:33:42.899223,240756,1499564025,698855038,,0.849722631436,-0.031143340153,0.151760743835,0.69719762595,0.708621909138,0.0522853167706,0.0950615900859,0.00956546233647,0.0116186526617,0.00540604932144,0.0149119415323,-0.0221545809825,0.0183642216151,0.297564536333,-0.160900890827,0.155142694712,0.0351814702153,0.262806683779,-0.0576665699482
2017/07/09/09:33:42.909432,240757,1499564025,708853540,,0.849553204305,-0.0305702724857,0.151722400461,0.696905017088,0.70896106101,0.0520803639783,0.0947905418164,-0.00433157061093,0.00806622070114,-0.00735509315191,0.0289405578271,0.00569474678981,-0.00377399339242,0.640320122242,-0.0868304520845,0.560792088509,0.035529140383,0.399702340364,-0.0636117532849
2017/07/09/09:33:42.919511,240758,1499564025,718855736,,0.849232649273,-0.0315178505329,0.151955851128,0.69773729221,0.708149193113,0.0519228720892,0.0948230283592,-0.0019524712852,-0.0121067993919,0.000179775212684,0.00655126820782,-0.00533077282118,-0.0100042628083,-0.211510837078,-0.130235478282,0.219823896885,0.0350527651608,0.125865831971,-0.0334616489708
2017/07/09/09:33:42.929716,240759,1499564025,728848935,,0.84963257064,-0.031061751992,0.151812366569,0.69729120201,0.708547527378,0.0523302857716,0.0949048061826,-0.0160177728477,-0.00439689817679,-0.0230219788417,0.0163678174948,0.0405255544533,-0.0308148163927,1.2687599659,-0.232183665037,0.526446342468,0.105569191277,0.584802031517,-0.0539403222501
2017/07/09/09:33:42.939615,240760,1499564025,738858800,,0.849512187214,-0.0304891904483,0.151704973443,0.697296350095,0.708606723994,0.0522064414391,0.0944923188751,0.00774834952808,0.00387114819909,0.00599989913117,0.0159994338853,-0.0204116452587,-0.00824878612314,0.627057254314,-0.046066775918,0.573379635811,-0.0383612029254,0.402007550001,-0.090624473989
2017/07/09/09:33:42.949282,240761,1499564025,748857548,,0.849636611217,-0.0312328971025,0.151976904728,0.697245854748,0.708580391197,0.0519604714892,0.0951953604451,0.00520227692063,-0.0169872320412,0.00324502997418,-0.00919427066638,-0.0233528283918,-0.00299843551163,1.13609814644,0.139627888799,0.00228488631546,-0.0130152031779,0.575049459934,-0.110821984708
2017/07/09/09:33:42.959421,240762,1499564025,758854421,,0.849639403512,-0.0306789745697,0.151479909151,0.697314898572,0.708558743726,0.0524753139479,0.0945662748817,0.00342303856015,0.0169508154227,-0.00492090820582,0.0325943285717,-0.00678954422538,-0.00253236467977,0.755014538765,0.100070059299,0.030710587278,-0.0196572393179,0.428891003132,-0.0765059292316
2017/07/09/09:33:42.969234,240763,1499564025,768859629,,0.849479849958,-0.0320843506809,0.152147565245,0.697568167404,0.708235117003,0.0521329248062,0.0953091234863,-0.00293824072418,-0.0125056538794,-0.0105901864957,-0.0256862240926,0.0113029724399,0.00621404482584,0.857401132584,-0.926313400269,0.721350252628,0.225821763277,0.498653829098,-0.0216763466597
2017/07/09/09:33:42.979501,240764,1499564025,778855268,,0.849421338941,-0.031106840325,0.151835563164,0.697204467767,0.708642726924,0.0519898755299,0.0950182537479,-0.0040602860082,-0.02276095041,-0.00274537754035,-0.0282310871576,0.0017350961698,-0.0154690336521,1.10453736782,-0.049384444952,0.271824210882,0.0974891036749,0.629056334496,-0.0474520251155
2017/07/09/09:33:42.989568,240765,1499564025,788855191,,0.849373821645,-0.0311097143002,0.150919909388,0.697337611853,0.708561658895,0.0521113001521,0.0945782376497,0.0148791452396,-0.00217942475222,0.00982690311426,-0.0167610782427,-0.0339447577888,0.00890193105392,0.405634433031,-0.0999488383532,-0.115962170064,-0.00339800864458,0.386597305536,-0.0618231520057
2017/07/09/09:33:42.999595,240766,1499564025,798855712,,0.849963089858,-0.0311076509378,0.151970772518,0.696775363021,0.709002082187,0.052029731903,0.0954622854287,-0.00537887083427,0.0153541028724,-0.0233788300452,0.00474296242133,0.0392694788815,0.0254368520845,1.5020403862,-0.0842276662588,0.871531903744,0.0731852501631,0.694790363312,-0.0781546160579
2017/07/09/09:33:43.009583,240767,1499564025,808841839,,0.849925589945,-0.0311292825134,0.151970604779,0.697242948813,0.708543181454,0.0523735571306,0.0952672076764,0.00295498209482,-4.99493533126e-05,0.00260527815881,-0.0108100899373,-0.00458356246077,-0.00493868398644,0.576686143875,0.273800849915,0.544835567474,-0.0868292748928,0.39333358407,-0.0800577774644
2017/07/09/09:33:43.019392,240768,1499564025,818844020,,0.849883497203,-0.03094448227,0.15168052006,0.697426971521,0.70839075954,0.0525072987518,0.0949796545087,-0.00291090542678,-0.0164708209814,0.00441796641024,-0.0108554535342,-0.00783019058388,-0.0190330017928,0.679741799831,0.325450748205,0.466280400753,-0.0757351145148,0.378754287958,-0.0763214156032
2017/07/09/09:33:43.029473,240769,1499564025,828850696,,0.849710421718,-0.0314662368954,0.151640521832,0.697040912941,0.708775158589,0.0519765718012,0.0952374728575,0.00925673216281,-0.00555805345665,0.0149030628074,-0.0174517507284,-0.0238876948413,0.0035045543761,0.323015987873,-0.103121928871,-0.0821516439319,-0.00773662701249,0.333479911089,-0.0498399734497
2017/07/09/09:33:43.039694,240770,1499564025,838842683,,0.849674498125,-0.0314450125941,0.152075761416,0.697293511025,0.708523544798,0.052230054192,0.0951218554753,-0.0060452808119,0.000880281676505,0.00222718236367,0.0173409929608,0.00889925078032,-0.00758502519952,-0.375540465117,-0.23977047205,0.350150495768,0.0293737314641,0.019689168781,-0.0201564207673
2017/07/09/09:33:43.049624,240771,1499564025,848849945,,0.84967445406,-0.0309985329453,0.152275361286,0.696889185321,0.708926698035,0.0520272282267,0.095192267117,-0.00175017033581,-0.00425016089535,0.00562657025055,0.00773501696051,-0.00338253585666,0.000905781107731,0.889997899532,0.182352691889,0.264261573553,-0.0331325158477,0.463334143162,-0.0790070816875
