time,.header.seq,.header.stamp.secs,.header.stamp.nsecs,.header.frame_id,.pose.position.x,.pose.position.y,.pose.position.z,.pose.orientation.x,.pose.orientation.y,.pose.orientation.z,.pose.orientation.w,.twist.linear.x,.twist.linear.y,.twist.linear.z,.twist.angular.x,.twist.angular.y,.twist.angular.z,.wrench.force.x,.wrench.force.y,.wrench.force.z,.wrench.torque.x,.wrench.torque.y,.wrench.torque.z
2017/07/09/09:37:16.679227,262134,1499564239,479248023,,0.790460775253,0.535431497461,0.24933892457,0.610803932134,0.783563210839,0.0672331207438,0.0917984672211,0.0860049159704,-0.329508311567,-0.0402831663887,-0.0203875945854,0.0704456980072,-0.413822873618,1.91136980057,1.50478899479,0.329455912113,-0.972616255283,0.757250607014,-0.298413455486
2017/07/09/09:37:16.689814,262135,1499564239,489245866,,0.791074523007,0.532196446838,0.248299730495,0.612263838936,0.782545975196,0.0662158278073,0.0914890834097,0.0748851358319,-0.327597542909,-0.0470714200753,-0.0240621050787,0.0932520002081,-0.427242051344,1.61863934994,1.33007097244,0.371168553829,-0.877772092819,0.67433321476,-0.309129983187
2017/07/09/09:37:16.699180,262136,1499564239,499239757,,0.791963472369,0.529380747923,0.248232189592,0.613905427881,0.7812829505,0.0661659856418,0.09131888754,0.0883220485722,-0.339951258593,-0.03989740131,-0.0535777434555,0.0597506283758,-0.40783416973,1.15824306011,1.01273488998,0.136990100145,-0.73197811842,0.519654691219,-0.256887495518
2017/07/09/09:37:16.709287,262137,1499564239,509240690,,0.792835483619,0.526343359807,0.248205153314,0.614762092868,0.780619312604,0.0657220228423,0.0915514810137,0.0783764184478,-0.348138512609,-0.0566482884132,-0.0576957553291,0.103065465725,-0.400083931632,1.1432287693,0.825475096703,-0.0225023347884,-0.653868615627,0.517049789429,-0.245422795415
2017/07/09/09:37:16.719485,262138,1499564239,519249789,,0.793071962633,0.522426878056,0.246719035598,0.61615899479,0.779699205626,0.0639214079867,0.0912759304954,0.0881372292809,-0.351763705169,-0.0632363291829,-0.0674167126577,0.0895441942184,-0.383033432158,1.01203322411,0.743696451187,-0.0283948201686,-0.636907637119,0.476964622736,-0.243530884385
2017/07/09/09:37:16.729329,262139,1499564239,529245017,,0.793796076656,0.520034238842,0.246266113742,0.617264300679,0.778891533915,0.0637847841781,0.0907979229382,0.0742978278957,-0.326199354479,-0.04839796369,-0.0369872250498,0.0931510837915,-0.321250146411,0.753043591976,0.706766188145,0.0713585466146,-0.565516412258,0.43561643362,-0.17673677206
2017/07/09/09:37:16.739383,262140,1499564239,539247719,,0.795480793691,0.515967614329,0.246467622669,0.618925762366,0.777493737197,0.0636872865424,0.0915331570079,0.0651985152346,-0.35045701505,-0.0514966891911,-0.0852609271033,0.116583414779,-0.329236560613,1.02463698387,0.767256915569,0.126052111387,-0.657942593098,0.520587086678,-0.247943609953
2017/07/09/09:37:16.749573,262141,1499564239,549242157,,0.796223688013,0.511940597355,0.245766279022,0.620267022111,0.776507322256,0.0625789435557,0.0915918969609,0.0922892887441,-0.347961102814,-0.040982387396,-0.0314128136979,0.0612638438511,-0.369078803012,0.751455664635,0.941420435905,0.00395437516272,-0.726722717285,0.361559599638,-0.256063759327
2017/07/09/09:37:16.759374,262142,1499564239,559247776,,0.796831715203,0.509556775202,0.246007257164,0.621472698179,0.775545023875,0.062528195038,0.091606911233,0.0957960584595,-0.364752591879,-0.0256355280728,-0.0678000674213,0.0403503255851,-0.374881096726,0.497609913349,0.592512488365,0.0167457219213,-0.606898844242,0.304136067629,-0.242007821798
2017/07/09/09:37:16.769339,262143,1499564239,569240790,,0.797664386789,0.505720448375,0.245091754957,0.62304482327,0.774385044022,0.0615552594191,0.0913996817824,0.0886435289481,-0.368594822819,-0.0481725420229,-0.0542443500033,0.0772897345202,-0.386020088633,0.745768249035,0.787929654121,0.190631493926,-0.668044507504,0.418793529272,-0.24524281919
2017/07/09/09:37:16.779468,262144,1499564239,579248399,,0.799043753185,0.500411495504,0.244494815099,0.624779318975,0.772967478697,0.0604965341838,0.0922618491583,0.0842961073265,-0.367221501424,-0.053550744273,-0.0611513464688,0.0838328276959,-0.352646116095,1.0698056221,0.886455118656,0.230606481433,-0.642388701439,0.571741104126,-0.267979383469
2017/07/09/09:37:16.789367,262145,1499564239,589252112,,0.799730429172,0.497641232343,0.244424876121,0.625780221892,0.772221932751,0.0602826970232,0.0918607473688,0.10338798116,-0.393439768977,-0.0430500848906,-0.0930390218602,0.0420512272788,-0.352814851805,1.0843091011,0.655838549137,0.310656666756,-0.601187229156,0.566393077374,-0.244969442487
2017/07/09/09:37:16.799471,262146,1499564239,599253308,,0.800697262869,0.494447297881,0.24390115035,0.627454263528,0.770873421381,0.0598967905258,0.0920200514768,0.0983430060307,-0.353206724076,-0.0395609682286,-0.0371234833582,0.0313140188013,-0.359305906073,0.414806216955,0.585720419884,0.16998834908,-0.567456185818,0.314377993345,-0.229152545333
2017/07/09/09:37:16.809265,262147,1499564239,609245546,,0.801708905531,0.491440736635,0.243966100735,0.628771136636,0.769772368443,0.0599780878072,0.0921953767768,0.0929779548125,-0.35395284286,-0.0390379829133,-0.0458297959936,0.031404464586,-0.394387790552,0.321900248528,0.580333590508,0.147718533874,-0.535575866699,0.31220382452,-0.205500543118
2017/07/09/09:37:16.819402,262148,1499564239,619246435,,0.802556828465,0.48774183803,0.243770122678,0.630360814347,0.768489189887,0.0596262600757,0.0922730614676,0.09930230548,-0.340568278643,-0.0330990339418,0.000633956875892,0.00917364933129,-0.410726850646,0.156764164567,0.406803309917,-0.0533055141568,-0.490973681211,0.239981949329,-0.173899412155
2017/07/09/09:37:16.829193,262149,1499564239,629245290,,0.80313241676,0.485504619016,0.242647437251,0.631978382981,0.767271715056,0.0594554898047,0.0914466153126,0.0886614323256,-0.343029104747,-0.0334487402647,0.0220443361722,0.0249537657424,-0.45689550408,0.130641549826,0.462114274502,0.183961540461,-0.539677262306,0.25525033474,-0.202323824167
2017/07/09/09:37:16.839388,262150,1499564239,639244045,,0.805028318436,0.480782333973,0.242441533977,0.634317852698,0.765227054631,0.0593571549785,0.0924399522003,0.10684676807,-0.352223789993,-0.0359716630126,0.011940346948,-0.00455886078462,-0.474884133142,0.814763069153,0.596487998962,0.204227864742,-0.582604587078,0.503070414066,-0.230758398771
2017/07/09/09:37:16.849576,262151,1499564239,649249477,,0.805242603945,0.478014549178,0.241844552088,0.635276293486,0.764504027899,0.058502431213,0.0923855389312,0.101717274423,-0.346211985617,-0.0335236736554,0.0124270482108,0.00249630885045,-0.459420830639,0.536429107189,0.36176776886,-0.00309049524367,-0.412865579128,0.28023442626,-0.171409755945
2017/07/09/09:37:16.859526,262152,1499564239,659246418,,0.806230395834,0.474393900158,0.241521442027,0.637276560658,0.762860644982,0.0583735385803,0.0922754115037,0.0880509308907,-0.356163888374,-0.0370814505448,-0.00690231724012,0.0310264663896,-0.462794158092,0.951531231403,0.763612151146,0.00211190618575,-0.609046697617,0.400178641081,-0.260415256023
2017/07/09/09:37:16.869721,262153,1499564239,669254489,,0.807288781738,0.471696275924,0.24162218203,0.638541328794,0.761782815082,0.0587879962727,0.0921731281945,0.0977913833255,-0.339844069524,-0.0257348553726,0.00373046936643,-0.0147498142957,-0.438209475697,0.884732782841,0.649427175522,0.0999315157533,-0.530195236206,0.401290535927,-0.215234041214
2017/07/09/09:37:16.879731,262154,1499564239,679254622,,0.808786810369,0.466916231329,0.241184162554,0.640794263607,0.759813706533,0.0582118852971,0.0931515942075,0.112232639643,-0.338639647006,-0.00756006391233,0.0292301549387,-0.0585515029551,-0.442276953784,1.14829051495,0.770518779755,0.128130018711,-0.567460775375,0.504122316837,-0.23889157176
2017/07/09/09:37:16.889261,262155,1499564239,689251235,,0.809850728608,0.464511499824,0.241819573396,0.642182059079,0.758568642641,0.0589676034661,0.0932664952716,0.116916514546,-0.350914954203,-0.0143922353461,0.0344418792155,-0.0517349963537,-0.473184494329,1.17936789989,0.842619538307,0.112921603024,-0.652466654778,0.515624523163,-0.23987865448
2017/07/09/09:37:16.899364,262156,1499564239,699240664,,0.81088260446,0.461563069808,0.241550032011,0.643837272757,0.757140711107,0.0592180365153,0.0932991636819,0.10978829113,-0.357419924287,-0.0193994657441,0.0294191675042,-0.033398100366,-0.481690627835,1.3229392767,0.87977617979,0.0927965044975,-0.699972212315,0.562806963921,-0.289576649666
2017/07/09/09:37:16.909286,262157,1499564239,709239911,,0.811764588345,0.457700496909,0.241268449858,0.645779189004,0.755493598378,0.0587664356801,0.0935156024257,0.115769344978,-0.338401750898,-0.00534924548418,0.0408260466296,-0.0667325235743,-0.456351634574,1.14578795433,0.838249385357,0.0801014378667,-0.681737303734,0.475427567959,-0.236799225211
2017/07/09/09:37:16.919565,262158,1499564239,719261151,,0.812929353517,0.454157975393,0.24121008949,0.647588168441,0.753940386624,0.0588630873537,0.0934804496195,0.110332774788,-0.359755455322,0.000248303645215,0.0396483868269,-0.0524146986466,-0.48825672956,1.18847155571,0.772997975349,0.0743763819337,-0.70758998394,0.451563984156,-0.288073301315
2017/07/09/09:37:16.929471,262159,1499564239,729241579,,0.813370052567,0.450771705304,0.240240420898,0.648979391857,0.752833533942,0.0580256939012,0.0932761382412,0.102473726012,-0.357545919302,0.000232217014381,0.0297275251542,-0.0351682980255,-0.491100562209,1.13645923138,0.636654913425,-0.027854250744,-0.628932058811,0.389907956123,-0.253814905882
2017/07/09/09:37:16.939427,262160,1499564239,739241583,,0.815203196074,0.447913335962,0.241644752107,0.651250020925,0.750645010411,0.059357500452,0.0942452424785,0.0989231500032,-0.35671711518,-0.0174795678326,0.021679128516,-0.0133259275847,-0.474625761746,1.82237422466,0.903793692589,0.0628432258964,-0.753400087357,0.695958375931,-0.319041192532
2017/07/09/09:37:16.949439,262161,1499564239,749240408,,0.815582249803,0.444389756047,0.240606313171,0.65255353417,0.749642211966,0.0586213107511,0.0936695308299,0.101526776736,-0.344472455602,-0.00478745440518,0.0389287691998,-0.0270714441723,-0.475346947057,1.24949073792,0.687744796276,0.0432534776628,-0.657146155834,0.480897933245,-0.29232236743
2017/07/09/09:37:16.959229,262162,1499564239,759252154,,0.81656839479,0.44211519564,0.241383722964,0.653749174914,0.748505295858,0.0592332612811,0.0940386044686,0.110186003883,-0.347603355901,-0.00596634728653,0.0314809816596,-0.0505471821984,-0.463830177552,1.46010923386,0.637484192848,0.0751893222332,-0.591742992401,0.603243708611,-0.207667469978
2017/07/09/09:37:16.969213,262163,1499564239,769253204,,0.817729196873,0.437742678292,0.241155765632,0.655678718652,0.746798694119,0.0588252115229,0.094428400693,0.102863748926,-0.348494464955,0.00817446476119,0.0162089361858,-0.0508668763735,-0.461362544415,1.23933696747,0.549861967564,0.0829893797636,-0.589100658894,0.539368629456,-0.241217106581
2017/07/09/09:37:16.979351,262164,1499564239,779254217,,0.818719812717,0.434186631994,0.241088837208,0.657624951556,0.745050226504,0.0588065905282,0.0947173056349,0.116186967719,-0.377083300875,0.0210650367805,0.00695729340541,-0.0818561712417,-0.496783089203,0.348146766424,0.517209351063,-0.0105343516916,-0.576813161373,0.176997050643,-0.227211296558
2017/07/09/09:37:16.989322,262165,1499564239,789241377,,0.819783286366,0.430615273292,0.241154379138,0.659127402284,0.743712979908,0.0587923467285,0.094792041021,0.107412086124,-0.384377157793,-0.003612194333,0.00725058388459,-0.0428235585494,-0.497933504234,-0.0590007230639,0.326553702354,-0.0641546547413,-0.533562600613,0.0744908004999,-0.212596029043
2017/07/09/09:37:16.999538,262166,1499564239,799269730,,0.820979942391,0.42671248345,0.241563239077,0.661529530109,0.741519076362,0.0590760275004,0.0950692545474,0.102583898088,-0.379196822613,0.00917998263089,0.0187429682883,-0.0456041502984,-0.501451316527,-0.0250500664115,0.466773092747,-0.0581869445741,-0.609216332436,0.123753644526,-0.25170558691
2017/07/09/09:37:17.009430,262167,1499564239,809241054,,0.821959998959,0.423040792777,0.241495137301,0.662970290306,0.740176723363,0.0588440235941,0.0956357320828,0.0987622660212,-0.355496181362,0.0116859989334,0.0433767750559,-0.0429307325433,-0.476642389657,0.233724027872,0.557506203651,-0.0260128006339,-0.699171662331,0.269253671169,-0.298104733229
2017/07/09/09:37:17.019485,262168,1499564239,819253513,,0.822785376904,0.41986497208,0.24195265897,0.664584545725,0.73864634786,0.0588802556752,0.0962396481075,0.0941519843031,-0.362788186648,0.0153643001699,0.0211739312385,-0.0472347907188,-0.46744735193,0.187517076731,0.19578833878,0.0144221223891,-0.500307261944,0.312303125858,-0.26441603899
2017/07/09/09:37:17.029494,262169,1499564239,829277880,,0.823481644791,0.417139838116,0.241753047034,0.665715134265,0.737703373159,0.059192887116,0.0954635813024,0.0930693793678,-0.375419206145,0.0172098813869,0.00273623863138,-0.0515276581268,-0.491021376911,0.244427978992,0.326873242855,0.0711221694946,-0.619896411896,0.337526291609,-0.318106293678
2017/07/09/09:37:17.039407,262170,1499564239,839248794,,0.824284056868,0.413040909536,0.24145837907,0.667992704339,0.73564105225,0.0585629250212,0.0958560014142,0.0762489639015,-0.35391075082,-0.00790864727305,0.00867952751632,-0.00292126065726,-0.43334010745,0.204890981317,0.510962724686,0.0481150373816,-0.667295157909,0.319025754929,-0.378637760878
2017/07/09/09:37:17.049191,262171,1499564239,849246443,,0.825394417082,0.409185687051,0.242321809608,0.669318783729,0.734309471403,0.0587709704554,0.0966847401991,0.076809430398,-0.375474157228,-0.00401558035403,0.00666878726594,-0.0053704353768,-0.496229428103,0.774620771408,0.788266718388,0.0636714920402,-0.766046285629,0.501220166683,-0.411509901285
2017/07/09/09:37:17.059559,262172,1499564239,859251331,,0.826247482057,0.405904418476,0.242010175699,0.670849752733,0.732901478144,0.0585323419858,0.0969019996429,0.079033831023,-0.342668898827,0.00327564092581,0.00343855127013,-0.0353831068157,-0.412831650071,0.553886711597,1.01118087769,-0.0163442566991,-0.887603282928,0.353626191616,-0.477885961533
2017/07/09/09:37:17.069273,262173,1499564239,869239832,,0.827073838049,0.402805656345,0.241903050002,0.672658942639,0.731219142523,0.0588583538201,0.0968721150827,0.0795372710133,-0.361277259793,0.000719493975194,-0.00286963008258,-0.0242249831681,-0.442458387147,0.246327191591,0.90297806263,-0.206095635891,-0.834480762482,0.140906304121,-0.457657784224
2017/07/09/09:37:17.079509,262174,1499564239,879244061,,0.827882858791,0.398424777684,0.242317725847,0.674099164471,0.729829432402,0.0584817203735,0.0975664104183,0.103848865619,-0.368368828751,0.0162931317829,0.0159805952509,-0.0917377002939,-0.470857269496,0.633822917938,0.853064417839,-0.303375422955,-0.807858586311,0.243188887835,-0.472934812307
2017/07/09/09:37:17.089636,262175,1499564239,889246903,,0.828497217445,0.395612221244,0.241436336202,0.675449538124,0.728614025297,0.0582275050114,0.0974632302358,0.0891038437692,-0.327340882239,0.0191151401532,0.0192645796756,-0.0888216946236,-0.386683028461,0.453784108162,0.615318536758,-0.231776922941,-0.635782063007,0.19830262661,-0.400668680668
2017/07/09/09:37:17.099295,262176,1499564239,899240354,,0.829840133771,0.392019627767,0.242224895254,0.67688232409,0.727117279989,0.0588219395641,0.0983400218777,0.0921646555826,-0.349114800058,-0.00280325343569,0.0136543755562,-0.0810606350264,-0.412461057201,1.00738072395,0.818999052048,-0.065404728055,-0.739694774151,0.438714087009,-0.436775565147
2017/07/09/09:37:17.109222,262177,1499564239,909242861,,0.831047159561,0.388243037801,0.24233739393,0.679056567986,0.724996867234,0.059363572583,0.0986797153746,0.110419455272,-0.360406186221,0.00788033704163,0.0239102817152,-0.124777711653,-0.430772026579,1.33403122425,0.629014492035,0.0766758099198,-0.655027270317,0.632062911987,-0.427555084229
2017/07/09/09:37:17.119365,262178,1499564239,919252994,,0.831825609442,0.386361372268,0.242102820592,0.679301422377,0.724748193885,0.0598089993975,0.0985521009805,0.112721091172,-0.34995737101,0.00964733714924,0.0425556139606,-0.130660865284,-0.417948449673,1.09220409393,0.678801417351,0.155203863978,-0.729123294353,0.579167664051,-0.422163009644
2017/07/09/09:37:17.129421,262179,1499564239,929247986,,0.832677807705,0.382504674626,0.2425074057,0.681301270833,0.722792632821,0.0600403645538,0.0989673831353,0.0974370727877,-0.346476923637,-0.00326876683112,0.0336141117198,-0.0904790488321,-0.416857756342,0.579550504684,0.551743149757,-0.135412245989,-0.627774477005,0.312955915928,-0.378574281931
2017/07/09/09:37:17.139524,262180,1499564239,939248144,,0.833881470222,0.378945902527,0.242019790115,0.682500847592,0.721556248762,0.060161128714,0.0996484395298,0.0980150570123,-0.350674124991,0.0104702931857,0.02448952612,-0.108417142326,-0.410577028737,0.178071215749,0.66004961729,-0.108292736113,-0.728194177151,0.138758420944,-0.433968126774
2017/07/09/09:37:17.149195,262181,1499564239,949243834,,0.835111464545,0.375904480955,0.243082429679,0.683765486918,0.720155356831,0.0609329158691,0.10063896209,0.105100238662,-0.356873225803,0.00411940500773,0.0284714592108,-0.121012751369,-0.428539418257,0.424816846848,0.90326076746,-0.204981148243,-0.825415372849,0.204018086195,-0.494751811028
2017/07/09/09:37:17.159485,262182,1499564239,959249974,,0.836237025899,0.372008080246,0.242904003146,0.685225575118,0.718680703356,0.0609301920316,0.101249540869,0.10185478999,-0.338428388828,0.0194790980828,0.0395295748979,-0.135151157583,-0.375451109402,-0.0874073803425,0.753193497658,-0.137727499008,-0.696947336197,0.0410726815462,-0.437224209309
2017/07/09/09:37:17.169326,262183,1499564239,969240946,,0.836397766529,0.369638933129,0.242073860771,0.68623773277,0.717808421702,0.0607250420413,0.100704086939,0.0986810733338,-0.327750120765,0.0125202441942,0.030898025103,-0.134239579765,-0.352654421047,-0.398985862732,0.387663125992,-0.0932373255491,-0.547292351723,-0.0582552328706,-0.368579477072
2017/07/09/09:37:17.179464,262184,1499564239,979246348,,0.837771690104,0.365799757596,0.242741664311,0.687550746587,0.716343530189,0.0613597517932,0.101788498785,0.105352261917,-0.332322844437,0.0030604194975,0.00969420745526,-0.142385946068,-0.315958619245,-0.445153713226,0.23366433382,-0.0764276236296,-0.421649008989,-0.0396236404777,-0.29872366786
2017/07/09/09:37:17.189424,262185,1499564239,989241803,,0.838787162179,0.363308289362,0.242955403578,0.688481426234,0.71536773042,0.0621149084923,0.101902277439,0.106319915653,-0.362907661132,-0.00369021641549,0.0169174042208,-0.116918538458,-0.356717948666,-0.706883430481,0.0533054471016,-0.149165868759,-0.385074526072,-0.150359392166,-0.271399885416
2017/07/09/09:37:17.199269,262186,1499564239,999243234,,0.839669609921,0.359283326926,0.242698082651,0.689696034234,0.714141147233,0.0619028397326,0.102419922982,0.0955370393982,-0.345609637418,-0.00721254579746,0.0181286636897,-0.106026444716,-0.327417624696,-1.18620657921,0.058795273304,-0.225063741207,-0.392691880465,-0.364239752293,-0.23944273591
2017/07/09/09:37:17.209526,262187,1499564240,9250393,,0.839962977399,0.356586074317,0.241698927848,0.690696564028,0.713250342661,0.061684054017,0.102016089975,0.0909753442028,-0.336568204113,0.000199041129441,-0.00202647427998,-0.103804187024,-0.285137650886,-1.8964817524,0.214036643505,-0.115560725331,-0.453235507011,-0.635856330395,-0.212049156427
2017/07/09/09:37:17.219306,262188,1499564240,19240566,,0.841222917386,0.35283001023,0.242134565796,0.691328083933,0.712446834212,0.0620854759824,0.1031037461,0.0865776482299,-0.337728362142,-0.00672791456782,0.00166325854686,-0.0989636979921,-0.280246537496,-2.23314285278,0.101995848119,-0.103083252907,-0.372757643461,-0.784079670906,-0.155166357756
2017/07/09/09:37:17.229263,262189,1499564240,29240575,,0.842341952133,0.34946132288,0.242302035747,0.692718023775,0.71095249349,0.0626553557804,0.103742941592,0.0938463119853,-0.359645419495,-0.010692097782,0.00916140549914,-0.0999424334308,-0.307213931235,-2.1722984314,-0.0284946411848,-0.108903840184,-0.317203909159,-0.777189850807,-0.149925678968
2017/07/09/09:37:17.239243,262190,1499564240,39245248,,0.843360302701,0.346422496077,0.242483404895,0.693165436465,0.710422369691,0.0631234454802,0.104101704902,0.0902308915747,-0.348333021733,0.000784736253297,0.0141870657949,-0.110890845855,-0.285119791445,-2.83256173134,0.329700946808,0.010077022016,-0.517615199089,-1.02426218987,-0.231677040458
2017/07/09/09:37:17.249287,262191,1499564240,49244516,,0.843725271206,0.342006970509,0.242435797921,0.694566605176,0.709044237598,0.0626619130878,0.10443651063,0.0857733076518,-0.355386060123,0.00766055740533,-0.0130884936862,-0.110850362057,-0.260313249793,-2.39392662048,0.0964124649763,0.35031747818,-0.399896800518,-0.75483584404,-0.215699464083
2017/07/09/09:37:17.259458,262192,1499564240,59247756,,0.844649146433,0.339500868622,0.242233078502,0.695129293143,0.708381413922,0.0627929404245,0.105109870408,0.072673949255,-0.353690064878,0.00427007546712,-0.0171831947927,-0.0808947316637,-0.280491486683,-2.71089982986,-0.14090372622,0.354581803083,-0.288314402103,-0.870490789413,-0.172399938107
2017/07/09/09:37:17.269441,262193,1499564240,69246616,,0.845326258004,0.336220218698,0.242715968669,0.695969738172,0.707469818697,0.0633760600418,0.105337809905,0.061253968303,-0.363754538265,-0.0149292010111,-0.0221321244858,-0.0398412908158,-0.292691276781,-2.45549893379,-0.0993881523609,0.415134161711,-0.379787057638,-0.77060520649,-0.217657446861
2017/07/09/09:37:17.279462,262194,1499564240,79247470,,0.845374698911,0.332523641063,0.241735495272,0.697148464591,0.706414289528,0.0623581639089,0.105234639083,0.0683041329825,-0.3745895483,-0.00345119648193,-0.0388570853148,-0.0692649290002,-0.276672641158,-3.34646749496,-0.269687473774,0.540338814259,-0.241519317031,-1.08103370667,-0.120400480926
2017/07/09/09:37:17.289185,262195,1499564240,89240770,,0.846061812103,0.328935383156,0.242243380617,0.697836021403,0.70564708544,0.0624994794488,0.105739742344,0.053071571436,-0.377967616752,-0.0136834804864,-0.0483738691761,-0.0309556902223,-0.260192416042,-3.42532682419,-0.273175269365,0.439330130816,-0.232347890735,-1.15274095535,-0.11646707356
2017/07/09/09:37:17.299798,262196,1499564240,99247909,,0.846728175122,0.32616042763,0.242473654796,0.698782840487,0.704635146598,0.0628192818253,0.1060452255,0.055316156531,-0.363698269357,0.00641735187504,-0.0278124674836,-0.0509037408612,-0.27980593454,-2.96546936035,0.18361774087,0.711634993553,-0.474381804466,-0.917407810688,-0.248939245939
2017/07/09/09:37:17.309404,262197,1499564240,109247747,,0.847074758462,0.321914877416,0.241798154089,0.699695264602,0.703774311867,0.0622968318933,0.106053568478,0.0584848372306,-0.36580743565,0.000260268512014,-0.0245975975131,-0.0527088426971,-0.28467213587,-3.17349529266,0.131519585848,0.740374267101,-0.466531127691,-0.995146453381,-0.227080911398
2017/07/09/09:37:17.319260,262198,1499564240,119247627,,0.847520671406,0.318587371257,0.241912047989,0.700212740822,0.703206993636,0.062080689095,0.106527131443,0.0510623791904,-0.367443467303,-0.00478343009421,-0.0277623631502,-0.0376148645046,-0.26774024409,-3.49598526955,0.249948486686,0.758118748665,-0.49569439888,-1.08861517906,-0.249460786581
2017/07/09/09:37:17.329453,262199,1499564240,129245877,,0.848239858748,0.314223000624,0.242093033293,0.701660349637,0.701693870495,0.0621895660206,0.106915498105,0.0450001351105,-0.385796836596,0.0127879497081,-0.0543147428324,-0.0402526108834,-0.247172980132,-4.07524871826,0.18127322197,0.718318045139,-0.501187741756,-1.31204104424,-0.254549562931
2017/07/09/09:37:17.339472,262200,1499564240,139250632,,0.848036321992,0.310887951228,0.241634777731,0.702261914817,0.701154278731,0.0612968403861,0.107021389325,0.042279524316,-0.400908440262,0.00297978859857,-0.0592940973059,-0.0272784162419,-0.283603787876,-4.30575561523,0.0588492453098,0.683760881424,-0.410187244415,-1.42075073719,-0.206017166376
2017/07/09/09:37:17.349659,262201,1499564240,149242190,,0.84937093851,0.30663927281,0.242334634966,0.703417235782,0.699773442597,0.0619809873404,0.108072561966,0.0368744553191,-0.409227669514,-0.0108438410625,-0.0496047817076,-0.0058638211224,-0.315614333156,-4.45910692215,0.0219726860523,0.634662926197,-0.399302124977,-1.46505761147,-0.18236155808
2017/07/09/09:37:17.359445,262202,1499564240,159243089,,0.849515342741,0.302437487132,0.242264053405,0.704295212625,0.698858577278,0.0612260856579,0.108702846664,0.0393660721649,-0.411185038462,-0.00259416930408,-0.0550198954548,-0.0200641170462,-0.297806649192,-4.13353776932,0.110737465322,0.716191411018,-0.403706282377,-1.31638538837,-0.173923760653
2017/07/09/09:37:17.369415,262203,1499564240,169250515,,0.849616787482,0.299971791089,0.242563513537,0.704965889222,0.698237731751,0.0614399331472,0.108223378287,0.0420116229225,-0.386031036102,0.00982198291698,-0.034919870956,-0.0487724695297,-0.27182676102,-4.5244269371,-0.108643174171,0.634833574295,-0.299599170685,-1.50779521465,-0.11312904954
2017/07/09/09:37:17.379383,262204,1499564240,179249250,,0.850463615271,0.29479821161,0.242464515928,0.705892634965,0.697143459883,0.0609070353684,0.109530439998,0.0341590520729,-0.396071820986,0.000846256123193,-0.049483323264,-0.0232780860363,-0.277628888066,-4.17630386353,0.152773290873,0.706847429276,-0.437799543142,-1.36472344398,-0.217432439327
2017/07/09/09:37:17.389171,262205,1499564240,189241079,,0.850505959937,0.291191555888,0.241930265701,0.706720855275,0.696369398463,0.0602833605247,0.109458713896,0.036969770715,-0.416044094603,0.00597159487289,-0.0898047185931,-0.0353230038959,-0.253739350468,-4.68834209442,0.283875018358,0.733947634697,-0.448864519596,-1.53441500664,-0.236759036779
2017/07/09/09:37:17.399091,262206,1499564240,199243744,,0.850374301374,0.287188503383,0.241995990817,0.707750898819,0.695382557327,0.0599534999785,0.109258143987,0.0201948445928,-0.432134442871,-0.00435452684823,-0.0950446369627,0.0119708250204,-0.255908638075,-4.45317840576,0.456871569157,0.813749730587,-0.525410354137,-1.40261018276,-0.286298036575
2017/07/09/09:37:17.409253,262207,1499564240,209241131,,0.850874656698,0.282734726662,0.24247028969,0.708758477305,0.69425576915,0.0598533777127,0.109945081865,0.0126151628652,-0.421122097327,0.000655344809747,-0.0388917884336,0.0142702112852,-0.275225959971,-4.43042707443,0.449539214373,0.739897787571,-0.506480276585,-1.38570010662,-0.284717828035
2017/07/09/09:37:17.419470,262208,1499564240,219254137,,0.850978195952,0.279037478823,0.242520851749,0.709356511243,0.693651285683,0.059589395017,0.110046980102,0.0135784144579,-0.43117258649,-0.00311232097743,-0.0321360710711,0.0173910197204,-0.284527181604,-4.40586662292,0.502817630768,0.743253171444,-0.511959969997,-1.36754059792,-0.306191712618
2017/07/09/09:37:17.429506,262209,1499564240,229244028,,0.851050268156,0.274262505495,0.243010289808,0.710348476044,0.692589033617,0.0590235629091,0.110642180552,0.0147928602981,-0.424522446122,0.0117213205,-0.0699354970978,-0.00516021694589,-0.242679304015,-4.47905874252,0.349763929844,0.762327432632,-0.481994688511,-1.38350951672,-0.252748638391
2017/07/09/09:37:17.439365,262210,1499564240,239243336,,0.851128255844,0.270673327602,0.242386933814,0.711147032387,0.691808751651,0.0586444683202,0.110595550549,0.0114672414476,-0.42901880486,0.00961667990912,-0.0771613302694,0.00317123929003,-0.23312493189,-4.58950901031,0.329253017902,0.808601975441,-0.490275919437,-1.40781486034,-0.272669881582
2017/07/09/09:37:17.449258,262211,1499564240,249239060,,0.851289793997,0.266775126938,0.242521566674,0.711456367222,0.691484864487,0.0583881798286,0.11076705368,0.00875186364581,-0.432711595361,0.00348923877875,-0.0518399587739,0.0108424545961,-0.247600585758,-4.22988700867,0.338724136353,0.717144906521,-0.509298920631,-1.29711949825,-0.280998080969
2017/07/09/09:37:17.459171,262212,1499564240,259245288,,0.851360425995,0.262789887914,0.242605588875,0.711853755059,0.691051941533,0.0578809275712,0.111181130297,-0.00437080057171,-0.410930848841,0.00420354467526,-0.0688092791505,0.0378008879428,-0.176154540121,-4.45531368256,0.443800985813,0.615646243095,-0.560132086277,-1.41108489037,-0.280323326588
2017/07/09/09:37:17.469656,262213,1499564240,269254110,,0.851318675407,0.257390417794,0.242876210247,0.71242574924,0.690422738826,0.0569328685483,0.111913547035,-0.00531201913486,-0.417948135132,0.0159419094183,-0.102165302909,0.0314103053871,-0.125685021523,-4.40252733231,0.304602652788,0.562703669071,-0.424271553755,-1.425111413,-0.240023553371
2017/07/09/09:37:17.479480,262214,1499564240,279253888,,0.851006557395,0.254372768517,0.242777888572,0.712586154776,0.690314416047,0.0565379269885,0.111760645266,-0.000103114849281,-0.426001298064,0.0217955417418,-0.109071201181,0.0122670600759,-0.117800879536,-4.32950305939,0.21715387702,0.509368121624,-0.371319830418,-1.41494882107,-0.213388651609
2017/07/09/09:37:17.489476,262215,1499564240,289243364,,0.850774662644,0.249916549472,0.242752877042,0.712857037878,0.690112272807,0.0557443025886,0.11168020056,-0.00812272286845,-0.44106846775,0.0127929491822,-0.121055349201,0.0366656883735,-0.111745303126,-3.99580740929,0.421847313643,0.346657395363,-0.457619965076,-1.35359656811,-0.275473445654
2017/07/09/09:37:17.499444,262216,1499564240,299258321,,0.851036175602,0.245827758785,0.243008309426,0.712977784569,0.689913568505,0.0554774128943,0.112268443307,-0.0171245982246,-0.450064705897,0.000587017253295,-0.119923874385,0.0659259601454,-0.0975681150495,-4.96022891998,-2.90570473671,0.431266784668,0.0692330300808,-1.76570427418,-0.1003793329
2017/07/09/09:37:17.509591,262217,1499564240,309240239,,0.850792977976,0.24174370933,0.243071546409,0.713314315312,0.689606600466,0.0551962187418,0.112155256685,-0.010834369432,-0.429870949217,-0.0103752396985,-0.09605604905,0.0535899648565,-0.0621938293362,-4.88991785049,-2.34993290901,0.793094038963,0.0348176807165,-1.66834437847,-0.0882461220026
2017/07/09/09:37:17.519418,262218,1499564240,319272906,,0.850889922503,0.23781145418,0.243813063476,0.713072585163,0.689727440781,0.0548700082352,0.113105384128,-0.0211768669298,-0.416298165083,-0.0150508252374,-0.0713560221168,0.0725692723852,-0.0250596106698,-5.2687048912,-2.16981983185,1.13899242878,0.353223949671,-1.76246798038,0.179712340236
2017/07/09/09:37:17.529365,262219,1499564240,329245674,,0.850629929144,0.233852622491,0.243573107697,0.7133654541,0.689547256656,0.0546064357483,0.112483096111,-0.0194172653561,-0.389644563873,0.00949290971514,-0.0549297242625,0.0504565642629,0.0275477894872,-5.9553232193,-2.5866985321,0.418094456196,0.763067364693,-2.040797472,0.355519801378
2017/07/09/09:37:17.539440,262220,1499564240,339257209,,0.850094789721,0.230637306197,0.243112817876,0.712386200211,0.690646397318,0.0535564890926,0.112450691843,-0.0183482501859,-0.391351867549,0.0123105355209,-0.0519877152555,0.0508318231867,0.0628899669053,-7.38571166992,-2.85169863701,0.0308554768562,0.775644540787,-2.59074068069,0.397541224957
2017/07/09/09:37:17.549728,262221,1499564240,349248705,,0.849740077388,0.226884884619,0.242758695443,0.711856329511,0.691270198219,0.053003635753,0.112234993589,-0.0152789745967,-0.365356291134,0.0122786443062,-0.0796088905989,0.0447212494418,0.161234401565,-5.93752765656,1.44633567333,0.18357822299,-1.19023549557,-2.1110496521,-0.370129227638
2017/07/09/09:37:17.559340,262222,1499564240,359248233,,0.849810424647,0.224876260968,0.242761767067,0.711260902879,0.691927739905,0.0532503285508,0.111840660294,-0.0171480003796,-0.319218160505,0.0035016889007,-0.0477319440832,0.0570319550147,0.210281165927,-6.08982992172,4.16369438171,0.436844319105,-2.39018845558,-2.21151590347,-0.78311175108
2017/07/09/09:37:17.569233,262223,1499564240,369246281,,0.849832078281,0.220793312734,0.243025014296,0.711147781308,0.69204992603,0.0533209932815,0.111770321184,-0.0277691222131,-0.328808105023,-0.00619070107778,0.00531822028254,0.0803983670379,0.149943801854,-5.60532474518,4.11711931229,0.291877865791,-2.8191215992,-2.10247397423,-0.891839325428
2017/07/09/09:37:17.579352,262224,1499564240,379248884,,0.849352459414,0.217851588725,0.242833875029,0.710473270747,0.692821707948,0.0531704021755,0.111349543703,-0.0216629707124,-0.34307779829,-0.010193390717,0.0116561037276,0.0666175386846,0.121637047973,-6.00166606903,2.92592000961,0.0483434125781,-2.20440387726,-2.25954794884,-0.592603564262
2017/07/09/09:37:17.589288,262225,1499564240,389240145,,0.849385426408,0.21367707056,0.243423883602,0.709710455821,0.693502749795,0.0523469015077,0.112360165661,-0.0191555437751,-0.393350614788,0.0101351387234,-0.0663119342949,0.0369356816661,0.111939399442,-7.49645519257,0.371924489737,0.383613705635,-0.903144001961,-2.77458643913,-0.0547192171216
2017/07/09/09:37:17.599549,262226,1499564240,399273344,,0.849170689773,0.209450651932,0.24358922393,0.709427985322,0.693760186466,0.0519059765455,0.112758622355,-0.0216794253362,-0.391152500218,0.0219725815448,-0.152465291858,0.0309666976139,0.200314953735,-8.07523345947,-1.1716657877,0.24456974864,-0.0793188288808,-2.91219234467,0.189473420382
2017/07/09/09:37:17.609258,262227,1499564240,409239664,,0.848629945941,0.206584441032,0.2431009141,0.708235836403,0.695088751064,0.0509242503071,0.112518215898,-0.0358868136439,-0.390189421435,-0.00100155220359,-0.168373765044,0.0758851676093,0.215047133235,-8.02346420288,-1.22228622437,0.169851467013,-0.0482055805624,-2.91622114182,0.172573029995
2017/07/09/09:37:17.619341,262228,1499564240,419240446,,0.848456483502,0.202600029133,0.243157759453,0.707942910794,0.695389904416,0.0508190931988,0.112548370309,-0.0403546912824,-0.370798929334,-0.0047962541381,-0.157023963906,0.0891917732004,0.234881586058,-7.39825248718,-0.394021630287,0.126539200544,-0.418200224638,-2.74632692337,0.0335989370942
2017/07/09/09:37:17.629762,262229,1499564240,429242154,,0.84807302869,0.199885629069,0.243205017095,0.707377937717,0.696016390341,0.0507055629173,0.112279043,-0.0386973312568,-0.320274396364,-0.00994875262304,-0.0581969199704,0.0905602225803,0.227982135048,-9.07932949066,-0.421594172716,0.342965364456,-0.453128278255,-3.36373138428,0.0801895931363
2017/07/09/09:37:17.639468,262230,1499564240,439254079,,0.847415153971,0.197170124414,0.24316381819,0.706104793345,0.6974207379,0.0500271614083,0.111882162489,-0.0391786535888,-0.320702815607,-0.000753811546573,-0.0174040239068,0.0864703839446,0.204618631245,-9.06848812103,0.41585791111,0.584759533405,-0.540635585785,-3.31240963936,0.142490506172
2017/07/09/09:37:17.649567,262231,1499564240,449254410,,0.84736814133,0.195040011911,0.24301804208,0.705899276883,0.697681181802,0.0504633186395,0.111358129149,-0.0372032804701,-0.303218192487,-0.00393364861919,0.00151245525155,0.0807297929543,0.208631137037,-8.98635864258,0.720892369747,0.00466506555676,-0.660386502743,-3.36931490898,0.122660510242
2017/07/09/09:37:17.659422,262232,1499564240,459253578,,0.846873553578,0.190984251037,0.243103706093,0.706355412254,0.697258703387,0.0498236689036,0.111399883963,-0.0418017482779,-0.29564905963,-0.0209730205242,-0.0242919858659,0.0985068759548,0.136042782574,-8.87015628815,0.0549762994051,-0.0359583348036,-0.501867651939,-3.35905432701,0.181151002645
2017/07/09/09:37:17.669701,262233,1499564240,469253476,,0.846900082548,0.188205853163,0.242998890003,0.707027527505,0.696530461209,0.0497765991187,0.11171249768,-0.0379072350157,-0.360486793093,-0.0095160352598,-0.0603230850134,0.0618221941057,-0.111906584503,-8.89019489288,0.185255676508,-0.0243023112416,-0.404748916626,-3.37599492073,0.20345172286
2017/07/09/09:37:17.679600,262234,1499564240,479253607,,0.846528695781,0.185176033364,0.24314566398,0.707553797928,0.695998413083,0.0490752530653,0.112006479993,-0.025759487505,-0.350378534961,0.00105663501853,-0.0641544919094,0.0051675517133,-0.26329603995,-9.99523353577,0.0538852885365,-0.415712356567,-0.307847470045,-3.74110531807,0.376136541367
2017/07/09/09:37:17.689567,262235,1499564240,489253344,,0.845846261329,0.181983240775,0.242515398069,0.70670958381,0.696945025808,0.0480246053949,0.111905462016,-0.02636144996,-0.31387938515,0.000310693169015,-0.0820892190348,0.022112839595,-0.0616130003861,-9.94976043701,-0.0249343439937,-0.708666741848,-0.333369463682,-3.7144818306,0.335874527693
2017/07/09/09:37:17.699315,262236,1499564240,499255727,,0.845539505079,0.177899334737,0.242676505404,0.706803180944,0.696861800003,0.0474842639018,0.112063106266,-0.0418545084648,-0.330719864397,-0.0186442808559,-0.126266413733,0.0897164606493,0.100728073569,-10.37844944,-0.412346601486,-0.851604044437,-0.360622942448,-4.01565647125,0.280317127705
2017/07/09/09:37:17.709403,262237,1499564240,509243581,,0.845032732395,0.175766743774,0.241889395845,0.705679142447,0.698103421989,0.0469269818279,0.111653116836,-0.0394724863186,-0.329009459059,-0.0164861788849,-0.11931016737,0.0888073421624,0.141892471345,-10.9085197449,0.358949005604,-1.31492090225,-0.534704208374,-4.23609399796,0.274055659771
2017/07/09/09:37:17.719695,262238,1499564240,519246214,,0.844750610819,0.172102279416,0.241774305939,0.705875650721,0.69788707993,0.0461901895495,0.112069870061,-0.0485383176787,-0.303191469015,-0.0207354174398,-0.0804753167876,0.10416592347,0.121712193574,-11.2305021286,-0.436337381601,-1.31235814095,-0.447768300772,-4.4029750824,0.332557082176
2017/07/09/09:37:17.729369,262239,1499564240,529253996,,0.844482832017,0.169781893548,0.241929772962,0.705706566885,0.698073449326,0.0460134113807,0.112046716926,-0.0542553626347,-0.331065504651,-0.0381033974412,-0.101861661343,0.120622253732,0.0503185089568,-11.5692768097,0.0469939224422,-0.681271851063,-0.521617114544,-4.48120450974,0.279832929373
2017/07/09/09:37:17.739445,262240,1499564240,539246272,,0.843929202315,0.166545362471,0.241523824664,0.70537636249,0.698441901165,0.0450553519574,0.112219041158,-0.0462192486024,-0.328534776761,-0.0244112955281,-0.108621769385,0.0831250084815,0.0288336293424,-11.5026731491,0.747231125832,-1.00364029408,-0.694343328476,-4.40888977051,0.222879573703
2017/07/09/09:37:17.749733,262241,1499564240,549253838,,0.843793734855,0.162940402322,0.241741075683,0.705902014536,0.697849590076,0.0448979878206,0.112660845883,-0.035189646504,-0.30521670564,-0.0193248555312,-0.120830589089,0.0544103790765,0.040718359498,-11.6199302673,0.246981889009,-0.505720853806,-0.631581366062,-4.39446496964,0.263872534037
2017/07/09/09:37:17.759153,262242,1499564240,559253041,,0.843360307306,0.160635458597,0.240820910725,0.705577949528,0.698247474948,0.044010023458,0.11257592417,-0.0346808944756,-0.319511802327,-0.0216436061674,-0.111011788461,0.0494012379795,-0.0295148209468,-11.553981781,0.612597703934,-1.31023776531,-0.627910196781,-4.38170194626,0.281694829464
2017/07/09/09:37:17.769626,262243,1499564240,569245307,,0.842718053427,0.157148113205,0.239651076636,0.705787820343,0.698139176456,0.0425180745623,0.112505361157,-0.0428734311759,-0.306099394118,-0.0462907955529,-0.128679567552,0.0932127308074,-0.010054901483,-12.0732955933,0.187561839819,-1.91729295254,-0.551110684872,-4.62150859833,0.330199182034
2017/07/09/09:37:17.779396,262244,1499564240,579254280,,0.842636812242,0.153539624718,0.240169016574,0.706101467031,0.697701762111,0.0422099179262,0.113363540139,-0.0420253568353,-0.332467131294,-0.0491551904545,-0.160326799297,0.0944948038626,-0.067551735398,-12.7467069626,0.0791924595833,-1.41058969498,-0.454982340336,-4.89240646362,0.394016385078
2017/07/09/09:37:17.789740,262245,1499564240,589244650,,0.841922362352,0.150284797443,0.239903100178,0.706564688935,0.697268150119,0.0410090448841,0.113585762389,-0.038367803217,-0.348714796546,-0.0284028858497,-0.182535073333,0.0726291833533,-0.0997636771797,-13.2142829895,-0.254753708839,-1.35482537746,-0.355647832155,-5.0470867157,0.429240465164
2017/07/09/09:37:17.799488,262246,1499564240,599254333,,0.841791032348,0.147254955643,0.23991615011,0.706656929576,0.697123267372,0.040208361047,0.11418590838,-0.0413634683511,-0.344341211582,-0.0349063737108,-0.185703119365,0.0852162075229,-0.106940308317,-13.140048027,0.367548882961,-1.22481608391,-0.530154824257,-5.09337806702,0.41401052475
2017/07/09/09:37:17.809530,262247,1499564240,609246462,,0.841452048084,0.144227411123,0.23870581739,0.70665167919,0.697159984867,0.039015907085,0.11440768677,-0.0480925865285,-0.345655620126,-0.0537498004177,-0.20268262052,0.105427256321,-0.125260239835,-12.4494857788,0.677315235138,-1.57617747784,-0.624086499214,-4.8085641861,0.372786462307
2017/07/09/09:37:17.819482,262248,1499564240,619254058,,0.841338904777,0.142032390082,0.238978232351,0.706919324179,0.696836741224,0.0384097864161,0.114927427059,-0.0464069722911,-0.308018983127,-0.0688500387404,-0.21506277379,0.127743528965,-0.0900392106672,-10.5690231323,0.47145190835,-1.07322478294,-0.646530091763,-4.09227466583,0.261212140322
2017/07/09/09:37:17.829705,262249,1499564240,629242088,,0.840786431965,0.138562812717,0.237754309542,0.707301748389,0.696492855887,0.0369679817403,0.115131693071,-0.0269678835723,-0.29755807959,-0.0403684099834,-0.223318347921,0.0691615738363,-0.0995973922627,-11.5050926208,0.179225280881,-1.10307335854,-0.353518754244,-4.44236373901,0.397546589375
2017/07/09/09:37:17.839457,262250,1499564240,639246850,,0.840658928124,0.135304811827,0.237913018455,0.707778097119,0.695888450426,0.0359921881655,0.116163644029,-0.0423199855909,-0.331850859818,-0.0536131197673,-0.222903680824,0.0922492423641,-0.178880603439,-11.6372919083,0.379115998745,-0.760131299496,-0.215420529246,-4.53908538818,0.400302320719
2017/07/09/09:37:17.849713,262251,1499564240,649244345,,0.840196665396,0.13326746598,0.23673007562,0.708657582742,0.695124959025,0.0354756856632,0.115530071798,-0.0274318361854,-0.300358045186,-0.0343499723965,-0.165690695873,0.0513328382731,-0.197322611089,-12.5880556107,0.760595858097,-1.74311339855,-0.188205465674,-4.92183017731,0.468366920948
2017/07/09/09:37:17.859335,262252,1499564240,659241367,,0.840259282537,0.131204790973,0.236985977135,0.709710609596,0.694012274108,0.0358303784375,0.115646002938,-0.0265268221163,-0.282103763947,-0.0559763506326,-0.0436003514838,0.0548297803837,-0.273293928079,-12.0388145447,0.977803945541,-0.866798877716,-0.126373246312,-4.68459939957,0.542244911194
2017/07/09/09:37:17.870137,262253,1499564240,669248126,,0.839853048745,0.128164608166,0.236225206139,0.711019079364,0.692718936668,0.0351768725941,0.115563537486,-0.0191819636783,-0.235489168727,-0.0518028822788,0.0254129700831,0.0315466099847,-0.276758485166,-12.1945295334,0.507598996162,-1.1938482523,-0.209454238415,-4.73229837418,0.528934955597
2017/07/09/09:37:17.879431,262254,1499564240,679248677,,0.839385861183,0.126032658948,0.235157432713,0.711696719921,0.692131350527,0.0343163927452,0.115170993137,-0.0341375406709,-0.258722154663,-0.0515478325776,0.0117214796685,0.0591206768154,-0.311820356493,-12.1158876419,1.09208905697,-1.69375646114,-0.408184885979,-4.75631666183,0.484920561314
2017/07/09/09:37:17.889468,262255,1499564240,689254420,,0.83919297522,0.122713811483,0.234525386044,0.713076115945,0.690723500109,0.0338649330906,0.115224413965,-0.0358512894234,-0.267498080787,-0.063866166769,0.00753991124921,0.0747439997505,-0.345974792231,-12.1902389526,0.804592609406,-1.54225862026,-0.359161883593,-4.82330179214,0.507074296474
2017/07/09/09:37:17.899770,262256,1499564240,699253359,,0.839189115989,0.120359598312,0.234309013068,0.71432344285,0.689430498992,0.0338885433961,0.115235292691,-0.0167476981762,-0.238935191457,-0.0554242423384,0.0281717591415,0.0412444228429,-0.324872449377,-12.6205005646,0.882423639297,-1.42160964012,-0.312678217888,-5.03415441513,0.573062539101
2017/07/09/09:37:17.909421,262257,1499564240,709243541,,0.839158144918,0.119875815443,0.234226201279,0.714788528888,0.689024802879,0.0341379543725,0.114703008064,-0.0166159638635,-0.229167877848,-0.0342652517686,0.00985628145839,0.0360149305632,-0.310740688872,-13.0156011581,1.8738244772,-1.54858326912,-0.436224162579,-5.36033248901,0.555669605732
2017/07/09/09:37:17.919436,262258,1499564240,719246300,,0.839042743073,0.116693153532,0.233287352052,0.716182509693,0.687580273093,0.0334775261205,0.114870518883,-0.0150539117395,-0.237366060783,-0.0423031224654,0.0120943973105,0.0263816779446,-0.333778610529,-13.511177063,1.68885469437,-1.97340786457,-0.376367151737,-5.62730360031,0.651178181171
2017/07/09/09:37:17.929417,262259,1499564240,729252780,,0.839210596831,0.11460492462,0.233185746721,0.716898269757,0.686831112873,0.0336374822342,0.114840815907,-0.00810077580998,-0.23276398875,-0.0438677563845,0.0209866068662,0.0244318917178,-0.310691438039,-13.8542690277,1.02305757999,-1.83478760719,-0.22564651072,-5.70271635056,0.658899486065
2017/07/09/09:37:17.939477,262260,1499564240,739247699,,0.838749579115,0.112018107051,0.232437173161,0.71841030398,0.685366471057,0.0333706503778,0.114218366206,0.0054020235522,-0.218377038741,-0.0382714897262,0.0387795876497,-0.00256803008052,-0.286444951169,-13.326426506,0.467664152384,-1.74130856991,-0.166993245482,-5.48327112198,0.667470633984
2017/07/09/09:37:17.949246,262261,1499564240,749248092,,0.839062812256,0.110243343367,0.232210770705,0.719509465228,0.68420840315,0.0335805879692,0.114181148264,-0.0026559179568,-0.223657353353,-0.0526516487341,0.0452679924585,0.0249333682522,-0.308184160048,-12.5085372925,1.06467759609,-1.7004212141,-0.412977695465,-5.18719577789,0.554112076759
2017/07/09/09:37:17.959629,262262,1499564240,759254064,,0.838383917764,0.108900214562,0.231081137595,0.72005320724,0.683844241974,0.0328805959504,0.113133981957,-0.00931983007579,-0.212295650809,-0.0680247314858,0.0407819399229,0.0646419693617,-0.289784294869,-12.605222702,1.36848199368,-1.99447178841,-0.482287734747,-5.21495485306,0.51875525713
2017/07/09/09:37:17.969588,262263,1499564240,769264505,,0.838512444198,0.106263875416,0.230732504047,0.721230755376,0.682596248839,0.0325594980162,0.113262693149,-0.0013376075025,-0.205020147863,-0.0669950750009,0.0573993767175,0.057880309871,-0.291274557565,-12.8048868179,1.25594961643,-2.16397285461,-0.518332600594,-5.32504653931,0.540565133095
2017/07/09/09:37:17.979296,262264,1499564240,779246004,,0.838947133437,0.104257120376,0.230711068183,0.721950513557,0.681790978818,0.0327828216765,0.113462785884,0.00497847587646,-0.219113677697,-0.0399272221529,0.0406318010466,0.0243784467507,-0.305211958564,-12.5795917511,1.28609895706,-1.71945238113,-0.460027545691,-5.27728748322,0.523433327675
2017/07/09/09:37:17.989882,262265,1499564240,789262912,,0.838554176354,0.101504023702,0.230009760226,0.723431961909,0.680317167914,0.0318765275731,0.113131050207,-0.00415525810906,-0.241107543475,-0.0395598148124,0.0144679631069,0.0439759658183,-0.324583738789,-11.7312316895,1.00137412548,-1.68582510948,-0.323422074318,-4.88917589188,0.500945866108
2017/07/09/09:37:17.999529,262266,1499564240,799244714,,0.838755731975,0.0994314164348,0.229722716154,0.724516092256,0.679188168936,0.0321068642162,0.112911525145,-0.000110144506336,-0.226438727665,-0.0330273596929,0.0167698760142,0.040831573651,-0.307343578215,-11.0522737503,0.919601261616,-2.13378858566,-0.24013723433,-4.60763549805,0.514164626598
2017/07/09/09:37:18.009251,262267,1499564240,809241894,,0.83854805052,0.0963809816863,0.229577490569,0.725649117635,0.677977907571,0.0313323600238,0.11312646965,-0.00968525247129,-0.262853231273,-0.0374785282866,0.00938311241574,0.0589782025613,-0.36345253015,-10.7385311127,0.932620406151,-1.8939435482,-0.293075591326,-4.46194028854,0.462373763323
2017/07/09/09:37:18.019555,262268,1499564240,819248866,,0.838029383326,0.0941620658679,0.22860727575,0.72709890987,0.676589926631,0.0304549717425,0.11236432327,-0.00927997566863,-0.224558990256,-0.0497483600457,0.0356542695625,0.0846675671255,-0.329125501062,-10.8060569763,0.400176882744,-1.82924461365,-0.12633356452,-4.38452959061,0.551522195339
2017/07/09/09:37:18.029388,262269,1499564240,829253661,,0.838305289546,0.0934271376183,0.228210105764,0.7275797397,0.676172823739,0.0308244162105,0.111659707057,-0.00631161324944,-0.212708428606,-0.0372844584259,0.0307674686093,0.0852979464584,-0.301845174546,-10.317232132,1.29648756981,-1.55636167526,-0.375067681074,-4.18651914597,0.433186560869
2017/07/09/09:37:18.039641,262270,1499564240,839241701,,0.838068132803,0.0898386047799,0.228343891334,0.729224809867,0.674411513753,0.0300717570475,0.111785402531,-0.00443559990852,-0.229128232136,-0.024474483509,0.0348707515831,0.0735120689942,-0.330982548363,-10.6906528473,0.693439245224,-1.37872982025,-0.332241803408,-4.34370183945,0.452758282423
2017/07/09/09:37:18.049373,262271,1499564240,849250210,,0.838919944725,0.087948353212,0.229305118984,0.729831327398,0.673617576063,0.0303561584075,0.112534876437,-0.00425977734451,-0.259985023296,-0.000824882059021,-0.0212260164565,0.0633560297395,-0.338516014618,-10.6023664474,1.59862983227,-1.34162986279,-0.536526143551,-4.43316221237,0.381154060364
2017/07/09/09:37:18.059467,262272,1499564240,859247873,,0.837966457966,0.0845909505784,0.228297431829,0.730990975711,0.672546374395,0.0286002555754,0.111873111596,-0.00363125063642,-0.264169935142,-0.00595218008191,-0.0452504802711,0.0720525441576,-0.324251287202,-10.743689537,0.799889802933,-2.17560482025,-0.332004606724,-4.46263599396,0.448944538832
2017/07/09/09:37:18.069395,262273,1499564240,869249064,,0.838277733914,0.0824253167015,0.228446459039,0.731462636169,0.672023634205,0.0282908449045,0.112010156023,-0.0187245954223,-0.270041198494,-0.0222588857844,-0.0510571719267,0.11744466249,-0.279891744296,-9.31756591797,1.24871504307,-2.36340475082,-0.463431477547,-3.97137379646,0.350746333599
2017/07/09/09:37:18.079184,262274,1499564240,879247289,,0.838098808406,0.0806909929643,0.228373283303,0.731526456606,0.672056549521,0.0279650776973,0.111476418855,-0.0311167168549,-0.267371400243,-0.0346596192627,-0.0743172830761,0.171170112959,-0.161247571786,-6.85903120041,1.85263109207,-1.63126015663,-0.588680803776,-3.03024816513,0.178708463907
2017/07/09/09:37:18.089711,262275,1499564240,889240975,,0.837643384459,0.0778454827795,0.228174597966,0.731238442366,0.672459126377,0.0264570894587,0.111306271951,-0.0193080477114,-0.256437520001,-0.0180874164887,-0.0911702835745,0.159609949056,-0.0301575631642,-7.22657442093,1.38549232483,-1.80189728737,-0.534247994423,-3.10189890862,0.220798537135
2017/07/09/09:37:18.099413,262276,1499564240,899248607,,0.836880084378,0.0745599898033,0.227956331814,0.731703708823,0.672084025033,0.0251456553858,0.110817154836,-0.0339568494249,-0.279702257744,-0.00541034798038,-0.106531025671,0.185500498067,0.0180380004766,-8.25561523438,1.59191346169,-1.67435514927,-0.732551038265,-3.46413493156,0.143302232027
2017/07/09/09:37:18.109601,262277,1499564240,909245094,,0.836240328666,0.0710607395679,0.227318931127,0.732828886741,0.670982097528,0.0236336253392,0.110391572631,-0.0465387583195,-0.298308683169,0.00342985656729,-0.0824639955759,0.186525847454,-0.114452915753,-9.01819038391,1.28749990463,-2.0025510788,-0.630174160004,-3.84721446037,0.247750416398
2017/07/09/09:37:18.119203,262278,1499564240,919257851,,0.836105400271,0.0691983683311,0.227129006728,0.73401721739,0.669765728788,0.0233011441704,0.10995294355,-0.0386024261384,-0.291371072166,0.00298973972186,-0.0599891039199,0.151918608323,-0.288504505592,-9.06036567688,1.55388307571,-2.0054833889,-0.661893069744,-3.77942681313,0.228397399187
2017/07/09/09:37:18.129167,262279,1499564240,929243886,,0.835676243457,0.0663488710731,0.22698395242,0.735190706657,0.668590646602,0.0223689395056,0.109456852991,-0.0284111733057,-0.272982652817,-0.00519022797297,-0.0467231283151,0.127603606572,-0.354975645981,-7.71796321869,1.09187340736,-1.57806670666,-0.557081758976,-3.17806267738,0.145614057779
2017/07/09/09:37:18.139509,262280,1499564240,939246934,,0.835960280355,0.0638079173483,0.227932674571,0.736197381002,0.667405650734,0.0221579029102,0.109964271072,-0.034404816686,-0.291716988154,-0.00796892855866,-0.0389460344806,0.139574452361,-0.390294869511,-6.54138803482,1.17079544067,-1.01225590706,-0.505961298943,-2.79495382309,0.0477519035339
2017/07/09/09:37:18.149451,262281,1499564240,949245782,,0.835531307728,0.0613943583124,0.228072689225,0.737402737789,0.666168374605,0.0212888205325,0.109561330304,-0.0301366080746,-0.288817295768,0.0180395888431,-0.0393702998043,0.119729933825,-0.381652176884,-6.35682821274,2.4770655632,-1.68033623695,-0.753056526184,-2.76919436455,-0.0185817480087
2017/07/09/09:37:18.159661,262282,1499564240,959239988,,0.834882492189,0.0583122699569,0.227610029155,0.73859974176,0.665002771771,0.0199233882391,0.108833788917,-0.0457985471907,-0.287226670769,0.0108083103476,-0.0605902165137,0.171050658032,-0.345526979306,-7.44520282745,1.25238656998,-2.05424237251,-0.572056412697,-3.1548910141,0.0784496068954
2017/07/09/09:37:18.169337,262283,1499564240,969247847,,0.834880019925,0.0561919272976,0.228014408997,0.739422821352,0.66409720402,0.0195874344112,0.108835321887,-0.035524968456,-0.287411854495,0.0232313820763,-0.0422210256839,0.136554612018,-0.353739651859,-7.28402900696,1.71160805225,-1.84836673737,-0.722368657589,-3.09824800491,0.0147100090981
2017/07/09/09:37:18.179469,262284,1499564240,979244832,,0.834724210127,0.0539270835095,0.228473025906,0.740497236874,0.66297623665,0.0193020605243,0.10841486189,-0.0298662505724,-0.249732839403,0.0185602414463,-0.0106550075424,0.141787882435,-0.30942287262,-6.01269817352,1.55395817757,-1.44552958012,-0.650167703629,-2.58318638802,0.0193392634392
2017/07/09/09:37:18.189389,262285,1499564240,989242352,,0.834329042277,0.0509605994001,0.228792143066,0.741807641082,0.66159501001,0.0186371549858,0.108009827408,-0.00937803530803,-0.205628594149,0.031794794381,0.0700185955452,0.0904250168672,-0.293723105818,-5.96093511581,0.593273341656,-1.10247349739,-0.429776251316,-2.46038627625,0.042622923851
2017/07/09/09:37:18.199458,262286,1499564240,999246818,,0.834498067168,0.0497968152248,0.229120874623,0.742362230269,0.661091551706,0.0187954711321,0.107252084356,-0.0154545469382,-0.23190843708,0.0523304479709,0.0709270216457,0.0818529277549,-0.314063835203,-5.14254570007,1.53468704224,-1.02322351933,-0.715256214142,-2.1982896328,-0.0685525983572
2017/07/09/09:37:18.209495,262287,1499564241,9248172,,0.834268946744,0.0473028803998,0.22975145093,0.74335845046,0.66003821116,0.0184468830408,0.106899422096,-0.0317738914217,-0.251771509692,0.0407323080628,0.0608434082348,0.121825777395,-0.319464949234,-4.60740089417,1.44303071499,-1.0151154995,-0.772859096527,-1.97724914551,-0.111294865608
2017/07/09/09:37:18.219132,262288,1499564241,19247874,,0.833985091323,0.0450768311714,0.230104858128,0.743818911469,0.659646280797,0.0178494935623,0.106214908328,-0.0240978932715,-0.222965546869,0.0429733952957,0.0722898431472,0.120188361937,-0.229779856975,-4.96088409424,1.49541783333,-1.34755396843,-0.844883739948,-2.17146778107,-0.123718649149
2017/07/09/09:37:18.229317,262289,1499564241,29242091,,0.833903033732,0.0434390512352,0.230470225206,0.743983473596,0.659563419851,0.0175033139606,0.105632950407,-0.024352197195,-0.204832693702,0.0341963360873,0.0774615196923,0.142993069839,-0.151578186265,-3.78680801392,1.83936524391,-1.10254979134,-0.972312569618,-1.66619360447,-0.228287562728
2017/07/09/09:37:18.239507,262290,1499564241,39241398,,0.833623527788,0.0411226023442,0.231286824151,0.74466512751,0.658896672998,0.0172756024454,0.105026547801,-0.0157508300465,-0.221747062623,0.0415381629417,0.0431766279007,0.119699011295,-0.120324955906,-3.77126502991,0.631627619267,-0.568074285984,-0.593888640404,-1.49203014374,-0.177878007293
2017/07/09/09:37:18.249244,262291,1499564241,49241503,,0.833461064431,0.0393537876125,0.231752952195,0.74472382091,0.658942601197,0.0169118598061,0.104379441921,-0.0178920299973,-0.214388292597,0.0439798057529,0.0476632482223,0.125202472927,-0.108320266206,-2.67906427383,1.18565762043,-0.169323086739,-0.650438308716,-1.1261267662,-0.26849091053
2017/07/09/09:37:18.259188,262292,1499564241,59244000,,0.83344346304,0.0364808759536,0.232577139401,0.745114619274,0.658513230822,0.0165986755606,0.104350433376,-0.0249214182798,-0.200402339044,0.0410850177623,0.0686922276747,0.152033902688,-0.0676253204649,-2.34308505058,0.151177197695,0.333459496498,-0.404270708561,-0.930265903473,-0.245092064142
2017/07/09/09:37:18.269358,262293,1499564241,69241636,,0.832852283867,0.0344829616741,0.232649036956,0.74508004289,0.658719404261,0.0158699361247,0.103405131713,-0.0159236692288,-0.215664802069,0.0722407591883,0.015222932011,0.121862195724,0.00222358657987,-2.6923494339,0.0936670303345,-0.615381717682,-0.416596800089,-1.09438300133,-0.218949049711
2017/07/09/09:37:18.279249,262294,1499564241,79247842,,0.832883085871,0.0330523033871,0.233278312518,0.744839617848,0.659098388226,0.0158694517728,0.102720099408,-0.0245467365786,-0.222889306021,0.0734301570217,0.00448693432225,0.137479119308,0.0183889178573,-2.48383641243,0.900625944138,-0.641135513783,-0.586378991604,-1.16769516468,-0.21611623466
2017/07/09/09:37:18.289527,262295,1499564241,89240890,,0.832694199841,0.0318360898098,0.233562136993,0.74406349004,0.660089533918,0.0151174548252,0.102092078835,-0.0182121445136,-0.194016213152,0.0644696481795,0.0378557204352,0.138106542852,0.0699333982095,-1.07278990746,1.43692517281,-1.09323525429,-0.791929483414,-0.589221179485,-0.333886474371
2017/07/09/09:37:18.299414,262296,1499564241,99247501,,0.833001714984,0.029624913363,0.234802985659,0.743726774477,0.660444044145,0.0151232099962,0.10225183616,-0.0224299934957,-0.198251996388,0.0604766352855,0.0254502897525,0.144122962279,0.0907920629559,-0.45376843214,0.602087378502,-0.00640358775854,-0.522548258305,-0.362712353468,-0.279776632786
2017/07/09/09:37:18.309459,262297,1499564241,109249469,,0.832286779802,0.0271093051732,0.235444852901,0.743607408345,0.660699652656,0.0142809174963,0.101587630303,-0.0226116671024,-0.211114362187,0.0730279216607,0.00663880756235,0.136283195934,0.1125668556,-1.01431727409,0.357788294554,-0.702429175377,-0.486477047205,-0.566565334797,-0.253730297089
2017/07/09/09:37:18.319231,262298,1499564241,119247806,,0.831909068816,0.0246025035596,0.235919804651,0.743169123087,0.661285114197,0.0135649199032,0.101082368286,-0.0274149257487,-0.21734313567,0.0660358056299,-0.00128779697264,0.154232982162,0.14979820709,-0.930558919907,0.184950530529,-0.795674562454,-0.461294233799,-0.559191644192,-0.238376706839
2017/07/09/09:37:18.329255,262299,1499564241,129245076,,0.832049822849,0.0231643951012,0.237355537655,0.742221958309,0.662364489258,0.0136364403315,0.100964822929,-0.0442309415636,-0.20729089767,0.0650942716228,-0.0212766280637,0.203302954938,0.205558750479,-0.372098624706,0.567191720009,-0.279538929462,-0.463700830936,-0.366901040077,-0.231247067451
2017/07/09/09:37:18.339617,262300,1499564241,139247576,,0.831339485644,0.0210549080187,0.236951695373,0.741556996029,0.663311391242,0.0126519601348,0.0997554399193,-0.0276954386984,-0.207799270075,0.0935267166213,-0.0271577229131,0.140931173137,0.226291065059,-1.08394861221,0.08538377285,-0.71575409174,-0.4353069067,-0.555617809296,-0.202094838023
2017/07/09/09:37:18.349705,262301,1499564241,149245463,,0.831590775212,0.0185076592283,0.238574780258,0.740810375985,0.664040448968,0.0123936259389,0.100482172565,-0.0230641997764,-0.200884700172,0.0943060120858,-0.021868580323,0.134479853858,0.257856019434,-0.472705572844,-0.164484113455,-0.223411262035,-0.341585457325,-0.315343499184,-0.193785995245
2017/07/09/09:37:18.359579,262302,1499564241,159242843,,0.83032616821,0.0166968916452,0.238508440997,0.739652592491,0.665581981141,0.0109707786757,0.0989662104808,-0.0309266803439,-0.209398565784,0.0725828250702,-0.0413456736772,0.169060263243,0.292528706554,0.296417593956,-0.347214430571,-0.944308698177,-0.306516975164,0.100150935352,-0.262260705233
2017/07/09/09:37:18.369238,262303,1499564241,169241932,,0.830558782146,0.0150499943395,0.239916357293,0.738725631306,0.666617904736,0.0110527790743,0.0989082747357,-0.0372579369314,-0.184972892409,0.0677931945763,-0.0028240928483,0.191779961472,0.33398203056,1.78492116928,-0.365528702736,0.129170462489,-0.152870535851,0.585676372051,-0.248157992959
2017/07/09/09:37:18.379413,262304,1499564241,179254605,,0.830066304672,0.0135548106119,0.240010863806,0.737638880233,0.667987292709,0.0104378909435,0.097841246829,-0.0386708847767,-0.21695902177,0.0914543821818,-0.0238988013838,0.162487288393,0.299941981979,1.20208179951,0.23262193799,-0.141158431768,-0.307871997356,0.35470020771,-0.295593440533
2017/07/09/09:37:18.389580,262305,1499564241,189253372,,0.829487376113,0.0119958843974,0.241509477784,0.736441094497,0.669413593878,0.00997998230185,0.0971614873364,-0.0585782417827,-0.21347059259,0.0760351949722,-0.0174269445706,0.217765771273,0.310561988024,-0.567210257053,0.813316345215,0.0225604996085,-0.409051626921,-0.345215082169,-0.168909266591
2017/07/09/09:37:18.399633,262306,1499564241,199244471,,0.828737559419,0.00972101136929,0.241279394087,0.73551175103,0.670565324818,0.00885059476851,0.0963653268571,-0.0681135981169,-0.212836229196,0.0739125004148,-0.0191344072841,0.236966710279,0.339711370753,-0.508216798306,0.483756810427,-0.534631371498,-0.402393758297,-0.304057180882,-0.192200750113
2017/07/09/09:37:18.409641,262307,1499564241,209243292,,0.828213601291,0.00747909523095,0.242487810265,0.734320986179,0.671907859501,0.00823643062383,0.0961492527686,-0.0607355696874,-0.194558468137,0.0704364941729,-0.0241914310317,0.229161950189,0.363477668456,-0.13764578104,0.753477632999,0.28414490819,-0.47698122263,-0.118837140501,-0.212000921369
2017/07/09/09:37:18.419387,262308,1499564241,219252281,,0.827611941274,0.00561490679536,0.242793989714,0.732872467174,0.673599513636,0.00712797731914,0.0954506889779,-0.0598293458841,-0.185257255994,0.0595266924966,-0.00386363336876,0.233074762705,0.404314619441,-0.237211450934,-0.0363080352545,0.0476787239313,-0.293234676123,-0.0994917750359,-0.130659013987
2017/07/09/09:37:18.429090,262309,1499564241,229246127,,0.827688367612,0.00436186322694,0.243655361329,0.731403094626,0.675256027997,0.00729530205173,0.0950030967536,-0.0476944725442,-0.179422036996,0.0735160891819,-0.0132419895888,0.195484011617,0.424257394906,1.59498500824,0.256686061621,0.736013293266,-0.195240855217,0.638848423958,-0.210490643978
2017/07/09/09:37:18.439622,262310,1499564241,239247851,,0.827326769683,0.00290912692117,0.244612693858,0.730694031092,0.676099503686,0.00701329428614,0.0944801976346,-0.0580768676859,-0.171540134243,0.0648799875874,0.0031842604745,0.208695818535,0.347215292308,0.737712919712,0.332837998867,0.807274281979,-0.262059867382,0.370946198702,-0.18096844852
2017/07/09/09:37:18.449467,262311,1499564241,249246718,,0.825605811455,0.000460103541054,0.244271252774,0.730511440587,0.676543425722,0.0056259720162,0.0927921156328,-0.0643920119272,-0.182074607536,0.0678178572363,0.0163261783631,0.197385046556,0.229550953436,0.52058506012,-0.121765390038,0.216353356838,-0.11988452822,0.377158582211,-0.15685236454
2017/07/09/09:37:18.459390,262312,1499564241,259247400,,0.825211137014,-0.0011726721857,0.245468858518,0.72983015408,0.677316597274,0.00518679286693,0.0925379405006,-0.0786485837673,-0.171278146072,0.066985823398,0.0418509304184,0.22117957344,0.198645131027,1.25955355167,0.0613806173205,0.716791272163,-0.115530595183,0.559348642826,-0.177133381367
2017/07/09/09:37:18.469131,262313,1499564241,269248310,,0.824263846634,-0.00225124584225,0.245240743574,0.729089559864,0.67831518148,0.00434997288171,0.0910933916822,-0.0830487976908,-0.191983633562,0.0645451333451,0.0226521002766,0.216348240581,0.15132439414,2.95588254929,-0.0498088151217,0.559661388397,-0.0270079597831,1.14948546886,-0.262085199356
2017/07/09/09:37:18.479288,262314,1499564241,279248854,,0.823990127646,-0.00509947930256,0.246935819711,0.729241209331,0.678117831249,0.00446927908921,0.0913427123597,-0.069797776174,-0.202627086577,0.0858767923054,0.0288040161264,0.155367836568,0.100456011273,3.20252585411,-0.321040034294,0.842272222042,-0.0887345671654,1.16126704216,-0.270050495863
2017/07/09/09:37:18.489522,262315,1499564241,289245048,,0.823278438695,-0.0061944957864,0.246843531555,0.727689145729,0.679959941695,0.0039247047133,0.0900421099861,-0.0665723365012,-0.185970364774,0.0841937187784,0.0160450850227,0.162835989237,0.166480014514,2.63432884216,-0.0927111506462,0.0800508335233,-0.192951381207,0.938051700592,-0.201426565647
2017/07/09/09:37:18.499217,262316,1499564241,299245958,,0.822818033979,-0.00795272546966,0.247596753566,0.72657986786,0.681174948984,0.00332978336656,0.0898403975976,-0.0570603366428,-0.182953821005,0.0528454432881,0.0251399573996,0.168268487103,0.307979218836,3.27441382408,0.00676848739386,0.528635919094,-0.132906660438,1.18194293976,-0.218412697315
2017/07/09/09:37:18.509427,262317,1499564241,309244202,,0.822953432682,-0.00939462016703,0.248470019117,0.725689588869,0.68215507383,0.00406729606088,0.0895685935917,-0.0525229869966,-0.195582216947,0.0585635778282,-0.0212998308101,0.150192653086,0.353350141502,4.14571666718,-0.213541910052,1.44027125835,-0.0188821256161,1.63663375378,-0.234297007322
2017/07/09/09:37:18.519266,262318,1499564241,319244420,,0.822304200935,-0.0123140597474,0.249725791809,0.725015482515,0.682824205435,0.00327244633889,0.0899608008038,-0.0374849285402,-0.166838596617,0.0704589922855,-0.00258683422738,0.103659746033,0.388397603879,2.89393496513,-1.30794692039,2.09892892838,0.374396920204,1.31299102306,-0.100559994578
2017/07/09/09:37:18.529274,262319,1499564241,329240602,,0.82112412325,-0.0134708761611,0.249289473467,0.72349742273,0.684636501651,0.00203180815593,0.0884319606533,-0.0504909604828,-0.188404081904,0.0701872942068,-0.0146955418391,0.118333057194,0.310579537237,3.36056661606,-1.04149973392,1.14353597164,0.258755862713,1.58639335632,-0.18389852345
2017/07/09/09:37:18.540004,262320,1499564241,339248257,,0.821568816734,-0.0154879268799,0.250495952225,0.722965999817,0.685105478148,0.00263629444613,0.0891274193019,-0.0528144413031,-0.169411999953,0.0493871069997,-0.00576458548345,0.145781078029,0.311131812218,2.99184679985,-1.06808900833,1.29894506931,0.218194276094,1.37674438953,-0.185379475355
2017/07/09/09:37:18.549381,262321,1499564241,349248037,,0.820928300432,-0.0164398431885,0.250826578813,0.721973024611,0.686266909437,0.00233200863299,0.0882453538836,-0.051224773496,-0.185694510534,0.0465496236072,0.00154636488253,0.115938665135,0.235403730292,3.64273524284,-0.662307322025,1.13480949402,0.141879737377,1.56126630306,-0.215781524777
2017/07/09/09:37:18.559537,262322,1499564241,359247601,,0.820318355616,-0.0181700406871,0.251027530033,0.721205216659,0.687133408066,0.00195133150111,0.0877889929843,-0.0516220809452,-0.196400435948,0.0529417780062,-0.00574503463018,0.0938341079992,0.194347469159,3.35628271103,-0.571606338024,1.09681153297,0.128025025129,1.41710412502,-0.209238409996
2017/07/09/09:37:18.569147,262323,1499564241,369243453,,0.819342194758,-0.020285881312,0.250889461606,0.721154478944,0.687277669169,0.00119766437193,0.087087246831,-0.0650592918773,-0.19848661403,0.0483827985419,0.0161809533987,0.104777202943,0.169827022963,4.10233688354,-1.02656400204,0.905104994774,0.17171369493,1.67560148239,-0.216684535146
2017/07/09/09:37:18.579406,262324,1499564241,379241795,,0.819462232217,-0.021589936029,0.251853037359,0.720746120813,0.687704433319,0.00196771538069,0.0870848426722,-0.0441262029585,-0.171284867613,0.0382097467666,0.0475300957928,0.0679793798353,0.133370106118,5.06802368164,-1.33867633343,1.64936053753,0.291493862867,1.98509347439,-0.202037468553
2017/07/09/09:37:18.589678,262325,1499564241,389249092,,0.819426348843,-0.0231480860946,0.252962912939,0.720302384871,0.688139520107,0.00238206969494,0.0873086534053,-0.0354068622641,-0.168356799246,0.0475653467545,0.0430627722523,0.0321374854563,0.074544856579,4.08748626709,-1.08338236809,1.68108022213,0.138136327267,1.61794674397,-0.224735125899
2017/07/09/09:37:18.599369,262326,1499564241,399253720,,0.819190548903,-0.0235598563205,0.252508861525,0.720183426473,0.688385003891,0.00247338654853,0.0863469803218,-0.0145603888129,-0.160777767119,0.0511751596664,0.0453143775028,-0.0264354600184,0.0812658246218,4.23543357849,-0.193371102214,1.13885700703,0.0496856570244,1.70448350906,-0.210647791624
2017/07/09/09:37:18.609540,262327,1499564241,409245778,,0.819216174264,-0.0261209128965,0.253047662933,0.72016755271,0.688289994244,0.00231911891497,0.0872364690627,-0.0214321727682,-0.184385314772,0.0333560293022,0.0174899832931,-0.0163860784716,0.0178103237231,4.51804971695,-0.452294558287,1.37781476974,0.120234802365,1.86178314686,-0.266727030277
2017/07/09/09:37:18.619552,262328,1499564241,419253272,,0.818538590866,-0.0288451738591,0.253425350327,0.720687120297,0.687768805221,0.0027032022723,0.0870450337496,-0.0140162282663,-0.174647559329,0.0320336284539,0.0050682971796,-0.0291693334843,0.0223233320601,3.9590742588,-1.73545110226,1.87064862251,0.391184657812,1.78494119644,-0.227102488279
2017/07/09/09:37:18.629198,262329,1499564241,429246738,,0.818049373064,-0.0303936472572,0.253633933991,0.720622880143,0.687859350138,0.00237631651498,0.0868707785214,-0.0308273655504,-0.188903580193,0.0308069282404,-0.00665810324544,-0.0034987198917,-0.0139897873508,4.57393503189,-0.750591993332,1.55448365211,0.0871086716652,1.96464920044,-0.352861315012
2017/07/09/09:37:18.639477,262330,1499564241,439242339,,0.818085904752,-0.0321346785764,0.253643245033,0.720966875053,0.687487400801,0.00275040755037,0.0869498365387,-0.0289576602663,-0.156787020552,0.0320754973156,0.0460910479025,-0.00500919268063,-0.0281656639537,3.83719611168,-1.13463079929,1.22461938858,0.126351296902,1.58368837833,-0.273555517197
2017/07/09/09:37:18.649307,262331,1499564241,449242001,,0.817949040324,-0.0327509186663,0.254135623605,0.720909480437,0.687610516827,0.00356764650909,0.0864208890419,-0.0227781841414,-0.139177026779,0.0281571147952,0.0588719223237,-0.0154555972154,0.0051420797295,3.43607759476,-0.556635081768,1.37049424648,0.0314810276031,1.34160876274,-0.247590392828
2017/07/09/09:37:18.659356,262332,1499564241,459250263,,0.817626979207,-0.0344329619986,0.254168645086,0.720604883795,0.687918930137,0.00342707262418,0.0865124394723,-0.0163094810164,-0.135719330616,0.0257688881697,0.0749690334221,-0.0391403404194,0.00990709018798,3.26316785812,-0.627122104168,0.961501598358,0.127420663834,1.2441740036,-0.23158955574
2017/07/09/09:37:18.669310,262333,1499564241,469241604,,0.818050180201,-0.0352083309517,0.25475251934,0.720481323523,0.688024222961,0.00463502926137,0.0866478365439,-0.00105717982353,-0.136800889126,0.0228009088881,0.0693883442961,-0.0771631598722,0.0242514064507,3.18849039078,-1.43286466599,1.11976289749,0.276012808084,1.31370854378,-0.218318015337
2017/07/09/09:37:18.679327,262334,1499564241,479246624,,0.818120392652,-0.0365088691088,0.25510270614,0.720266634607,0.688223431244,0.0051716464126,0.086820146465,-0.0062492136901,-0.132121855214,0.0132014140104,0.102488671133,-0.0758302033492,0.0181729969287,3.83610081673,-0.845002412796,1.20956361294,0.258401095867,1.54131126404,-0.25698363781
2017/07/09/09:37:18.689758,262335,1499564241,489241288,,0.817715982651,-0.0382133783667,0.254709969847,0.720900448405,0.687596952122,0.00550270898322,0.0865025728854,0.00151556964245,-0.121621397474,0.0154190540942,0.0863071151523,-0.0879314486157,0.0302049121858,4.12164163589,-1.39483106136,1.13635706902,0.382982373238,1.67653357983,-0.238043546677
2017/07/09/09:37:18.699376,262336,1499564241,499247499,,0.817894061741,-0.0396267591447,0.255103289043,0.721112891752,0.68733007121,0.00630754653744,0.0867973813924,-0.0033793383422,-0.112755092077,0.000817110355979,0.111449695383,-0.0703418481767,-0.0221572239946,4.52515459061,-1.50838279724,1.28547310829,0.363684535027,1.88768875599,-0.271816730499
2017/07/09/09:37:18.709558,262337,1499564241,509249033,,0.817689668333,-0.0397106516239,0.254955854558,0.721269631923,0.687278119638,0.00720364645871,0.0858312985442,-0.00307834313294,-0.104778771272,-0.0138445095389,0.148986098426,-0.0745064653498,-0.0747274642322,4.92522859573,-1.40457761288,1.44472157955,0.395934820175,2.03868293762,-0.272113412619
2017/07/09/09:37:18.719321,262338,1499564241,519248920,,0.817554784227,-0.0393709640291,0.253516482125,0.721241561591,0.687465440842,0.00752718694553,0.0845293968901,-0.0144150229642,-0.0847432487571,-0.0227614894738,0.184945972956,-0.044557612017,-0.0683883892365,4.00054979324,-0.348258376122,0.373111575842,0.112547144294,1.60468029976,-0.24182677269
2017/07/09/09:37:18.729365,262339,1499564241,529254893,,0.817761941146,-0.0408852989255,0.254360847383,0.722217775692,0.686351344738,0.00878020777459,0.0851247555201,0.00287674278865,-0.0550923619242,0.000984583255591,0.199592120883,-0.0964119354447,-0.0885371260075,3.10952019691,-0.880212664604,1.17432141304,0.0627363324165,1.29066359997,-0.225775048137
2017/07/09/09:37:18.739740,262340,1499564241,539247903,,0.817946625672,-0.0418599188945,0.254488050519,0.722796563214,0.685708833134,0.00965904054668,0.0852949430125,0.000737916973118,-0.0897070921564,0.0138817606463,0.164116409232,-0.125321048002,-0.158367432239,3.42940163612,-1.11290681362,1.21883523464,0.0884750336409,1.45525074005,-0.21492856741
2017/07/09/09:37:18.749499,262341,1499564241,549242796,,0.81799314486,-0.0431040219944,0.254353364452,0.723258455256,0.685192157169,0.0101250269793,0.0854774735413,0.00612593189221,-0.108648647127,0.00245013280947,0.117664720104,-0.134307778506,-0.158272362812,3.54532194138,-1.75681817532,0.7144998312,0.108870655298,1.62032032013,-0.267893075943
2017/07/09/09:37:18.759417,262342,1499564241,559249497,,0.81786076852,-0.043408513418,0.253961631761,0.722207272715,0.686360281905,0.0106301012726,0.0849306752989,-0.000705716468519,-0.116840141567,-0.00909947001046,0.0589785478264,-0.089590501471,-0.0308489575076,2.79786252975,-0.542984962463,0.265127539635,-0.240536794066,1.32194554806,-0.314730495214
2017/07/09/09:37:18.770260,262343,1499564241,569242449,,0.818026847507,-0.044179429421,0.253956889651,0.720930195749,0.687660404477,0.0107511304726,0.0852480742581,0.0146657538419,-0.0718935118035,-0.0249407607499,0.0649486082503,-0.0637584771041,0.201054649456,3.9974937439,-0.820500254631,0.111966371536,-0.0649021118879,1.80956697464,-0.315550595522
2017/07/09/09:37:18.779207,262344,1499564241,579247162,,0.818025357176,-0.0449075115022,0.253910228058,0.720848338927,0.687744703807,0.0112266404286,0.0851989272002,-0.00642785354494,-0.0978280648419,-0.0288252695446,-0.00142351686988,-0.00938778393543,0.299805129816,3.18761372566,-0.288307726383,0.454847455025,-0.132285267115,1.47381615639,-0.402523517609
2017/07/09/09:37:18.789636,262345,1499564241,589241085,,0.817078154334,-0.0463317112668,0.253182229604,0.721369198694,0.687311655981,0.0112628235291,0.0842752367749,-0.00141915560502,-0.0949354821484,-0.00850715058876,0.0280331863792,-0.0616722283259,0.0886798820728,2.05760717392,-0.620784759521,0.365487724543,0.00252918154001,1.1832126379,-0.282168030739
2017/07/09/09:37:18.799377,262346,1499564241,599249097,,0.817906923303,-0.0471800158398,0.253754059587,0.721615446358,0.686889403639,0.0119784911078,0.0855021081417,-0.0125265079503,-0.0947949908141,-0.00239256867526,0.0543110783276,-0.0649183510027,-0.0714456897983,1.92880296707,0.564100861549,0.6897803545,-0.308348089457,1.0184879303,-0.305217295885
2017/07/09/09:37:18.809347,262347,1499564241,609243823,,0.818320554494,-0.0468540441787,0.254049183969,0.721785456552,0.686702522364,0.0133020149296,0.0853724597727,0.00331917585538,-0.0765777090215,0.00917199388981,0.0664288041833,-0.102407823798,-0.114269531957,-0.0256426781416,1.25958895683,0.341165482998,-0.634872376919,0.290915042162,-0.245853215456
2017/07/09/09:37:18.819332,262348,1499564241,619250433,,0.817517391739,-0.047517655549,0.253350809041,0.722052223487,0.686529922012,0.013099821931,0.0845319312682,-0.00530278587598,-0.0339260431663,0.00231650197003,0.119310566564,-0.0603660568367,-0.094147533773,-1.577298522,1.49629378319,-0.576148808002,-0.848014056683,-0.278447151184,-0.228791356087
2017/07/09/09:37:18.829411,262349,1499564241,629246076,,0.817213676931,-0.0487588373184,0.253788893993,0.722827618435,0.685701566992,0.0136709443616,0.084538159034,-0.0159363695797,-0.030286113547,-0.0103570406032,0.134389216419,-0.0298100827537,-0.0638305384959,-0.978777229786,0.684350252151,-0.32994183898,-0.683861613274,-0.0661962404847,-0.232618004084
2017/07/09/09:37:18.839519,262350,1499564241,639246808,,0.816998856823,-0.0482381588633,0.253083916073,0.722984548033,0.685651134184,0.0141082728694,0.0835273735592,-0.0191201675001,-0.0448774421401,-0.011515893365,0.169634992731,-0.0536608333153,-0.106136431351,-0.626937448978,0.118335053325,-0.916642546654,-0.462514936924,0.112369723618,-0.211745768785
2017/07/09/09:37:18.849778,262351,1499564241,649244932,,0.817251004632,-0.0479909209061,0.252657903571,0.722894055688,0.685759038938,0.0148034910736,0.0833041500613,-0.0288318299509,-0.0300569948988,-0.040980485599,0.141104118304,0.0189260651201,-0.057171936732,-0.732345759869,0.685853362083,-0.698219239712,-0.5282959342,-0.0355524122715,-0.207094684243
2017/07/09/09:37:18.859558,262352,1499564241,659241126,,0.816776273835,-0.0490766334458,0.253235228423,0.723204470239,0.68540190544,0.0147285705773,0.0835619019307,-0.0195459602882,-0.00150186524219,-0.0210064659448,0.133925586467,0.00849322154778,-0.0290815722986,-0.265268862247,0.0830180048943,0.192637443542,-0.331210762262,0.146117508411,-0.182898208499
2017/07/09/09:37:18.869276,262353,1499564241,669239462,,0.816390526279,-0.0485608103773,0.252318542866,0.723020280967,0.685739012057,0.0148911619765,0.08235249813,-0.0128442346179,-0.0012244158668,-0.0158461139815,0.0870996998864,-0.000128413484347,-0.00999735849578,-0.0995637476444,0.409503102303,0.507759392262,-0.332894355059,0.198129549623,-0.203218221664
2017/07/09/09:37:18.879393,262354,1499564241,679249307,,0.816472705619,-0.0482028691842,0.252914086593,0.723024424664,0.685732317676,0.0156490913422,0.0822312335688,-0.00932247492997,-0.0115118319306,-0.00809313642303,0.0736270657092,-0.0160670438603,-0.00677432462325,0.0537299737334,0.336276888847,0.640440881252,-0.252552330494,0.281636118889,-0.163135930896
2017/07/09/09:37:18.889476,262355,1499564241,689244398,,0.816256477242,-0.0487971503002,0.252028647492,0.723552135191,0.685221052312,0.0157902968292,0.081823490856,-0.0285739348628,-0.0172184338794,-0.0301425910301,0.0834080178313,0.0411222045206,-0.0355530697319,1.19086515903,0.19032035768,1.18437612057,-0.131717979908,0.629814863205,-0.193464189768
2017/07/09/09:37:18.899492,262356,1499564241,699247290,,0.816089951537,-0.0493033691626,0.252075904206,0.723350307489,0.685414466418,0.0153833904006,0.0820651764192,-0.0111136422111,-0.000409164821475,-0.0145521218806,0.088687458256,0.00103243096479,0.0013845963687,0.342131078243,0.305598884821,0.701228022575,-0.231272816658,0.321416079998,-0.188988998532
2017/07/09/09:37:18.909428,262357,1499564241,709247721,,0.8160306246,-0.0488067045202,0.252396803445,0.723563921131,0.6852260771,0.0159945227162,0.0816373109725,-0.0175457950216,-0.0175780877857,-0.017150638866,0.0540885455735,0.0207551696996,-0.0116391078064,-0.346695184708,0.546787023544,0.845415115356,-0.283989191055,0.0167091488838,-0.16144862771
2017/07/09/09:37:18.919425,262358,1499564241,719246905,,0.815486969122,-0.0498156170831,0.251596576626,0.724181753278,0.684622418885,0.0154403713502,0.0813297406367,-0.0275223671714,-0.020984781362,-0.0279657286193,0.0574342980864,0.0482946400418,-0.044687843032,-1.06874573231,0.00364536046982,0.193314105272,-0.207928836346,-0.298462927341,-0.110145173967
2017/07/09/09:37:18.929337,262359,1499564241,729253891,,0.815570110798,-0.049289231618,0.251903720725,0.723929142301,0.684916161355,0.016274683845,0.0809418526362,-0.0162860355177,-0.0175097533177,-0.00453261561725,0.059075003914,0.00438606465909,-0.0440755764749,-1.61250984669,0.793207764626,-0.0847858861089,-0.295061200857,-0.627852499485,-0.049119822681
2017/07/09/09:37:18.939539,262360,1499564241,739247697,,0.815538546791,-0.0491698240573,0.251423247383,0.723712890678,0.685182364025,0.0162164454332,0.0806337819584,-0.0165455437203,-0.0109097889744,-0.0088716074787,0.0665023578921,0.010784190296,-0.0230060272434,-1.35680472851,0.59886932373,-0.301831394434,-0.28413105011,-0.558647036552,-0.088670372963
2017/07/09/09:37:18.949479,262361,1499564241,749241663,,0.81552761142,-0.0489531266817,0.251287755791,0.723933077753,0.684988895021,0.0166340533194,0.0802148421696,-0.005860005067,-0.0197396449612,-0.0111276472187,0.07680298378,-0.0215737507189,-0.0416486745068,-0.686039686203,0.440360248089,-0.15948793292,-0.200499892235,-0.262424886227,-0.0545380860567
2017/07/09/09:37:18.959476,262362,1499564241,759240204,,0.815189835902,-0.0498166801023,0.251345633855,0.724167620746,0.684737673396,0.0166757621604,0.08023399935,0.00573204122758,-0.00103885849794,-0.00859548163209,0.0647545699038,-0.0330712146618,-0.0100822732241,-1.20328652859,0.0705152451992,0.061829186976,-0.203687682748,-0.335182219744,-0.0941893011332
2017/07/09/09:37:18.969180,262363,1499564241,769246633,,0.815703936461,-0.0490639804972,0.25084776072,0.723947562524,0.684974061031,0.0169297976123,0.0801488888522,0.00540008580054,-0.00774326783586,-0.01041022951,0.0443188465841,-0.0286844261162,-0.00985483980294,-0.685038685799,0.922324955463,-0.0304710865021,-0.428230941296,-0.203824833035,-0.145894497633
2017/07/09/09:37:18.979273,262364,1499564241,779239579,,0.8155251392,-0.0493524284009,0.250856634621,0.723795973354,0.68513345557,0.0169789212111,0.080145201036,-0.010551637877,-0.00782774759484,-0.0152922567809,0.0321790490685,0.0162674069267,0.00358437206096,-2.44014596939,0.98525005579,-0.216649800539,-0.569255530834,-0.83955681324,-0.0857113078237
2017/07/09/09:37:18.989720,262365,1499564241,789246140,,0.815412349653,-0.0496134555033,0.250608585903,0.724184682331,0.684756004289,0.0172476435434,0.079801499107,-0.0101703743026,-0.00707932571659,-0.0191123614463,0.040563878853,0.0158787719409,-0.035677042151,-2.51907396317,0.770592808723,0.154174253345,-0.480090737343,-0.871748566628,-0.0876290723681
2017/07/09/09:37:18.999377,262366,1499564241,799247162,,0.815251318927,-0.049407534427,0.250851463019,0.724074866517,0.684886514472,0.0169690896068,0.0797376947862,-0.00896529430033,-0.0149044590289,-0.00853643059922,0.00771164981621,0.0161467325398,-0.0292935237239,-2.10221362114,1.30439782143,-0.207056641579,-0.597276389599,-0.759045004845,-0.115360051394
2017/07/09/09:37:19.009434,262367,1499564241,809248325,,0.815344694526,-0.0495962298411,0.250881820577,0.724196218287,0.684729745384,0.0169095026475,0.0799942618265,-0.0106439861166,0.0043210800644,-0.0295778488831,0.0218822915993,0.0455625627723,0.00659100506213,-2.03397989273,0.993799865246,0.303718566895,-0.500822722912,-0.726104259491,-0.104268223047
2017/07/09/09:37:19.019144,262368,1499564241,819247880,,0.815365707085,-0.0497582552842,0.250615764053,0.724188714131,0.684745142769,0.0170801304311,0.0798940856645,0.00800914353251,0.0060615926998,0.00780407074106,-0.00233954501595,-0.0170255217954,0.0251578095022,-2.13348197937,1.23747014999,0.174827352166,-0.512070715427,-0.783731162548,-0.0773462951183
2017/07/09/09:37:19.029379,262369,1499564241,829248375,,0.815437603255,-0.0496154175764,0.25062206378,0.724061423021,0.684873153578,0.0169275278336,0.0799829857017,0.00351104537987,0.00718914072442,-0.00446514600409,0.0165909559978,-0.00637393912286,0.0109504367815,-0.349373996258,0.23564389348,0.308823853731,-0.282871514559,-0.0513544082642,-0.154701560736
2017/07/09/09:37:19.039621,262370,1499564241,839245614,,0.815505654569,-0.0498021856537,0.250638932039,0.72443722201,0.68446037152,0.0172033666531,0.080054702307,-0.0072959887473,-0.0196251571209,-0.0142233949101,0.00469675894942,0.0111823403452,-0.0258872445297,0.37989205122,-0.199029564857,0.322878986597,0.0065538212657,0.205613613129,-0.116479888558
2017/07/09/09:37:19.049284,262371,1499564241,849249406,,0.815660430791,-0.0498010188337,0.250831170881,0.724250966861,0.684631473158,0.0172550589918,0.0802654714177,0.00159632833987,-0.019706040207,-0.00555322481182,-0.0149532232346,-0.00921499217386,-0.0310036303427,0.153041034937,0.100563928485,0.42774695158,-0.0478999316692,0.138421177864,-0.107940271497
2017/07/09/09:37:19.059572,262372,1499564241,859247697,,0.815183062948,-0.0501398578822,0.250202894506,0.724297838128,0.684644867919,0.0168389865156,0.0798153810297,0.00739050279726,0.00519523764035,-0.00877997178666,0.0079930430848,-0.00652036593238,-0.00544948492387,-0.595347881317,0.0562293231487,0.0833449363708,-0.0662241280079,-0.123493105173,-0.0979859828949
2017/07/09/09:37:19.069436,262373,1499564241,869243932,,0.8154566372,-0.0498511514427,0.250394117373,0.724374159704,0.68453829903,0.0169515597637,0.0800127398355,-0.00496365157215,-0.00481914388662,-0.0113894566952,0.00488344470609,0.0151666311924,0.00432354986511,0.29220688343,0.196866422892,0.539324700832,-0.114407345653,0.195678919554,-0.126581415534
2017/07/09/09:37:19.079345,262374,1499564241,879242247,,0.815426233505,-0.0497076102547,0.250242072251,0.724154917959,0.68480033948,0.0170288224393,0.0797381279544,-0.00525294183641,-0.00862240104543,-0.00133299803766,-0.00974787939363,0.00816192845918,-0.00153618083128,-0.726388454437,-0.0592073351145,0.440233409405,-0.0835075676441,-0.178862169385,-0.0988482236862
2017/07/09/09:37:19.089612,262375,1499564241,889241354,,0.814856459468,-0.0501966770224,0.250164119494,0.724329774442,0.684647818967,0.0164864347413,0.0795734837113,0.0017697397423,0.0131880291783,-0.00680858825721,0.0307134500073,0.00109338466246,0.00576103272825,-0.15043514967,-0.300446033478,0.622699081898,-0.0614366605878,0.102648139,-0.126693606377
2017/07/09/09:37:19.099710,262376,1499564241,899245324,,0.815201234416,-0.0498317940314,0.250503841155,0.724133957314,0.684827388949,0.0172276732096,0.0796534147846,0.00373567831342,0.0153792654096,-0.00851843485576,0.017349256536,0.00374426017959,0.0170344293331,-0.0602261573076,-0.485547780991,0.927023053169,0.0635139793158,0.127050593495,-0.100602678955
2017/07/09/09:37:19.109221,262377,1499564241,909249787,,0.815621439436,-0.0488900456876,0.249976174483,0.724055521481,0.684942028154,0.0175720801209,0.0793047405918,-0.00834160262209,-0.00407191876827,-0.00629503733002,-0.00422390764688,0.0240111031623,0.00648669369389,0.860712110996,0.169721215963,0.565491318703,-0.0624487102032,0.434149116278,-0.161170721054
2017/07/09/09:37:19.119382,262378,1499564241,919250325,,0.81540802213,-0.0495913999509,0.250394679045,0.724306604754,0.684633371946,0.0170013120749,0.0798000232787,0.0119924350047,0.0121994812352,-0.0040847539564,0.00879702359406,-0.0156282186698,0.0137236559282,-0.114327132702,0.11965842545,0.838668167591,-0.0941962227225,0.101777017117,-0.137950003147
2017/07/09/09:37:19.129230,262379,1499564241,929251726,,0.81575276713,-0.0496506339699,0.25028119832,0.724122914875,0.684797123286,0.0173814274658,0.0799799354336,0.0150358579183,0.0141941514886,-0.00143936625824,0.01564320966,-0.0258904022605,0.0150930632401,0.249830290675,-0.1108712852,0.629518568516,-0.0465513691306,0.242050647736,-0.146253347397
2017/07/09/09:37:19.139691,262380,1499564241,939245542,,0.815822545502,-0.0490527892421,0.249915571171,0.724263933663,0.684690219399,0.0175358105563,0.0795836239538,0.0128824088584,0.00857451977366,-0.00142219544004,0.00442739624027,-0.023693377544,0.00462854380257,-0.949651241302,-0.183380678296,0.49780395627,-0.0662342533469,-0.139238327742,-0.102345272899
2017/07/09/09:37:19.149710,262381,1499564241,949244695,,0.815932739616,-0.0491228412181,0.250076813686,0.723892720176,0.685061663278,0.0175821910495,0.0797540829137,0.00771791621173,-0.00315142289653,-0.0056518809164,-0.00080205618541,-0.0143526974521,0.0147376504761,-0.392223358154,-0.0923342555761,0.765641987324,-0.044791739434,0.0804605707526,-0.108696982265
2017/07/09/09:37:19.159416,262382,1499564241,959254187,,0.816052817674,-0.0487612449398,0.250037897689,0.72370359293,0.685272796769,0.0177742754358,0.0796139354741,-0.00487914970571,-0.012559126059,-0.0175926972577,0.00537664277731,0.0145717693784,-0.00814082903393,-0.682033598423,0.296588897705,0.732093214989,-0.153781205416,-0.0267340578139,-0.123504512012
2017/07/09/09:37:19.169098,262383,1499564241,969241703,,0.815969290995,-0.048928029327,0.249606128923,0.723767113054,0.685212971156,0.017268270808,0.0796627707554,-0.000838945416709,0.00343045718023,-0.0151635609926,0.0220581710104,0.00774040680356,-0.00831301617001,-0.212195530534,0.575113654137,0.552131891251,-0.172508597374,0.117090515792,-0.151593908668
2017/07/09/09:37:19.179139,262384,1499564241,979255054,,0.815619573783,-0.0493374758845,0.249194844318,0.724202537884,0.684791311523,0.0170927978763,0.079368633887,0.00572786969798,0.016291953064,-0.0037334766786,0.00980267522502,0.000538554283376,-0.00148007745422,-1.21427607536,-0.294820308685,0.155795753002,-0.0538193508983,-0.228195399046,-0.104333475232
2017/07/09/09:37:19.189591,262385,1499564241,989247918,,0.816475053434,-0.048701434663,0.249560714597,0.723563414229,0.685381292444,0.017476526762,0.080019001303,0.00307226805635,-0.00272649539264,-0.00479897789729,-0.0171605613092,0.00194892552712,-0.00642681439177,0.107838608325,0.407790541649,0.715048909187,-0.160406589508,0.208741515875,-0.156583636999
2017/07/09/09:37:19.199572,262386,1499564241,999248147,,0.816101257249,-0.0493297188634,0.249791503966,0.723907210809,0.685022046483,0.0174381630566,0.079994102533,0.00230029477612,0.0159316004449,-0.00581746417685,0.00231403338709,0.0156251129825,0.0284513149822,-0.525617301464,-0.0846997350454,0.591630756855,-0.0229463577271,-0.0180851407349,-0.122760660946
2017/07/09/09:37:19.209608,262387,1499564242,9245631,,0.815829108438,-0.0488337199405,0.249217781312,0.723858308031,0.685156942175,0.0172348701603,0.0793225928364,0.00281099458322,0.0219655525162,-0.0159876987698,0.0186892992859,0.0227196007416,0.03015903699,-0.180683523417,-0.461148560047,0.932315587997,0.110187001526,0.160218924284,-0.0961901322007
2017/07/09/09:37:19.219266,262388,1499564242,19258071,,0.815895751839,-0.0491447188817,0.249638029691,0.72368939232,0.685290147808,0.0172131506119,0.0797169003839,0.0174004583336,0.0183552720736,-0.00312874336921,0.0225121944173,-0.0273634773594,0.0191929606071,-0.781183600426,-0.431713998318,0.594280660152,0.0452089756727,-0.0322307981551,-0.0863719880581
2017/07/09/09:37:19.229169,262389,1499564242,29242881,,0.816263291699,-0.0488008633293,0.249531345422,0.723836323371,0.685121393671,0.0175517168912,0.0797595770883,0.00557673870172,0.00822996189469,0.000912394646442,-0.00605751641104,-0.0039900659376,0.0272595652395,-0.754657328129,0.0305995494127,0.39851051569,-0.0251707173884,-0.125871539116,-0.0858973860741
2017/07/09/09:37:19.239631,262390,1499564242,39251391,,0.815604691933,-0.0481697970913,0.248964905096,0.723538815461,0.685576076703,0.0173016832001,0.0785982018371,-0.0102720651489,0.0195895885638,-0.00506724637762,0.0172496074531,0.0392065093696,0.0133965181814,-0.593877315521,-0.156922101974,0.604613542557,-0.0326093360782,0.0565297678113,-0.12473616004
2017/07/09/09:37:19.249509,262391,1499564242,49254720,,0.816564847287,-0.0479563266884,0.249175267702,0.7235615961,0.685444576693,0.0180880941262,0.0793547086325,0.00606752488664,0.00331282793682,0.00635493275233,-0.0092439790556,-0.00834512151595,0.00979042431845,0.0101230964065,-0.0027764737606,0.631985604763,0.0132756978273,0.171071499586,-0.123924165964
2017/07/09/09:37:19.259338,262392,1499564242,59240833,,0.816038734316,-0.0484454359588,0.249032187303,0.723784379388,0.685246433557,0.0173473144183,0.0791995462965,0.00839205655038,0.00758979758304,-0.00315513644708,0.00803615425757,-0.0132428115692,0.0146910281104,-0.0613658204675,-0.59072637558,0.325939893723,0.057849291712,0.218867868185,-0.118155673146
2017/07/09/09:37:19.269384,262393,1499564242,69246913,,0.816101126825,-0.0483749343679,0.249118996017,0.723547355298,0.685488685084,0.0174100308882,0.0792551454984,0.001277623401,-0.013978259432,0.00983711658684,-0.0256146447285,-0.0165814843249,-0.0127288444462,0.0849065259099,-0.228785589337,0.0296993330121,0.0115451216698,0.228730171919,-0.143839418888
2017/07/09/09:37:19.279333,262394,1499564242,79259597,,0.815777631138,-0.0482341448647,0.248639132655,0.723803818965,0.685295508154,0.0175012900573,0.0785608235777,-0.0115397878421,0.00244003089914,-0.00670089618049,0.00777330526963,0.0283670647247,-0.00378859682035,-0.260366797447,-0.488123506308,0.256814837456,0.0543599650264,0.134229898453,-0.100804977119
2017/07/09/09:37:19.289627,262395,1499564242,89244941,,0.815802886748,-0.0482361544263,0.248652160499,0.723548775182,0.685552024442,0.0171659922008,0.0787459232436,-0.00518506550183,0.0010742021186,0.00166400714812,-0.00354163106901,0.0126029725613,0.00454377641483,-0.11498722434,-0.190005898476,0.3511544168,0.0362164229155,0.138938233256,-0.113485425711
2017/07/09/09:37:19.299428,262396,1499564242,99248793,,0.816564423172,-0.0478912887195,0.249749143052,0.723476365447,0.685506288497,0.0180886839446,0.0795982197302,0.00866270255666,0.0130679661827,-0.00518571625749,0.00906362540459,-0.0054163500961,0.0191037399453,0.336128592491,-0.088878467679,0.632510125637,0.181938558817,0.246201634407,-0.0542893335223
2017/07/09/09:37:19.309480,262397,1499564242,109248888,,0.816258806228,-0.0487784631086,0.249317446235,0.723432623722,0.685554067698,0.017244742711,0.0797714112075,0.0169056470384,0.00915051568365,0.00886827466935,-0.0117464745648,-0.0323053036046,0.0259043338284,-0.344011664391,-0.350309401751,0.476249098778,0.150141254067,0.0369133017957,-0.0887662395835
2017/07/09/09:37:19.319387,262398,1499564242,119241295,,0.816470751185,-0.0483704608146,0.249592424135,0.723549596947,0.685414567171,0.017516815961,0.0798499406794,0.00537449059305,-0.0155136073169,0.00699547551205,-0.0469970833721,-0.012420434274,0.01060346207,-0.584050834179,0.21285867691,0.613378584385,-0.0420297086239,-0.0139382481575,-0.130175366998
2017/07/09/09:37:19.329063,262399,1499564242,129247543,,0.816279242671,-0.048875310815,0.249625366294,0.723471883587,0.685491612913,0.0174315280574,0.0799113515993,0.00394893027204,0.00110399442153,-0.00539049235931,-0.000949625166212,-0.00360432429915,-0.00187269260565,-0.594840407372,-0.566509008408,0.577150046825,0.161230131984,0.0287078283727,-0.086381919682
2017/07/09/09:37:19.339583,262400,1499564242,139246951,,0.81603670533,-0.0484035699689,0.249278942855,0.723571435287,0.685450280198,0.0171998162638,0.0794132088166,0.0103524964317,0.00626088639433,-5.70219480048e-05,0.0241802794959,-0.0267259660473,-0.00910500710236,-0.567782759666,-0.265537202358,0.62309640646,0.197339296341,0.0628406628966,-0.0625361800194
2017/07/09/09:37:19.349731,262401,1499564242,149243613,,0.81652124731,-0.0485059440319,0.249188296864,0.723899771345,0.685051202342,0.0177340146452,0.079746322431,0.0105864031361,0.0218993439558,-0.00649357961036,0.0136779010113,-0.00548848255701,0.0115360340871,-1.01408064365,-0.15513266623,0.442292153835,0.121591210365,-0.177572727203,-0.0388763472438
2017/07/09/09:37:19.359716,262402,1499564242,159248155,,0.816788456991,-0.0477158027219,0.249121613118,0.723180716815,0.685832117461,0.0179037421332,0.0795198937671,0.00413911439433,0.000874790393866,-0.00735790892538,0.0126544049501,-0.00932020260512,0.000585025145605,-0.707177877426,0.16513441503,0.57409119606,0.0498596578836,-0.0691597983241,-0.0960744321346
2017/07/09/09:37:19.369416,262403,1499564242,169248256,,0.816533610196,-0.0470783747009,0.249006606983,0.723292023226,0.685797391966,0.0180148230346,0.0787785025316,0.00168221722599,0.0102352412465,-0.000747279433242,0.0153426552983,0.000120695524072,0.0148158120096,-0.976034939289,0.234768152237,0.493247866631,-0.00718126446009,-0.118776507676,-0.0716123059392
2017/07/09/09:37:19.379242,262404,1499564242,179241073,,0.816494740912,-0.0478432830904,0.249196197848,0.723374132189,0.685646653933,0.017650456815,0.0794165738595,-0.00112819899009,0.023199361182,-0.00803439918276,0.0372274734587,0.0149793073131,0.0144796862752,-0.114967755973,-0.0350405722857,1.04004824162,0.0847568288445,0.185149326921,-0.0855636075139
2017/07/09/09:37:19.389743,262405,1499564242,189242642,,0.816874003422,-0.046922787866,0.248947775317,0.723256979597,0.685790686128,0.0184538725036,0.0790565043079,0.010259567588,0.020639670927,0.00774057627339,0.0167544363817,-0.0201370378729,0.0398933900849,-0.501853525639,-0.169282406569,0.557047188282,0.0753491520882,0.0696554481983,-0.0668955817819
2017/07/09/09:37:19.399444,262406,1499564242,199240138,,0.816479430133,-0.0475286307818,0.248908166001,0.723224907283,0.685838430405,0.0180060902748,0.0790389877071,0.00381771238932,-0.000371635140679,0.00510620085321,0.00896324531873,-0.0205838149128,-0.00655617812322,1.04723119736,-0.378352850676,0.765757679939,0.221810355783,0.675349652767,-0.108041070402
2017/07/09/09:37:19.409594,262407,1499564242,209253326,,0.81652759901,-0.0475557336356,0.24909363251,0.72325434523,0.685805798687,0.0180133966698,0.0790510982432,-0.000203119296044,0.0070609789465,-0.0127096585951,0.0206265894186,0.0126384096861,0.0179699690342,0.86049169302,-0.422934651375,1.03109526634,0.232512652874,0.608965814114,-0.108199954033
2017/07/09/09:37:19.419258,262408,1499564242,219274325,,0.817322847199,-0.0468447852754,0.24943059776,0.723062594546,0.685932614526,0.0187304787284,0.0795367956678,0.00113278164858,0.0015435594212,-0.00696935748841,-0.00684966216452,0.00977166344475,0.0139129878488,0.0255932882428,-0.0713419467211,1.12634646893,0.0482763722539,0.270417571068,-0.0916121229529
2017/07/09/09:37:19.429248,262409,1499564242,229252895,,0.816489814092,-0.0472177593013,0.24853591913,0.723123446022,0.685987823969,0.0180052099317,0.0786701950878,0.00528737551902,-0.000184756219105,-0.00621792050546,0.00896972177304,-0.0112989619657,-0.0318068696649,-0.23102247715,-0.236985877156,0.445893406868,0.0700797364116,0.2165864259,-0.120471000671
2017/07/09/09:37:19.439645,262410,1499564242,239253169,,0.816565945564,-0.0474055888049,0.248509407746,0.72340451762,0.685666806667,0.0178578000519,0.0789178883313,0.00276054053104,0.00575095198094,0.00254491774554,0.00605715329963,-0.00655600286222,-0.00323266349038,-0.597398459911,0.213784560561,0.235032305121,-0.0704789161682,0.0473998263478,-0.0902849808335
2017/07/09/09:37:19.449496,262411,1499564242,249247218,,0.817065500523,-0.0473981553715,0.249162088377,0.723475726851,0.685506962315,0.0183523076526,0.0795378531215,-0.00392752964288,0.00414146981815,-0.00990381798462,0.00883023216313,0.016642086208,-0.0021121838686,-0.470935583115,-0.426981091499,0.784474253654,0.119754552841,0.0933966785669,-0.0611100830138
2017/07/09/09:37:19.459514,262412,1499564242,259244501,,0.816927053658,-0.0475894126243,0.248854773002,0.723568029065,0.685430665033,0.0181505056727,0.0794019514324,0.00105180038193,-0.00310391624414,0.00135452384026,-0.0151324784337,0.00228261277354,-0.00394199566588,-0.158730968833,-0.40650215745,0.56407302618,0.163103967905,0.211145341396,-0.0670743137598
2017/07/09/09:37:19.469091,262413,1499564242,269248426,,0.816998926804,-0.0465221913433,0.249015087853,0.72293054146,0.686136923539,0.0180389132964,0.0791337601022,-0.00704379147903,0.00085947274401,-0.00285298044848,0.00463130783187,0.0181789555535,0.00291154432374,0.331222772598,0.248085811734,0.819508135319,0.0242522284389,0.349335640669,-0.108661845326
2017/07/09/09:37:19.479143,262414,1499564242,279245833,,0.816971684541,-0.0475181468766,0.248885904019,0.723227405397,0.68578525573,0.0180953187642,0.0794560415834,0.00746127650965,0.00369361696836,0.00986751719914,-0.0340162166679,-0.00653533076516,0.026848520927,0.0905437320471,-0.1387565732,0.392822653055,0.0921175032854,0.212167918682,-0.0736490786076
2017/07/09/09:37:19.489833,262415,1499564242,289243929,,0.816442502568,-0.047913392378,0.249208331808,0.723416064155,0.6856166049,0.0180830480401,0.0791964177371,-0.00696868883128,-0.0104627008963,-0.00155249125789,-0.00019061995952,0.0077705255989,-0.00335393060981,0.245967686176,-1.12582182884,0.753636598587,0.374847143888,0.369487196207,-0.0357159115374
2017/07/09/09:37:19.499302,262416,1499564242,299243040,,0.816333503085,-0.0476519819404,0.248500372572,0.723294520853,0.685791674842,0.0174150790711,0.0789400395408,-0.0115107451269,-0.00569854025801,-0.00523630317158,0.0198468291974,0.0199678392786,-0.00836778554879,1.01535928249,-0.365926682949,0.451045513153,0.28991240263,0.572313904762,-0.0603078491986
2017/07/09/09:37:19.509512,262417,1499564242,309248074,,0.81655691782,-0.047169739633,0.248837302655,0.723027078881,0.686074590171,0.0183443861923,0.0787209211236,-0.00831458986436,0.0117654951593,-0.0150778605332,0.0153678152131,0.0364693218678,0.0198356215936,1.79754292965,-0.822491407394,1.11485207081,0.334565132856,0.882176935673,-0.102227054536
2017/07/09/09:37:19.519362,262418,1499564242,319262306,,0.816631776834,-0.0474821780525,0.249213351482,0.723288567489,0.685744901797,0.0179603786168,0.0792780082887,0.004023374053,0.00558531092438,0.00501203927585,0.0199301752956,-0.0140140897573,-0.00617009681407,1.56811964512,-0.863687455654,1.21718239784,0.338443130255,0.77686560154,-0.0872820317745
2017/07/09/09:37:19.529443,262419,1499564242,329248675,,0.816421103716,-0.0470312024805,0.248518912779,0.723272653152,0.685845855825,0.0177897917066,0.0785853329915,0.00349069609079,-0.0225937284252,0.0103331780146,-0.0308875909616,-0.0280318569215,-0.0227811813903,1.17795848846,-0.518544375896,0.277995049953,0.28532987833,0.636275410652,-0.0933706834912
2017/07/09/09:37:19.539537,262420,1499564242,339244258,,0.816303551925,-0.0473192124379,0.248519850087,0.723141116898,0.685984482009,0.0177450081531,0.0785959934162,-0.000628790682475,-0.0170697138244,0.00581759263546,-0.0177948394073,-0.0134406958322,-0.0371996019136,1.42578220367,-0.306778997183,0.851410388947,0.170926198363,0.745918810368,-0.100178040564
2017/07/09/09:37:19.549701,262421,1499564242,349240329,,0.816433712888,-0.0476756799657,0.248817613744,0.723400437133,0.685667856504,0.0178020877248,0.0789587473696,0.00657405174098,0.00811755486727,-0.00370097007248,0.00230966499027,-0.00403934936788,0.006317309643,1.76959061623,-0.68683475256,1.09073913097,0.283147841692,0.935339093208,-0.126147538424
2017/07/09/09:37:19.559539,262422,1499564242,359248443,,0.816385946113,-0.0476506280328,0.248534717789,0.723673935465,0.685401639486,0.0177732123877,0.0787701760848,0.00192542680098,-0.0134400454954,-0.00060307920379,-0.00117835317979,-0.0165210595758,-0.0142090733873,0.909822225571,-0.700030982494,0.625136911869,0.243629366159,0.603601157665,-0.108363859355
2017/07/09/09:37:19.569232,262423,1499564242,369239322,,0.816827025358,-0.0478783823033,0.248912047827,0.723540200748,0.685456627638,0.0182235900919,0.0794146730318,0.00265248291377,-0.0157954426174,0.00945636018613,-0.012204547569,-0.0239485961129,-0.0197042452247,1.21232819557,-0.586621165276,0.741168797016,0.299678951502,0.654893815517,-0.0716870725155
2017/07/09/09:37:19.579208,262424,1499564242,379246457,,0.816065063223,-0.0479143603567,0.248060741668,0.723476189676,0.68565817784,0.0175867837185,0.0783949690482,-0.000101898928588,-0.000894266455707,-0.00453700502993,-0.0192280745002,0.0130198201929,0.0149606581521,1.17778706551,-0.741781830788,0.567626357079,0.336749136448,0.686484575272,-0.105380564928
2017/07/09/09:37:19.589820,262425,1499564242,389249549,,0.816765781114,-0.0473332625767,0.248732800144,0.723008988178,0.686053409707,0.01787025489,0.0791793914623,-0.00860176082061,0.00695371181363,-0.00672998623596,0.00266587749588,0.0298189149284,0.0126638559385,1.66640377045,0.0973983108997,0.700685381889,0.177481293678,0.816183388233,-0.112332522869
2017/07/09/09:37:19.599462,262426,1499564242,399248802,,0.816531778722,-0.047771011609,0.249270587385,0.723260621649,0.685770984991,0.0180333418697,0.0792907806612,0.00559687788681,-0.000335389990647,0.0132764812409,0.000445338647578,-0.0238549934542,0.0104394288258,1.75904130936,-0.827065050602,1.12795555592,0.401004880667,0.932142496109,-0.109253183007
2017/07/09/09:37:19.609485,262427,1499564242,409240319,,0.816370679908,-0.047579570303,0.248574893545,0.723312600561,0.685777242513,0.0178134615516,0.0788107613775,0.00704704200935,-0.000395530902064,0.0158829471836,-0.0272408083109,-0.0198374993468,0.00548283259727,0.740904688835,-0.256185680628,0.380216002464,0.131800055504,0.501757800579,-0.0882787182927
2017/07/09/09:37:19.619321,262428,1499564242,419281696,,0.816521394211,-0.0477205362446,0.248806277807,0.723138586862,0.685911993733,0.0175518337147,0.079292207544,-0.00309552567306,-0.0116307415813,-0.00990121430491,0.00246095946095,0.00348903830293,-0.0164277075094,1.57660770416,-0.323519140482,0.534414708614,0.211619704962,0.815696001053,-0.134608432651
2017/07/09/09:37:19.629074,262429,1499564242,429240104,,0.816375157346,-0.0479104640531,0.248542415295,0.723326714881,0.685743969375,0.0177733068417,0.0789796275507,0.00648674936974,0.000699657024198,0.0044907295978,-0.00145160710022,-0.0177146063066,0.00403937578437,1.26564013958,-0.704730510712,0.650599300861,0.35263478756,0.73778039217,-0.0793388187885
2017/07/09/09:37:19.639679,262430,1499564242,439247789,,0.816317298378,-0.0481336367983,0.249108423416,0.72352521119,0.685507248458,0.0176790206923,0.0792371965105,-0.000859125967882,-0.0122565502371,0.00114050045554,-0.00926572319928,-0.0075923011144,-0.0281128707217,0.569300353527,-0.433930277824,0.82740098238,0.237719714642,0.453462213278,-0.0657819733024
2017/07/09/09:37:19.649387,262431,1499564242,449244771,,0.816810577331,-0.0483559721015,0.248899850165,0.723434102121,0.685530882707,0.0176958263256,0.0798584151771,0.00517503122859,0.00912738008724,-0.00793732305467,0.00699011053319,0.00430818376633,0.00790225793555,1.05876171589,-0.384260445833,0.658201992512,0.19365760684,0.623010396957,-0.117269605398
2017/07/09/09:37:19.659443,262432,1499564242,459240268,,0.81719351129,-0.0474691189384,0.249379792511,0.723076376121,0.685903715004,0.0185018702002,0.0797140441678,0.00586832467859,-0.00526029871742,0.00385190081383,-0.0040261097585,-0.0197069771712,0.0186309383577,0.922638893127,0.241739273071,0.977418780327,0.108862474561,0.515449464321,-0.079613879323
2017/07/09/09:37:19.669459,262433,1499564242,469244009,,0.81674501773,-0.0479061280714,0.249015637688,0.723197578565,0.685808645759,0.0178646770792,0.0795777423247,0.00346094207695,-0.00633190382884,0.00174071518246,-0.00303297938383,-0.0132676130467,-0.00385642753107,1.19791245461,-0.155807211995,0.702827632427,0.216772139072,0.648874282837,-0.0921356230974
2017/07/09/09:37:19.679189,262434,1499564242,479241106,,0.816870117716,-0.047623167584,0.249592060623,0.723438043178,0.685541854439,0.0182632040304,0.0796003698036,-0.00511916894198,-0.00359521876223,0.0101448699898,-0.00328840618785,-0.000570887343801,-0.0227108165922,0.768338322639,0.0186067819595,0.821467876434,0.127412229776,0.525381147861,-0.113135322928
2017/07/09/09:37:19.689605,262435,1499564242,489249358,,0.81639605903,-0.048366780255,0.24896929585,0.723555999697,0.685450608281,0.0176297042308,0.0794567331288,-0.00141551283762,0.00913107128619,-0.00100694245735,0.00480160552575,0.01021760708,0.00726116023312,0.605501294136,-0.680819392204,0.894081771374,0.315444946289,0.493658006191,-0.0696229189634
2017/07/09/09:37:19.699309,262436,1499564242,499244227,,0.81677311653,-0.047709496419,0.248587579733,0.723561963617,0.68545238264,0.0180192304208,0.079299579284,-0.00677680107141,-0.00400149313725,-0.0102133180623,0.00418403940725,0.020505982133,-0.00686614581741,1.16270387173,-0.339251935482,0.649376869202,0.226557999849,0.702952384949,-0.10359454155
2017/07/09/09:37:19.709397,262437,1499564242,509242648,,0.816813249245,-0.0473072328047,0.248651220081,0.722812561196,0.686256228645,0.0179587853907,0.0791951516845,-0.00365631685159,-0.0139657141425,-0.0101879431593,-0.00200995287344,0.00307227994263,-0.0213612631088,0.948555886745,0.132509052753,0.821395218372,0.203776463866,0.547836601734,-0.0670180544257
