time,.header.seq,.header.stamp.secs,.header.stamp.nsecs,.header.frame_id,.quat,.acc
2017/07/09/09:43:01.138059,5657,1499564581,137821912,0,"(-5244, -3314, 9051, 12166)","(125, 1783, 627)"
2017/07/09/09:43:01.161262,5658,1499564581,160993099,0,"(-5228, -3397, 9044, 12156)","(18, 1931, 595)"
2017/07/09/09:43:01.183421,5659,1499564581,183171987,0,"(-5212, -3482, 9045, 12138)","(9, 2012, 575)"
2017/07/09/09:43:01.198005,5660,1499564581,197891950,0,"(-5209, -3552, 9022, 12136)","(36, 2008, 620)"
2017/07/09/09:43:01.205471,5661,1499564581,205347061,0,"(-5216, -3616, 8990, 12138)","(36, 1912, 606)"
2017/07/09/09:43:01.229459,5662,1499564581,228785037,0,"(-5212, -3689, 8962, 12138)","(-7, 1871, 553)"
2017/07/09/09:43:01.245039,5663,1499564581,244740009,0,"(-5193, -3772, 8949, 12131)","(-39, 1909, 554)"
2017/07/09/09:43:01.265834,5664,1499564581,265602111,0,"(-5174, -3857, 8940, 12118)","(-59, 1948, 582)"
2017/07/09/09:43:01.288848,5665,1499564581,288666009,0,"(-5160, -3939, 8923, 12110)","(-81, 1963, 594)"
2017/07/09/09:43:01.311596,5666,1499564581,311395883,0,"(-5147, -4017, 8894, 12112)","(-91, 1928, 577)"
2017/07/09/09:43:01.325983,5667,1499564581,325721025,0,"(-5129, -4097, 8862, 12115)","(-137, 1895, 550)"
2017/07/09/09:43:01.348889,5668,1499564581,348683118,0,"(-5104, -4176, 8842, 12114)","(-147, 1903, 549)"
2017/07/09/09:43:01.371014,5669,1499564581,370948076,0,"(-5077, -4254, 8824, 12112)","(-132, 1919, 557)"
2017/07/09/09:43:01.385680,5670,1499564581,385426998,0,"(-5053, -4326, 8798, 12115)","(-149, 1923, 578)"
2017/07/09/09:43:01.408470,5671,1499564581,408370971,0,"(-5030, -4395, 8766, 12123)","(-208, 1899, 549)"
2017/07/09/09:43:01.432256,5672,1499564581,432002067,0,"(-4997, -4462, 8743, 12128)","(-231, 1855, 513)"
2017/07/09/09:43:01.445699,5673,1499564581,445353031,0,"(-4962, -4526, 8725, 12132)","(-216, 1886, 541)"
2017/07/09/09:43:01.469202,5674,1499564581,468760967,0,"(-4934, -4582, 8698, 12142)","(-217, 1894, 586)"
2017/07/09/09:43:01.491301,5675,1499564581,491106986,0,"(-4907, -4633, 8668, 12155)","(-232, 1881, 545)"
2017/07/09/09:43:01.505959,5676,1499564581,505743026,0,"(-4875, -4689, 8639, 12167)","(-258, 1908, 531)"
2017/07/09/09:43:01.528260,5677,1499564581,527992963,0,"(-4844, -4738, 8612, 12180)","(-261, 1887, 545)"
2017/07/09/09:43:01.559238,5678,1499564581,559020996,0,"(-4818, -4778, 8579, 12198)","(-280, 1848, 565)"
2017/07/09/09:43:01.565596,5679,1499564581,565368890,0,"(-4781, -4823, 8550, 12215)","(-311, 1822, 557)"
2017/07/09/09:43:01.589016,5680,1499564581,588886976,0,"(-4739, -4866, 8528, 12230)","(-310, 1856, 584)"
2017/07/09/09:43:01.611104,5681,1499564581,611006021,0,"(-4701, -4907, 8506, 12243)","(-336, 1882, 569)"
2017/07/09/09:43:01.625684,5682,1499564581,625452995,0,"(-4669, -4942, 8473, 12264)","(-365, 1894, 553)"
2017/07/09/09:43:01.648075,5683,1499564581,647910118,0,"(-4639, -4969, 8434, 12292)","(-372, 1847, 578)"
2017/07/09/09:43:01.671713,5684,1499564581,671483993,0,"(-4596, -4997, 8394, 12323)","(-396, 1816, 598)"
2017/07/09/09:43:01.685667,5685,1499564581,685389041,0,"(-4549, -5027, 8366, 12348)","(-445, 1859, 593)"
2017/07/09/09:43:01.708549,5686,1499564581,708317041,0,"(-4505, -5049, 8339, 12374)","(-427, 1907, 573)"
2017/07/09/09:43:01.731436,5687,1499564581,731205940,0,"(-4468, -5061, 8290, 12415)","(-437, 1888, 602)"
2017/07/09/09:43:01.745625,5688,1499564581,745470046,0,"(-4424, -5074, 8243, 12456)","(-460, 1825, 603)"
2017/07/09/09:43:01.768174,5689,1499564581,767925024,0,"(-4382, -5086, 8201, 12494)","(-442, 1836, 629)"
2017/07/09/09:43:01.791576,5690,1499564581,791313886,0,"(-4339, -5097, 8158, 12533)","(-495, 1896, 605)"
2017/07/09/09:43:01.805774,5691,1499564581,805538892,0,"(-4295, -5102, 8112, 12575)","(-526, 1871, 637)"
2017/07/09/09:43:01.828123,5692,1499564581,827967882,0,"(-4248, -5099, 8071, 12619)","(-479, 1823, 647)"
2017/07/09/09:43:01.851326,5693,1499564581,851032018,0,"(-4201, -5098, 8030, 12661)","(-465, 1877, 627)"
2017/07/09/09:43:01.865699,5694,1499564581,865420103,0,"(-4154, -5098, 7976, 12711)","(-491, 1851, 640)"
2017/07/09/09:43:01.896908,5695,1499564581,896135091,0,"(-4108, -5085, 7914, 12769)","(-557, 1790, 677)"
2017/07/09/09:43:01.911274,5696,1499564581,911128044,0,"(-4050, -5072, 7861, 12826)","(-517, 1747, 685)"
2017/07/09/09:43:01.925528,5697,1499564581,925355911,0,"(-3996, -5056, 7814, 12878)","(-493, 1763, 768)"
2017/07/09/09:43:01.950825,5698,1499564581,948190927,0,"(-3937, -5042, 7774, 12926)","(-516, 1760, 697)"
2017/07/09/09:43:01.971131,5699,1499564581,971061944,0,"(-3879, -5026, 7732, 12975)","(-536, 1758, 698)"
2017/07/09/09:43:01.985858,5700,1499564581,985641956,0,"(-3825, -5005, 7683, 13028)","(-546, 1739, 710)"
2017/07/09/09:43:02.007979,5701,1499564582,7816076,0,"(-3768, -4978, 7638, 13081)","(-536, 1714, 763)"
2017/07/09/09:43:02.031525,5702,1499564582,31274080,0,"(-3725, -4954, 7589, 13131)","(-456, 1737, 813)"
2017/07/09/09:43:02.046154,5703,1499564582,45872926,0,"(-3679, -4930, 7529, 13187)","(-566, 1689, 772)"
2017/07/09/09:43:02.076904,5704,1499564582,76174974,0,"(-3615, -4905, 7478, 13243)","(-624, 1611, 758)"
2017/07/09/09:43:02.091439,5705,1499564582,91264963,0,"(-3550, -4880, 7449, 13286)","(-522, 1668, 835)"
2017/07/09/09:43:02.105801,5706,1499564582,105591058,0,"(-3508, -4854, 7421, 13322)","(-463, 1781, 849)"
2017/07/09/09:43:02.128264,5707,1499564582,128012895,0,"(-3481, -4825, 7359, 13374)","(-544, 1707, 821)"
2017/07/09/09:43:02.151740,5708,1499564582,151470899,0,"(-3432, -4796, 7296, 13432)","(-667, 1570, 825)"
2017/07/09/09:43:02.173564,5709,1499564582,173444032,0,"(-3362, -4769, 7268, 13474)","(-649, 1569, 874)"
2017/07/09/09:43:02.188093,5710,1499564582,187896013,0,"(-3320, -4735, 7241, 13511)","(-564, 1755, 931)"
2017/07/09/09:43:02.211756,5711,1499564582,211407899,0,"(-3301, -4692, 7183, 13561)","(-537, 1737, 888)"
2017/07/09/09:43:02.225741,5712,1499564582,225527048,0,"(-3277, -4647, 7102, 13626)","(-612, 1537, 951)"
2017/07/09/09:43:02.247982,5713,1499564582,247891902,0,"(-3212, -4612, 7072, 13669)","(-734, 1481, 913)"
2017/07/09/09:43:02.279960,5714,1499564582,278939962,0,"(-3160, -4572, 7084, 13688)","(-504, 1705, 926)"
2017/07/09/09:43:02.287770,5715,1499564582,287447929,0,"(-3142, -4521, 7053, 13724)","(-459, 1810, 949)"
2017/07/09/09:43:02.308474,5716,1499564582,308283090,0,"(-3120, -4475, 6995, 13774)","(-642, 1543, 926)"
2017/07/09/09:43:02.331562,5717,1499564582,331451892,0,"(-3063, -4436, 6962, 13817)","(-715, 1518, 972)"
2017/07/09/09:43:02.345454,5718,1499564582,345343112,0,"(-3019, -4390, 6940, 13852)","(-497, 1655, 1009)"
2017/07/09/09:43:02.368297,5719,1499564582,368083953,0,"(-2982, -4334, 6909, 13893)","(-541, 1639, 975)"
2017/07/09/09:43:02.391324,5720,1499564582,391124963,0,"(-2950, -4283, 6877, 13931)","(-537, 1581, 993)"
2017/07/09/09:43:02.407058,5721,1499564582,406774044,0,"(-2914, -4231, 6850, 13968)","(-544, 1620, 990)"
2017/07/09/09:43:02.429665,5722,1499564582,429557085,0,"(-2891, -4175, 6816, 14006)","(-442, 1530, 1050)"
2017/07/09/09:43:02.451627,5723,1499564582,451354980,0,"(-2866, -4125, 6775, 14046)","(-554, 1482, 1060)"
2017/07/09/09:43:02.473766,5724,1499564582,473465919,0,"(-2830, -4078, 6756, 14076)","(-587, 1433, 1107)"
2017/07/09/09:43:02.488681,5725,1499564582,488593101,0,"(-2801, -4021, 6756, 14098)","(-472, 1539, 1079)"
2017/07/09/09:43:02.511828,5726,1499564582,511539936,0,"(-2790, -3969, 6745, 14121)","(-376, 1516, 1044)"
2017/07/09/09:43:02.534113,5727,1499564582,533869028,0,"(-2780, -3931, 6733, 14139)","(-492, 1550, 1047)"
2017/07/09/09:43:02.547989,5728,1499564582,547872066,0,"(-2775, -3891, 6713, 14161)","(-442, 1577, 1104)"
2017/07/09/09:43:02.579626,5729,1499564582,578764915,0,"(-2771, -3849, 6679, 14188)","(-463, 1535, 1126)"
2017/07/09/09:43:02.593810,5730,1499564582,593636989,0,"(-2765, -3809, 6653, 14213)","(-484, 1492, 1111)"
2017/07/09/09:43:02.608413,5731,1499564582,608133077,0,"(-2757, -3766, 6625, 14239)","(-463, 1535, 1158)"
2017/07/09/09:43:02.631122,5732,1499564582,630966901,0,"(-2753, -3726, 6600, 14262)","(-454, 1541, 1206)"
2017/07/09/09:43:02.645489,5733,1499564582,645359992,0,"(-2746, -3687, 6573, 14286)","(-492, 1561, 1133)"
2017/07/09/09:43:02.668077,5734,1499564582,667928934,0,"(-2739, -3641, 6534, 14316)","(-443, 1510, 1172)"
2017/07/09/09:43:02.691325,5735,1499564582,691237926,0,"(-2739, -3597, 6522, 14333)","(-378, 1475, 1150)"
2017/07/09/09:43:02.713748,5736,1499564582,713500022,0,"(-2739, -3569, 6532, 14336)","(-495, 1513, 1038)"
2017/07/09/09:43:02.727940,5737,1499564582,727813959,0,"(-2742, -3535, 6536, 14342)","(-459, 1514, 1118)"
2017/07/09/09:43:02.751807,5738,1499564582,751605033,0,"(-2744, -3508, 6526, 14353)","(-464, 1423, 1183)"
2017/07/09/09:43:02.765964,5739,1499564582,765568971,0,"(-2744, -3488, 6536, 14353)","(-521, 1440, 1171)"
2017/07/09/09:43:02.787901,5740,1499564582,787802934,0,"(-2751, -3469, 6549, 14350)","(-502, 1536, 1091)"
2017/07/09/09:43:02.811147,5741,1499564582,810975074,0,"(-2753, -3434, 6548, 14359)","(-454, 1484, 1105)"
2017/07/09/09:43:02.833693,5742,1499564582,833584070,0,"(-2746, -3398, 6556, 14365)","(-451, 1466, 1156)"
2017/07/09/09:43:02.848366,5743,1499564582,848087072,0,"(-2750, -3361, 6575, 14364)","(-377, 1557, 1154)"
2017/07/09/09:43:02.871735,5744,1499564582,871457099,0,"(-2761, -3340, 6576, 14367)","(-444, 1511, 1124)"
2017/07/09/09:43:02.885526,5745,1499564582,885322093,0,"(-2770, -3310, 6572, 14373)","(-470, 1501, 1114)"
2017/07/09/09:43:02.908216,5746,1499564582,908108949,0,"(-2775, -3277, 6566, 14383)","(-404, 1555, 1215)"
2017/07/09/09:43:02.932455,5747,1499564582,931663036,0,"(-2777, -3251, 6569, 14387)","(-412, 1593, 1116)"
2017/07/09/09:43:02.945530,5748,1499564582,945350885,0,"(-2777, -3227, 6569, 14393)","(-377, 1638, 1158)"
2017/07/09/09:43:02.968379,5749,1499564582,968183040,0,"(-2780, -3217, 6557, 14400)","(-395, 1621, 1252)"
2017/07/09/09:43:02.991122,5750,1499564582,991015911,0,"(-2784, -3212, 6531, 14412)","(-389, 1569, 1212)"
2017/07/09/09:43:03.005939,5751,1499564583,5757093,0,"(-2781, -3196, 6498, 14431)","(-301, 1520, 1257)"
2017/07/09/09:43:03.028060,5752,1499564583,27899980,0,"(-2769, -3191, 6468, 14448)","(-375, 1523, 1259)"
2017/07/09/09:43:03.052134,5753,1499564583,51378011,0,"(-2762, -3194, 6458, 14453)","(-371, 1552, 1288)"
2017/07/09/09:43:03.065696,5754,1499564583,65534114,0,"(-2760, -3208, 6445, 14456)","(-331, 1564, 1250)"
2017/07/09/09:43:03.088509,5755,1499564583,88310956,0,"(-2754, -3229, 6416, 14465)","(-359, 1538, 1265)"
2017/07/09/09:43:03.111670,5756,1499564583,111541986,0,"(-2749, -3246, 6377, 14480)","(-413, 1433, 1319)"
2017/07/09/09:43:03.133928,5757,1499564583,133748054,0,"(-2744, -3257, 6358, 14487)","(-433, 1380, 1294)"
2017/07/09/09:43:03.148186,5758,1499564583,148061990,0,"(-2730, -3274, 6365, 14482)","(-378, 1478, 1239)"
2017/07/09/09:43:03.171922,5759,1499564583,171325922,0,"(-2712, -3299, 6369, 14478)","(-379, 1475, 1229)"
2017/07/09/09:43:03.193666,5760,1499564583,193571090,0,"(-2694, -3326, 6375, 14473)","(-442, 1501, 1206)"
2017/07/09/09:43:03.208611,5761,1499564583,208420038,0,"(-2682, -3351, 6389, 14463)","(-468, 1502, 1198)"
2017/07/09/09:43:03.231277,5762,1499564583,230957031,0,"(-2672, -3377, 6395, 14456)","(-508, 1523, 1151)"
2017/07/09/09:43:03.253735,5763,1499564583,253587961,0,"(-2662, -3392, 6400, 14452)","(-510, 1344, 1172)"
2017/07/09/09:43:03.268068,5764,1499564583,267838001,0,"(-2646, -3406, 6421, 14443)","(-484, 1322, 1257)"
2017/07/09/09:43:03.290723,5765,1499564583,290595054,0,"(-2623, -3415, 6466, 14425)","(-543, 1383, 1177)"
2017/07/09/09:43:03.313791,5766,1499564583,313529014,0,"(-2611, -3421, 6525, 14399)","(-426, 1434, 1086)"
2017/07/09/09:43:03.328968,5767,1499564583,328090906,0,"(-2607, -3431, 6553, 14384)","(-458, 1476, 1079)"
2017/07/09/09:43:03.350542,5768,1499564583,350305080,0,"(-2599, -3434, 6576, 14375)","(-476, 1311, 1127)"
2017/07/09/09:43:03.374406,5769,1499564583,373733997,0,"(-2591, -3434, 6609, 14361)","(-478, 1440, 1112)"
2017/07/09/09:43:03.388677,5770,1499564583,388535976,0,"(-2596, -3432, 6644, 14344)","(-418, 1457, 1085)"
2017/07/09/09:43:03.410569,5771,1499564583,410387039,0,"(-2612, -3432, 6669, 14330)","(-447, 1341, 1069)"
2017/07/09/09:43:03.434090,5772,1499564583,433754920,0,"(-2626, -3433, 6709, 14309)","(-346, 1571, 1038)"
2017/07/09/09:43:03.448281,5773,1499564583,448170900,0,"(-2651, -3440, 6721, 14296)","(-335, 1528, 1145)"
2017/07/09/09:43:03.478896,5774,1499564583,478559970,0,"(-2680, -3464, 6724, 14284)","(-436, 1619, 1086)"
2017/07/09/09:43:03.493807,5775,1499564583,493504047,0,"(-2699, -3488, 6716, 14278)","(-476, 1725, 1126)"
2017/07/09/09:43:03.517303,5776,1499564583,516561985,0,"(-2716, -3504, 6717, 14270)","(-412, 1651, 1007)"
2017/07/09/09:43:03.531214,5777,1499564583,530848979,0,"(-2732, -3528, 6711, 14264)","(-375, 1616, 1112)"
2017/07/09/09:43:03.553587,5778,1499564583,553452968,0,"(-2745, -3562, 6696, 14260)","(-582, 1578, 1109)"
2017/07/09/09:43:03.567944,5779,1499564583,567764997,0,"(-2752, -3573, 6697, 14256)","(-572, 1563, 1084)"
2017/07/09/09:43:03.590945,5780,1499564583,590780019,0,"(-2757, -3574, 6703, 14252)","(-582, 1578, 1082)"
2017/07/09/09:43:03.614475,5781,1499564583,613753080,0,"(-2759, -3561, 6710, 14252)","(-416, 1605, 1135)"
2017/07/09/09:43:03.628014,5782,1499564583,627862930,0,"(-2762, -3562, 6706, 14252)","(-540, 1604, 1165)"
2017/07/09/09:43:03.650493,5783,1499564583,650377035,0,"(-2765, -3559, 6696, 14257)","(-588, 1559, 1203)"
2017/07/09/09:43:03.673989,5784,1499564583,673820972,0,"(-2758, -3553, 6696, 14260)","(-584, 1511, 1202)"
2017/07/09/09:43:03.687998,5785,1499564583,687855005,0,"(-2748, -3542, 6708, 14259)","(-518, 1591, 1146)"
2017/07/09/09:43:03.710876,5786,1499564583,710639953,0,"(-2753, -3535, 6707, 14260)","(-482, 1612, 1157)"
2017/07/09/09:43:03.733603,5787,1499564583,733510017,0,"(-2752, -3542, 6697, 14264)","(-616, 1530, 1141)"
2017/07/09/09:43:03.749449,5788,1499564583,749327898,0,"(-2742, -3539, 6706, 14262)","(-557, 1505, 1097)"
2017/07/09/09:43:03.779384,5789,1499564583,778517961,0,"(-2739, -3529, 6719, 14259)","(-462, 1562, 1143)"
2017/07/09/09:43:03.793687,5790,1499564583,793519973,0,"(-2738, -3526, 6724, 14258)","(-520, 1572, 1146)"
2017/07/09/09:43:03.808092,5791,1499564583,807820081,0,"(-2734, -3520, 6725, 14260)","(-519, 1480, 1132)"
2017/07/09/09:43:03.830944,5792,1499564583,830652952,0,"(-2731, -3513, 6735, 14257)","(-469, 1515, 1141)"
2017/07/09/09:43:03.854350,5793,1499564583,853774070,0,"(-2729, -3511, 6747, 14252)","(-494, 1593, 1116)"
2017/07/09/09:43:03.868254,5794,1499564583,868143081,0,"(-2727, -3510, 6758, 14247)","(-470, 1569, 1088)"
2017/07/09/09:43:03.890774,5795,1499564583,890460014,0,"(-2728, -3510, 6759, 14247)","(-461, 1637, 1105)"
2017/07/09/09:43:03.914412,5796,1499564583,914160013,0,"(-2726, -3515, 6754, 14248)","(-514, 1562, 1115)"
2017/07/09/09:43:03.943798,5797,1499564583,943636894,0,"(-2726, -3515, 6753, 14249)","(-460, 1498, 1118)"
2017/07/09/09:43:03.950365,5798,1499564583,950268983,0,"(-2724, -3515, 6756, 14248)","(-449, 1519, 1127)"
2017/07/09/09:43:03.973777,5799,1499564583,973496913,0,"(-2721, -3521, 6762, 14244)","(-527, 1568, 1120)"
2017/07/09/09:43:03.988518,5800,1499564583,988334894,0,"(-2718, -3517, 6763, 14245)","(-498, 1545, 1153)"
2017/07/09/09:43:04.010825,5801,1499564584,10649919,0,"(-2715, -3513, 6763, 14247)","(-488, 1553, 1153)"
2017/07/09/09:43:04.041345,5802,1499564584,41027069,0,"(-2714, -3510, 6756, 14251)","(-468, 1556, 1169)"
2017/07/09/09:43:04.056720,5803,1499564584,56226968,0,"(-2714, -3516, 6748, 14253)","(-532, 1535, 1142)"
2017/07/09/09:43:04.070996,5804,1499564584,70658922,0,"(-2713, -3517, 6747, 14254)","(-508, 1544, 1152)"
2017/07/09/09:43:04.094002,5805,1499564584,93671083,0,"(-2710, -3513, 6752, 14253)","(-463, 1553, 1125)"
2017/07/09/09:43:04.107965,5806,1499564584,107806921,0,"(-2713, -3508, 6757, 14251)","(-417, 1527, 1100)"
2017/07/09/09:43:04.131067,5807,1499564584,130677938,0,"(-2715, -3515, 6760, 14248)","(-521, 1536, 1119)"
2017/07/09/09:43:04.153362,5808,1499564584,153081893,0,"(-2714, -3520, 6773, 14241)","(-493, 1533, 1109)"
2017/07/09/09:43:04.168271,5809,1499564584,168121099,0,"(-2709, -3521, 6794, 14231)","(-484, 1614, 1092)"
2017/07/09/09:43:04.190616,5810,1499564584,190409898,0,"(-2707, -3517, 6809, 14225)","(-426, 1632, 1081)"
2017/07/09/09:43:04.221463,5811,1499564584,221271991,0,"(-2709, -3514, 6803, 14228)","(-447, 1574, 1112)"
2017/07/09/09:43:04.228352,5812,1499564584,228203058,0,"(-2712, -3512, 6794, 14233)","(-484, 1483, 1149)"
2017/07/09/09:43:04.250875,5813,1499564584,250721931,0,"(-2708, -3514, 6800, 14230)","(-509, 1509, 1152)"
2017/07/09/09:43:04.273192,5814,1499564584,272838115,0,"(-2702, -3513, 6811, 14226)","(-455, 1599, 1105)"
2017/07/09/09:43:04.296471,5815,1499564584,296220064,0,"(-2701, -3509, 6811, 14228)","(-445, 1587, 1126)"
2017/07/09/09:43:04.310584,5816,1499564584,310448884,0,"(-2701, -3501, 6814, 14228)","(-441, 1518, 1102)"
2017/07/09/09:43:04.333222,5817,1499564584,332979917,0,"(-2700, -3500, 6827, 14222)","(-461, 1580, 1088)"
2017/07/09/09:43:04.349728,5818,1499564584,349625110,0,"(-2700, -3500, 6827, 14222)","(-439, 1620, 1107)"
2017/07/09/09:43:04.371524,5819,1499564584,370814085,0,"(-2700, -3503, 6820, 14225)","(-484, 1569, 1120)"
2017/07/09/09:43:04.393452,5820,1499564584,393291950,0,"(-2696, -3503, 6820, 14225)","(-506, 1544, 1123)"
2017/07/09/09:43:04.416081,5821,1499564584,416003942,0,"(-2691, -3501, 6832, 14221)","(-462, 1580, 1112)"
2017/07/09/09:43:04.430413,5822,1499564584,430289030,0,"(-2689, -3498, 6838, 14220)","(-434, 1593, 1109)"
2017/07/09/09:43:04.453343,5823,1499564584,453187942,0,"(-2688, -3501, 6838, 14219)","(-483, 1543, 1114)"
2017/07/09/09:43:04.477716,5824,1499564584,477440118,0,"(-2684, -3500, 6844, 14217)","(-490, 1529, 1127)"
2017/07/09/09:43:04.494999,5825,1499564584,494868040,0,"(-2681, -3495, 6860, 14211)","(-458, 1586, 1087)"
2017/07/09/09:43:04.513058,5826,1499564584,512904882,0,"(-2680, -3489, 6866, 14210)","(-423, 1642, 1065)"
2017/07/09/09:43:04.537009,5827,1499564584,536678075,0,"(-2680, -3487, 6859, 14214)","(-481, 1593, 1100)"
2017/07/09/09:43:04.550903,5828,1499564584,550607919,0,"(-2679, -3485, 6855, 14216)","(-472, 1531, 1115)"
2017/07/09/09:43:04.573090,5829,1499564584,572910070,0,"(-2675, -3482, 6860, 14216)","(-455, 1578, 1097)"
2017/07/09/09:43:04.596349,5830,1499564584,596040964,0,"(-2670, -3476, 6863, 14216)","(-438, 1599, 1093)"
2017/07/09/09:43:04.611247,5831,1499564584,610903024,0,"(-2667, -3473, 6866, 14216)","(-474, 1569, 1095)"
2017/07/09/09:43:04.633660,5832,1499564584,633204936,0,"(-2664, -3471, 6873, 14214)","(-482, 1578, 1099)"
2017/07/09/09:43:04.656233,5833,1499564584,655985116,0,"(-2661, -3466, 6877, 14214)","(-427, 1582, 1083)"
2017/07/09/09:43:04.670503,5834,1499564584,670341968,0,"(-2658, -3465, 6870, 14218)","(-452, 1544, 1119)"
2017/07/09/09:43:04.693398,5835,1499564584,693110942,0,"(-2654, -3461, 6865, 14222)","(-468, 1511, 1120)"
